426,692,655,451,335,263,233,284
405,652,621,437,321,260,229,291
451,691,610,466,333,269,239,310
435,677,648,427,306,241,219,283
392,632,633,399,275,218,189,252
368,648,627,379,252,201,173,227
388,731,732,410,265,199,178,215
389,796,829,464,272,207,179,197
384,783,810,482,269,202,172,190
395,798,834,482,267,200,171,188
402,830,871,542,295,217,186,199
404,799,855,546,289,214,184,195
345,680,742,473,262,188,164,172
335,659,743,458,247,180,161,179
296,590,710,452,239,174,153,167
279,545,646,351,189,141,128,143
272,533,587,292,163,125,111,134
269,513,616,302,165,129,121,151
246,477,579,247,151,119,107,141
255,499,560,225,155,121,116,149
238,436,598,234,154,121,110,145
231,413,593,233,161,128,112,148
235,479,611,228,163,139,114,144
225,491,616,234,158,134,114,144
232,525,604,241,151,135,111,149
250,585,576,260,159,137,116,153
213,568,525,258,156,131,118,148
210,529,464,256,155,125,118,141
239,524,545,276,163,126,124,139
237,482,555,280,162,118,121,124
216,389,528,249,156,124,113,116
244,397,555,255,159,132,124,136
262,433,568,249,157,123,112,127
235,438,531,233,154,128,107,120
227,471,524,228,155,136,114,123
274,521,522,230,152,127,125,136
278,519,516,234,152,126,109,122
261,484,484,226,148,132,110,121
262,528,477,258,160,136,132,153
285,505,518,287,191,148,143,170
256,513,533,290,190,150,136,166
291,556,563,329,220,171,153,191
309,574,587,328,222,169,155,195
355,566,606,350,244,185,151,197
336,564,549,325,229,179,137,179
348,558,534,334,240,182,142,180
322,564,535,291,210,172,135,163
319,538,533,302,216,179,139,161
285,499,530,258,183,153,124,138
288,487,533,253,172,147,120,151
286,475,514,254,166,152,120,156
265,434,456,245,159,133,106,147
273,500,452,260,175,131,109,158
266,585,455,286,196,144,119,154
272,589,446,283,191,138,116,145
265,691,575,277,195,137,121,144
295,686,648,291,214,148,131,148
324,669,666,300,212,150,151,166
303,588,623,247,180,137,140,165
288,579,667,244,179,139,141,170
286,440,642,268,189,143,142,179
257,438,577,267,180,143,134,171
181,382,556,234,161,135,97,137
190,378,554,237,165,138,100,146
249,475,587,242,170,145,109,155
248,482,504,205,137,128,91,138
247,488,500,183,125,115,93,144
269,511,470,166,114,111,104,157
268,515,473,166,112,107,97,141
225,555,487,235,146,118,104,147
230,546,516,234,155,130,108,147
214,529,551,245,153,129,104,142
232,594,607,279,178,146,107,150
245,587,622,278,176,142,108,154
273,472,543,233,157,129,102,140
261,468,531,232,151,117,107,148
282,464,530,226,149,114,111,149
256,350,511,183,117,89,103,128
243,405,470,186,119,91,104,126
239,384,469,175,104,94,96,108
229,354,438,163,106,97,86,89
221,435,421,173,114,96,82,88
229,506,437,185,118,107,86,110
252,482,441,182,120,106,87,126
217,484,454,177,123,103,86,131
225,489,460,184,128,108,87,144
209,417,422,161,117,110,96,146
209,346,344,147,120,100,90,131
202,363,419,174,140,113,97,127
204,397,437,177,135,107,92,130
207,423,466,190,137,106,94,120
210,432,484,196,140,109,89,119
211,464,519,235,168,130,98,124
217,505,538,233,160,128,89,107
220,525,529,227,173,147,104,131
257,544,525,232,172,150,114,164
288,605,609,248,183,157,122,173
304,583,592,212,158,143,116,177
307,536,550,205,150,136,119,190
301,509,560,217,147,128,109,170
275,468,543,197,137,118,97,139
238,349,418,173,130,114,88,127
217,327,440,168,124,109,91,136
185,295,398,147,116,104,83,122
191,290,391,132,102,91,85,126
192,299,424,131,116,103,86,132
205,331,439,130,110,98,85,137
201,370,398,144,114,101,85,124
200,395,396,158,122,105,90,123
191,382,418,141,120,106,86,116
175,386,384,147,124,105,89,105
155,360,374,145,116,96,85,96
125,338,375,133,112,92,83,89
136,359,396,123,110,91,81,98
145,371,368,149,117,85,82,108
164,369,426,162,123,89,90,114
184,377,450,185,135,93,98,110
235,419,491,235,164,116,121,134
228,385,554,242,162,115,118,124
240,411,554,237,155,114,119,125
234,408,512,220,138,104,110,127
242,405,513,222,152,121,105,130
211,418,552,177,119,102,73,109
232,440,472,169,123,106,80,110
247,462,470,178,127,110,82,113
249,455,543,191,132,109,88,127
233,467,512,167,105,93,83,125
246,433,445,163,115,98,85,120
250,411,472,161,109,95,79,121
220,339,451,157,114,93,78,110
245,419,417,183,118,104,92,106
240,459,444,196,121,116,92,110
217,427,415,191,111,113,87,109
233,518,457,210,120,125,99,133
263,537,445,199,111,130,104,149
234,491,445,172,103,124,93,141
245,455,423,162,109,134,97,136
257,473,469,175,115,138,102,148
241,394,410,150,107,133,89,128
212,370,412,149,109,135,82,107
236,351,334,134,101,134,73,98
293,373,344,139,103,121,74,107
298,428,355,166,114,117,84,102
303,462,421,177,114,109,90,101
322,476,483,178,116,126,93,119
314,491,496,186,124,132,95,118
315,517,508,197,129,141,95,115
321,517,531,192,122,149,95,126
327,478,495,201,141,163,99,134
321,463,434,199,138,147,93,118
341,508,457,223,144,143,96,127
293,469,442,208,131,128,93,125
299,452,462,211,135,121,88,120
275,450,437,202,125,111,88,121
257,451,444,204,127,106,88,121
214,394,401,167,115,110,81,118
201,384,394,159,117,107,78,114
219,407,288,129,119,104,74,109
227,411,305,116,115,105,58,92
250,433,305,127,115,108,59,90
274,441,350,147,121,106,59,82
273,504,414,168,138,118,67,93
244,453,408,178,139,136,73,88
236,458,401,183,136,128,75,98
215,438,424,180,137,138,78,98
194,424,404,166,127,135,81,101
242,365,354,149,109,130,78,102
262,352,354,129,90,104,67,96
267,332,394,131,96,111,71,99
324,370,363,127,94,98,74,133
351,407,354,134,101,100,70,132
324,375,334,128,94,90,70,129
313,373,349,122,93,90,70,130
311,365,301,115,83,78,69,125
254,336,358,116,82,80,65,89
223,346,366,114,73,71,69,90
239,355,396,122,76,75,66,85
239,352,385,116,74,79,66,86
229,346,379,111,70,79,63,87
233,352,330,124,81,81,71,99
221,295,317,117,83,83,68,98
233,367,322,129,91,85,74,106
232,372,333,142,103,84,77,112
232,378,356,136,105,88,77,107
219,373,349,119,97,86,67,97
222,400,370,135,108,86,71,105
189,369,340,131,111,90,75,113
153,354,313,126,105,90,74,99
164,369,306,131,106,84,75,107
183,365,299,127,99,84,78,105
168,331,272,118,88,79,72,98
160,270,252,103,74,79,61,77
175,308,253,110,76,78,67,87
165,286,239,121,86,92,70,82
157,291,240,122,87,92,69,84
196,320,238,128,92,93,73,94
200,325,251,134,96,92,74,96
191,336,242,126,95,103,68,87
199,350,328,134,112,96,69,96
195,353,386,139,117,101,67,102
172,344,409,127,119,109,67,104
172,358,413,136,121,109,65,103
165,350,440,144,124,100,69,113
195,355,409,128,104,96,68,112
209,342,374,134,105,93,72,111
213,330,383,137,101,90,66,99
221,330,399,129,95,85,71,103
252,338,399,121,91,88,67,105
220,310,378,117,88,88,64,101
199,319,371,105,77,92,57,93
191,302,370,115,85,93,62,94
222,328,436,126,100,101,58,88
208,282,415,122,98,99,54,70
222,304,420,144,105,100,58,64
242,383,471,156,121,100,63,78
252,396,515,150,114,100,59,79
235,376,460,140,103,93,56,82
229,433,465,151,110,93,64,97
241,439,440,131,102,101,66,110
229,398,391,126,96,97,67,107
209,399,302,122,95,87,64,103
195,394,270,118,97,97,70,107
186,348,292,106,88,93,66,101
161,335,320,114,91,83,62,98
204,287,297,98,78,77,59,93
205,268,292,94,80,102,74,98
225,282,337,113,86,96,73,95
229,407,406,118,81,97,74,98
235,430,396,121,83,95,72,87
189,442,401,124,86,101,72,88
197,503,414,139,99,88,62,92
174,489,411,137,94,83,66,92
176,428,335,143,108,88,69,87
159,393,347,133,106,90,70,101
190,458,367,151,117,93,81,113
180,402,375,147,115,96,79,109
170,413,374,142,116,102,79,110
180,375,357,134,109,122,81,114
182,378,336,132,106,120,78,99
147,278,347,120,96,114,66,83
167,283,339,133,91,118,74,103
197,325,316,146,95,118,76,103
188,328,322,149,94,92,71,103
228,321,323,154,98,97,71,110
246,351,313,153,107,107,84,121
248,343,293,139,104,93,75,100
232,310,279,128,107,103,75,96
228,314,281,141,119,116,80,99
224,340,314,156,125,118,84,96
298,374,341,166,125,120,79,98
301,380,338,163,121,120,85,104
301,430,429,172,116,110,81,112
301,419,437,156,100,99,73,103
293,477,420,144,93,94,72,106
207,456,381,123,77,79,67,96
198,487,444,174,109,105,70,93
199,469,380,178,115,106,74,94
191,466,364,183,121,108,74,90
169,412,365,176,119,109,71,86
165,439,377,184,119,107,70,83
144,410,323,149,108,88,67,81
153,399,300,135,101,94,67,78
160,426,328,139,98,95,73,81
174,459,369,155,107,94,82,119
203,411,354,157,113,99,79,119
221,424,356,146,99,92,74,131
225,402,374,143,98,88,72,137
222,395,356,143,103,87,72,144
208,371,324,124,96,87,63,123
190,378,320,124,93,83,63,124
188,362,315,133,108,88,67,113
170,351,306,122,104,82,67,108
181,378,351,149,115,90,73,110
209,468,395,191,136,98,87,111
225,501,470,212,148,102,90,114
212,486,463,208,142,99,92,119
220,539,473,216,141,101,89,112
238,531,473,204,129,89,79,103
224,501,445,180,109,82,65,100
209,494,417,165,97,84,66,100
206,504,407,167,97,87,60,102
189,490,390,164,103,92,63,104
164,483,377,149,99,94,66,123
225,501,469,186,129,120,97,152
221,472,428,173,124,115,96,156
299,524,502,234,156,130,117,179
327,557,514,263,175,135,127,186
334,575,513,286,188,140,133,184
307,508,426,264,173,126,120,166
315,545,454,269,174,128,126,169
251,552,435,239,154,117,118,153
243,570,461,217,139,122,118,159
239,556,465,196,136,122,110,144
227,580,457,187,133,113,102,135
214,571,443,177,129,107,97,136
216,542,457,165,122,99,84,123
197,451,429,149,112,78,70,113
200,461,433,158,103,72,86,143
202,411,457,160,103,80,89,141
209,418,482,178,112,89,91,138
250,475,466,192,118,98,96,145
253,486,457,194,126,104,96,139
248,494,418,181,123,107,85,119
240,508,451,187,126,101,84,121
252,509,436,182,123,99,81,123
199,421,375,157,115,91,70,114
213,445,374,197,137,112,89,132
215,435,392,200,142,118,92,134
225,488,377,225,154,128,100,148
210,459,407,239,166,139,112,157
229,463,418,238,170,148,114,157
223,451,412,198,144,127,99,144
220,490,408,193,136,116,95,137
268,492,400,223,155,130,110,158
272,482,400,216,146,117,98,150
276,500,406,236,146,105,105,161
268,543,437,253,162,117,116,169
276,518,433,251,161,116,114,171
227,490,397,197,133,100,92,140
220,507,367,186,133,108,93,132
211,492,373,158,127,109,92,122
214,440,357,152,112,97,82,111
219,505,388,168,124,102,88,116
213,495,467,186,115,89,92,128
216,521,478,189,106,78,97,142
227,590,555,192,101,76,91,141
231,602,569,188,104,80,95,145
222,537,575,178,94,76,88,137
240,627,556,172,94,84,103,159
255,602,542,192,116,97,115,169
250,534,467,193,125,101,117,173
274,567,502,220,146,119,123,175
271,578,553,247,158,131,129,177
275,481,554,267,171,134,121,151
256,490,538,245,154,122,103,125
253,509,544,245,147,117,100,113
242,522,501,235,134,102,94,106
235,514,481,219,124,88,92,112
217,494,428,182,108,78,80,117
228,507,468,197,125,102,95,144
256,560,515,224,143,108,99,153
268,521,557,232,144,108,99,156
268,514,575,231,152,127,114,156
324,578,575,232,148,124,117,162
321,619,593,251,160,125,123,150
324,642,550,235,155,132,135,152
298,627,510,224,161,137,136,146
340,695,570,285,192,137,141,156
299,688,571,285,197,145,146,159
297,647,552,275,190,135,134,146
271,621,560,275,190,138,124,163
267,628,547,260,177,138,120,167
310,610,419,196,140,129,106,168
316,609,498,228,152,133,106,156
347,653,574,257,170,138,126,213
389,699,623,304,215,182,145,205
395,727,631,304,215,177,145,206
368,719,623,306,215,174,144,223
371,741,638,319,220,178,152,233
339,698,611,287,205,171,134,186
313,654,584,260,173,134,120,183
304,611,578,268,179,149,126,192
322,601,601,281,196,170,134,187
295,544,535,238,178,165,117,166
331,535,470,238,180,182,124,166
303,495,418,215,162,176,114,157
364,561,445,233,173,176,120,188
309,533,423,213,149,171,110,167
333,587,501,238,164,176,129,183
307,665,510,242,166,183,144,188
314,703,531,239,164,177,147,193
333,730,577,295,192,176,152,166
375,775,653,319,207,171,162,172
386,759,687,360,221,184,162,199
430,729,698,386,232,184,150,205
423,670,688,388,237,189,145,199
384,587,656,356,221,197,148,210
398,572,609,396,252,226,162,237
380,530,514,358,241,221,156,211
337,484,522,331,233,219,157,201
360,544,593,374,247,228,161,227
357,564,594,405,276,241,156,212
294,502,576,348,234,210,137,174
281,490,554,338,228,201,136,177
280,520,582,354,229,193,142,189
280,478,503,305,209,176,141,164
264,460,471,243,147,141,140,163
314,555,527,263,159,140,140,168
327,602,558,280,170,153,146,168
343,587,541,278,177,174,151,174
346,607,633,305,186,191,164,198
349,614,662,351,233,220,172,216
324,537,602,330,229,218,164,210
319,509,648,346,239,225,157,208
296,504,617,336,232,204,150,202
274,480,534,309,228,195,133,176
262,481,510,261,188,167,127,185
235,488,514,268,191,178,128,185
232,475,415,234,169,160,119,177
228,494,429,214,158,179,111,165
222,483,406,214,156,171,105,157
225,458,425,205,149,165,90,129
244,527,455,226,153,150,91,133
237,535,469,226,153,151,94,135
292,546,472,260,168,139,125,171
317,557,481,272,177,147,131,190
347,631,488,290,197,165,143,200
338,603,501,270,190,169,144,199
359,675,605,331,226,205,170,214
313,636,581,316,224,201,154,188
305,689,681,345,242,206,157,178
259,613,654,331,232,198,138,148
238,575,619,325,229,197,138,143
237,469,511,251,186,155,108,113
248,474,519,242,173,144,107,113
227,361,372,176,130,128,97,117
288,388,381,191,138,129,109,158
294,357,346,183,132,121,103,156
293,394,403,206,144,131,119,172
286,437,444,226,163,152,123,171
288,487,501,247,184,181,144,170
242,492,483,227,167,172,137,129
241,494,513,233,167,177,144,150
224,487,479,235,167,180,128,135
239,481,453,227,159,172,124,137
235,441,380,195,127,132,96,122
218,423,415,199,131,126,112,171
241,438,428,206,138,126,108,157
288,409,418,176,125,108,108,160
271,384,378,172,126,101,101,156
283,385,418,184,133,111,113,186
303,389,401,184,130,131,109,188
304,378,372,176,125,127,111,198
297,427,382,225,153,139,136,229
297,410,407,226,148,139,136,231
286,387,375,223,148,137,128,214
261,374,361,212,147,131,111,173
241,405,372,212,151,136,108,161
181,375,344,154,118,120,70,107
194,385,409,144,112,118,63,109
203,391,396,140,124,129,62,97
203,384,392,136,118,115,68,97
216,401,376,137,120,110,81,172
214,370,371,145,129,107,82,170
198,381,317,137,126,103,81,165
200,432,335,135,110,79,84,164
219,468,352,144,120,82,84,170
216,420,369,134,104,71,65,108
238,493,398,123,95,84,67,126
253,477,358,119,92,90,76,135
255,456,390,133,96,104,83,134
260,480,446,151,103,123,95,140
247,485,424,151,106,124,94,128
228,450,430,152,109,122,93,122
224,451,454,155,109,126,100,125
207,447,436,143,106,118,94,132
209,432,369,144,100,98,83,122
204,416,359,142,98,99,85,133
216,401,348,151,97,97,91,137
221,418,407,194,118,122,90,146
222,397,417,191,120,127,91,137
196,351,429,177,114,131,93,141
231,442,487,196,125,150,103,141
221,488,524,217,135,157,108,143
204,496,475,181,119,140,104,142
264,513,458,192,119,140,114,154
299,575,453,206,150,167,126,162
284,515,402,191,146,154,117,150
283,463,360,163,136,157,107,138
288,482,402,174,138,159,104,118
255,506,466,200,144,158,104,116
242,470,507,184,112,130,92,99
238,470,507,187,109,129,100,102
265,500,517,207,115,120,112,136
267,479,540,220,131,126,113,139
246,449,490,220,142,131,130,136
277,481,463,238,161,155,184,188
313,543,527,281,187,175,196,238
289,508,506,273,191,184,201,231
285,497,456,271,186,179,204,236
318,592,489,265,183,192,196,236
306,566,511,275,191,194,160,209
267,520,458,242,173,176,140,158
277,565,449,239,174,179,138,147
276,554,439,220,166,173,130,133
299,532,527,263,184,168,139,176
261,535,476,233,156,143,120,162
262,524,470,223,152,147,124,170
252,467,489,225,148,130,112,178
247,525,551,236,153,131,114,182
193,442,427,169,116,121,87,142
184,426,438,176,121,120,91,142
177,493,475,191,126,120,86,121
166,500,457,184,119,114,86,107
171,460,366,171,124,125,85,108
153,447,373,179,135,118,88,109
205,524,465,242,170,132,111,146
217,470,412,227,169,127,111,147
221,481,400,229,168,126,110,151
229,481,420,234,163,110,109,147
247,515,516,256,166,118,112,141
213,437,438,216,140,104,84,103
219,467,451,224,134,103,84,103
245,444,477,236,143,110,91,107
237,462,492,239,145,114,90,117
257,471,414,234,148,112,91,122
267,477,412,211,133,105,92,145
393,462,398,204,136,105,94,153
395,555,419,204,139,107,86,148
406,553,417,218,148,128,99,147
386,525,372,184,139,123,97,147
393,517,384,184,141,125,93,129
252,570,408,179,137,125,94,121
252,588,459,198,143,131,110,130
232,573,428,169,125,108,99,131
218,567,447,180,125,109,97,124
194,593,459,187,124,110,100,130
200,546,475,188,125,112,101,131
172,458,385,142,98,92,83,128
209,481,433,170,122,99,97,135
210,468,430,158,118,93,92,138
201,438,493,155,130,96,98,135
208,411,477,166,141,102,100,132
202,399,482,170,142,102,99,124
166,334,428,137,123,98,85,113
164,343,443,139,117,100,88,113
207,401,393,152,116,100,83,104
233,426,409,161,110,96,85,121
224,415,400,160,116,96,87,128
219,461,427,173,124,99,90,135
227,468,431,172,126,92,85,130
208,444,411,178,125,92,88,142
167,411,382,155,120,93,80,131
172,396,367,151,113,93,73,119
202,441,349,138,104,88,72,112
203,463,327,137,103,93,80,121
206,468,331,121,102,93,77,112
207,474,318,121,92,84,77,114
255,503,368,139,102,89,83,118
236,465,371,140,104,89,82,113
247,459,378,140,103,83,74,101
239,405,384,132,95,76,72,98
239,402,393,138,98,73,70,95
216,486,459,173,114,83,77,104
218,487,517,189,120,83,78,114
215,480,495,196,127,90,84,121
222,486,472,205,130,95,89,122
215,481,470,204,129,101,92,132
190,405,383,168,116,95,88,123
192,380,322,177,124,102,99,123
171,375,352,168,117,98,97,120
156,360,337,157,113,94,100,124
213,418,346,166,127,101,107,132
220,408,376,173,124,93,101,140
216,398,363,146,107,83,94,146
236,409,367,159,115,90,101,149
240,412,368,154,112,90,98,159
216,403,373,160,127,119,95,139
229,381,421,177,130,120,103,142
260,421,431,195,141,125,114,139
253,414,437,197,138,124,109,139
260,419,444,194,135,121,105,127
262,416,485,188,114,83,101,137
276,429,411,166,105,83,97,130
248,436,432,157,99,82,97,142
242,431,411,145,96,75,98,154
231,450,419,160,108,82,102,157
216,458,411,186,123,97,106,158
208,497,459,203,135,102,107,165
198,448,409,191,130,94,90,144
204,435,429,188,129,99,88,133
227,450,478,179,122,96,87,126
246,494,467,170,119,92,93,119
234,496,488,191,130,98,95,117
254,568,507,194,132,101,98,123
279,629,564,225,133,108,104,136
260,600,539,242,141,117,104,136
241,532,512,233,134,125,94,137
241,547,488,233,134,125,98,137
241,522,505,249,141,132,97,141
262,498,463,237,147,132,108,145
266,510,452,224,138,122,111,154
265,547,470,230,141,115,114,155
259,480,456,202,134,124,110,155
253,471,469,201,137,121,112,148
196,417,439,190,132,121,99,126
183,429,458,187,132,129,99,116
190,441,452,185,130,130,100,115
190,532,447,206,122,121,101,106
188,505,440,193,112,118,96,106
237,572,550,227,137,123,109,125
239,556,544,228,140,142,102,124
260,582,547,243,151,162,117,138
258,498,554,214,142,156,116,140
274,523,561,222,150,156,119,144
233,456,469,183,130,160,110,132
236,471,466,186,128,140,115,135
226,386,451,159,106,106,101,124
222,392,428,181,116,111,110,151
200,349,385,179,112,110,110,145
190,334,349,176,103,86,100,140
187,344,329,176,107,81,98,137
184,414,343,188,112,90,104,147
196,426,380,181,106,82,99,137
192,453,457,174,104,80,94,138
197,504,470,180,108,84,98,141
206,491,447,171,104,85,96,142
191,430,472,152,98,73,80,127
177,435,501,147,96,85,83,117
169,407,507,165,111,106,90,122
162,376,513,166,110,114,92,122
155,413,533,186,119,117,102,136
167,430,564,219,131,122,109,140
172,412,507,217,130,118,105,135
173,421,449,203,122,108,106,133
173,437,449,211,134,122,106,131
201,419,448,201,141,160,118,119
182,404,360,155,129,156,114,120
180,397,404,160,135,166,115,116
181,451,406,182,131,163,113,119
201,498,401,175,122,152,123,159
182,495,399,178,111,114,113,163
191,522,427,187,114,128,114,156
205,555,411,187,124,125,112,160
221,512,413,187,131,145,115,155
240,519,431,218,159,162,115,134
238,516,430,215,158,164,113,149
281,545,444,233,169,168,135,198
305,581,439,233,158,159,132,194
364,660,460,232,164,148,144,217
372,641,492,218,147,137,144,219
372,650,496,213,143,129,139,207
360,623,566,221,141,117,121,172
353,610,594,238,152,124,131,177
286,510,587,241,147,115,112,152
243,447,553,225,132,96,97,136
258,466,596,243,150,129,117,149
241,548,565,253,168,149,136,150
253,582,541,258,173,151,130,153
254,609,548,252,177,159,139,156
287,642,572,278,190,169,152,167
298,607,544,285,193,162,150,167
312,594,525,307,207,163,154,179
291,532,516,295,206,164,153,169
309,540,499,307,216,170,158,176
288,503,481,284,205,166,150,174
289,562,525,282,203,157,142,162
289,467,492,240,173,138,118,139
313,550,518,262,180,139,123,148
315,572,530,243,161,120,105,134
348,710,564,277,185,131,110,136
325,660,514,258,170,123,103,138
297,657,487,239,161,124,98,133
259,579,437,197,135,111,94,152
234,544,408,200,137,115,105,159
178,358,328,152,105,102,94,145
172,359,280,139,102,99,97,150
164,370,337,152,103,94,100,160
180,375,352,175,125,105,101,136
175,334,376,153,112,97,87,125
220,396,381,166,128,100,99,143
236,441,407,179,143,117,130,189
275,557,434,184,148,118,130,181
262,535,434,172,137,108,128,186
267,558,398,185,145,121,138,216
229,510,392,172,130,115,131,212
215,475,421,177,121,99,100,175
168,383,371,174,116,97,100,185
155,385,367,162,110,97,98,184
189,393,403,179,116,98,108,183
293,446,475,238,162,129,143,215
325,479,453,244,174,137,145,211
347,589,439,243,177,138,141,209
358,602,467,259,184,144,146,213
364,592,472,276,192,148,149,200
327,610,468,236,157,121,119,180
327,628,475,247,157,121,134,205
335,547,509,255,162,125,140,210
338,595,491,246,156,118,132,202
322,618,523,250,163,126,128,209
320,606,516,259,181,141,144,212
295,593,547,249,178,144,138,193
292,565,601,268,186,151,147,215
292,529,629,274,192,154,150,216
278,490,587,237,168,138,139,196
246,511,582,242,158,128,120,184
243,470,533,228,148,114,109,179
222,470,463,218,140,117,101,145
208,453,410,208,129,109,99,163
247,471,402,210,132,111,97,162
276,427,357,181,120,106,101,168
298,442,402,206,139,121,121,194
287,490,422,185,127,106,113,192
296,501,429,205,142,116,119,181
264,492,406,200,140,112,120,212
220,456,411,206,147,113,111,193
194,477,379,182,131,99,92,163
203,472,383,207,147,110,99,162
234,443,396,206,144,106,97,177
225,441,429,205,148,113,92,136
229,451,462,219,147,116,97,141
260,537,577,293,180,136,115,153
249,463,535,269,163,123,105,144
298,646,551,283,180,132,120,162
298,630,533,287,181,128,120,166
327,664,493,286,194,133,124,174
304,625,332,207,164,111,105,169
306,650,366,216,170,114,108,173
226,493,337,191,149,105,81,136
247,557,357,188,144,103,93,151
206,509,341,164,121,92,81,143
203,456,377,168,119,93,86,137
216,474,425,180,119,95,95,146
216,479,454,191,131,100,106,147
185,402,436,186,128,96,96,131
193,427,452,203,142,105,104,133
176,421,455,211,146,109,103,130
193,406,446,216,149,112,111,133
190,387,404,193,131,104,104,127
208,394,400,189,132,106,105,129
221,399,451,192,132,110,112,131
225,416,420,185,125,104,108,131
197,404,389,167,119,94,85,113
189,410,411,175,124,97,85,113
185,418,427,190,134,101,86,108
191,413,363,187,132,93,86,118
218,369,377,203,143,99,95,128
220,324,348,194,138,99,98,126
225,330,350,194,133,95,97,124
225,344,355,182,122,89,96,130
205,372,386,167,106,79,82,118
186,391,386,149,110,89,75,107
184,408,423,148,112,87,75,107
183,453,411,160,116,91,75,124
215,555,425,185,135,110,92,128
224,528,403,181,137,112,89,124
214,525,409,177,120,99,88,134
260,570,406,239,162,130,121,170
258,535,388,226,159,128,121,180
273,514,415,234,161,123,132,194
289,555,416,243,166,128,139,205
287,557,404,242,167,128,135,199
263,532,382,206,144,109,116,180
263,530,425,211,143,112,121,163
246,482,418,224,147,112,105,150
246,524,550,243,161,118,111,150
250,506,561,242,159,118,115,155
229,484,560,220,147,110,106,147
282,578,671,291,184,128,124,173
280,581,658,285,180,126,127,176
251,491,552,267,163,116,114,161
252,509,545,271,169,119,113,154
278,536,609,289,176,130,129,171
226,464,565,255,148,121,110,146
240,536,590,232,137,121,101,135
257,576,625,233,135,118,108,143
258,567,624,228,127,113,109,143
276,561,608,232,136,113,98,134
295,626,567,235,149,113,109,139
296,524,525,233,144,109,114,132
281,491,490,227,145,115,112,122
301,512,513,265,180,144,142,162
277,526,496,255,173,140,144,177
271,403,458,212,153,132,138,181
262,439,492,223,167,144,148,197
259,418,482,218,165,139,145,200
261,479,561,247,167,139,129,182
269,478,513,234,169,140,127,163
253,493,496,252,182,145,125,153
224,466,511,258,172,135,109,132
251,508,555,287,190,150,114,142
242,459,459,241,167,134,113,165
238,501,490,271,185,155,124,170
243,524,508,261,174,149,122,175
256,543,479,255,177,146,123,191
267,528,479,236,161,131,127,203
268,527,488,228,148,122,115,180
269,468,480,194,116,83,97,176
260,427,523,191,108,80,92,167
245,446,570,188,105,83,94,172
207,444,569,192,114,89,81,150
185,413,568,191,120,92,89,146
151,376,598,193,122,90,94,144
172,392,540,185,123,89,92,137
276,427,479,219,158,126,114,139
273,404,432,207,155,129,118,135
274,432,423,206,157,131,114,142
285,453,370,202,159,135,119,173
313,471,373,213,165,144,126,174
231,416,429,178,127,111,98,155
245,487,453,182,124,104,97,159
259,519,475,190,131,107,100,178
240,514,476,194,135,131,91,141
191,514,484,186,136,132,89,156
196,487,467,184,142,136,93,149
191,411,432,177,149,142,96,153
168,364,421,166,145,138,90,156
184,386,460,166,141,121,102,178
288,607,556,242,170,138,131,197
303,656,564,242,169,145,133,208
319,711,573,272,183,155,143,223
331,730,602,296,189,159,154,214
339,775,644,322,201,165,154,202
290,633,613,305,206,162,147,190
284,665,608,311,204,154,152,192
285,618,617,287,185,140,143,182
283,592,623,269,180,137,132,173
298,541,562,244,167,129,123,172
261,557,608,210,129,112,100,162
246,452,575,197,127,111,87,148
222,460,607,200,124,110,84,133
216,464,591,199,119,112,82,125
181,433,599,222,131,112,90,131
177,337,493,222,134,104,87,126
205,345,493,222,135,103,93,142
289,507,559,318,192,147,120,158
280,495,554,309,190,145,122,156
298,488,537,283,177,143,119,156
296,484,531,269,170,143,118,149
303,532,544,277,184,158,130,161
224,378,447,147,140,133,118,148
232,427,484,215,162,140,122,153
202,440,513,213,167,146,126,149
235,526,605,261,182,155,149,183
251,521,618,267,172,146,142,171
254,541,628,292,177,143,135,174
299,620,692,295,187,149,148,191
305,620,672,310,193,148,150,205
298,587,587,273,181,137,127,182
252,550,563,257,173,130,119,181
273,568,660,275,173,128,117,190
221,489,669,270,152,123,98,176
216,503,709,265,137,110,82,157
234,479,725,296,163,121,102,169
335,574,755,361,224,160,142,206
316,532,665,334,213,152,138,191
352,582,618,333,220,156,150,224
376,649,623,330,220,158,160,226
377,676,681,321,203,153,152,230
338,639,706,243,133,116,122,201
350,704,713,239,130,115,127,202
333,652,657,198,107,106,116,171
324,637,614,198,114,110,110,168
324,615,586,227,139,121,126,163
304,610,567,263,162,132,130,157
307,623,628,342,218,169,151,164
286,595,633,337,215,160,148,155
265,537,653,341,213,158,142,154
312,607,654,349,219,166,151,185
333,632,650,376,229,173,156,196
319,535,584,319,192,152,140,197
330,549,577,332,199,157,139,196
350,571,595,359,227,179,163,219
352,506,588,334,210,162,144,188
314,442,579,279,182,144,130,167
306,449,575,265,165,129,118,152
302,455,582,261,162,129,122,153
290,432,522,213,117,93,90,116
223,490,552,233,142,106,97,115
257,506,552,256,159,122,112,182
277,549,573,295,188,141,126,192
303,660,670,345,217,158,135,207
304,658,710,357,226,164,137,211
310,659,696,359,221,166,135,212
281,661,684,352,211,155,133,177
301,658,665,350,213,151,140,185
310,604,587,305,212,165,149,193
308,607,561,306,219,169,159,206
330,615,632,320,237,181,173,222
349,645,654,351,256,192,184,227
324,616,694,328,243,194,186,221
291,596,704,344,231,174,183,217
317,658,741,378,244,185,195,218
286,578,649,339,214,165,177,200
311,572,677,353,220,171,188,218
368,650,679,419,281,209,219,264
370,636,639,403,274,204,211,258
356,576,636,385,261,195,200,250
344,577,608,384,263,195,202,250
323,541,583,354,254,188,183,222
298,491,544,282,182,135,130,163
287,466,549,277,177,131,122,153
261,451,508,248,167,125,113,148
270,467,536,259,172,134,107,145
274,507,550,269,162,132,108,154
233,501,518,274,171,137,116,156
242,534,516,281,179,141,129,154
245,513,476,273,169,135,127,146
240,513,505,271,166,139,150,158
225,519,458,241,161,170,211,206
208,481,499,227,153,171,220,210
186,421,513,208,145,165,219,212
223,479,547,210,150,171,223,221
223,507,611,214,172,190,230,235
194,452,601,197,157,149,170,187
205,430,572,168,148,140,152,182
217,469,592,190,161,156,151,178
213,532,665,219,162,156,149,181
242,531,581,202,128,113,110,143
241,516,583,200,131,114,108,134
244,582,602,225,155,125,117,136
236,551,539,202,136,101,112,134
226,479,540,178,138,114,152,140
192,474,541,200,145,129,169,149
218,497,532,205,147,139,183,168
231,487,527,199,126,133,186,155
237,481,533,209,131,141,183,159
212,444,387,191,114,122,141,129
227,456,450,177,110,104,123,121
202,418,443,164,105,90,95,107
182,393,432,141,91,84,92,123
249,429,459,149,100,81,112,147
254,438,497,160,118,96,114,149
289,385,403,159,126,110,117,159
292,416,426,191,140,120,119,149
279,380,495,209,143,116,103,135
213,356,524,202,139,117,94,106
243,434,574,240,159,123,116,134
216,436,622,239,159,126,114,122
243,474,635,239,166,132,116,134
254,517,632,240,169,136,120,170
281,565,605,246,172,134,114,173
274,497,585,208,144,121,94,154
241,483,562,196,136,112,89,153
223,501,519,189,133,106,105,158
215,451,471,174,126,103,98,134
196,387,481,171,125,112,92,126
184,392,438,194,140,112,93,139
192,431,437,202,141,110,99,159
194,387,465,190,126,102,81,148
225,444,449,201,136,107,87,148
252,442,446,194,131,101,89,150
249,469,446,165,113,96,87,147
255,516,470,187,120,103,94,157
259,503,494,200,122,100,90,156
262,518,506,209,145,125,105,164
225,538,497,211,147,122,104,167
247,576,497,239,164,132,108,168
261,569,455,222,161,132,106,153
282,591,435,230,174,145,116,167
267,555,407,225,165,132,111,157
284,593,495,264,189,147,119,159
267,556,481,248,184,142,117,157
264,572,489,270,190,143,126,173
242,574,459,252,180,132,119,163
231,552,455,235,161,116,104,154
213,483,360,189,127,87,92,149
197,458,366,178,114,83,88,155
178,389,387,147,103,72,68,139
152,324,379,147,93,63,63,134
154,321,385,147,95,63,68,150
154,327,408,156,101,72,81,163
175,414,421,168,106,77,87,159
162,392,405,163,101,73,83,142
184,389,472,158,100,73,84,145
241,500,514,190,121,89,99,142
269,579,529,212,127,90,106,156
289,590,540,234,144,105,118,166
331,663,580,276,175,125,135,185
338,679,562,297,185,132,139,190
326,635,545,296,181,134,135,189
310,576,543,282,178,134,129,180
286,526,521,265,165,119,116,167
246,460,478,224,138,107,100,145
223,465,454,196,128,111,95,138
185,462,445,173,120,99,92,127
199,474,449,177,125,99,92,120
207,470,460,170,124,101,90,123
203,433,477,159,112,95,87,133
231,420,468,166,109,85,88,146
236,449,475,188,130,102,96,155
219,410,438,185,129,109,94,143
209,401,416,183,125,105,91,132
283,481,451,247,153,115,113,160
262,502,481,261,161,118,114,156
263,468,472,247,144,104,102,148
277,482,461,238,138,96,96,145
294,496,517,255,151,105,107,153
250,478,532,240,147,108,100,139
251,470,493,223,139,106,99,136
248,460,484,220,146,115,107,151
265,564,498,257,173,133,128,183
245,536,446,237,160,126,118,178
230,500,417,221,159,118,110,175
231,485,461,215,160,120,110,175
292,498,488,243,175,131,120,186
327,488,483,253,185,140,133,199
335,553,490,269,193,147,140,203
323,547,436,242,176,142,139,197
328,545,424,249,181,147,140,195
299,566,453,257,176,141,138,187
283,561,498,252,163,125,124,163
291,550,539,276,174,129,128,169
301,594,585,295,184,135,135,181
308,658,606,311,191,135,142,192
311,682,563,285,174,120,128,176
290,714,571,284,178,138,129,180
276,680,532,252,165,137,123,173
274,649,483,236,157,135,113,161
271,578,461,215,143,127,104,162
277,523,450,213,153,132,108,170
256,375,416,178,132,106,92,161
305,403,530,210,136,102,98,180
356,491,614,310,201,155,155,229
390,591,636,344,224,175,174,235
411,698,679,367,233,182,183,244
417,718,660,385,252,194,197,254
441,747,593,395,263,204,206,254
416,728,543,329,225,174,177,217
386,679,515,313,214,165,168,206
370,661,536,314,218,169,174,211
383,757,572,321,210,166,167,208
343,733,635,305,198,155,162,204
342,744,623,316,210,185,176,206
332,741,614,298,199,180,173,200
305,738,568,281,185,170,160,181
301,646,555,262,174,166,151,171
309,662,535,278,183,176,151,176
283,635,518,256,157,131,121,167
301,634,538,258,167,133,127,176
348,666,632,321,197,154,149,226
369,695,621,314,195,160,163,242
447,761,624,324,212,170,170,247
483,814,661,355,232,186,184,254
502,874,736,377,238,187,188,263
478,789,645,344,234,184,186,236
474,770,651,334,227,177,171,209
381,674,632,310,204,161,160,192
351,617,643,282,188,145,142,174
331,514,536,265,185,147,133,156
335,536,608,259,174,137,124,149
298,513,598,263,175,135,120,151
321,538,596,272,183,137,130,160
309,505,551,272,179,134,133,160
296,499,617,272,183,133,133,161
310,464,567,280,190,138,136,180
302,483,583,300,204,149,146,182
260,433,547,275,189,140,134,170
277,506,630,316,215,157,160,194
277,546,568,317,208,152,160,207
225,528,560,286,185,140,143,179
225,488,519,254,164,128,134,180
237,504,521,255,170,132,138,191
213,442,447,227,146,126,110,179
185,371,446,192,126,123,102,152
172,381,431,176,118,116,98,139
200,446,457,196,130,114,101,135
236,466,439,200,132,114,99,132
253,490,414,180,131,117,108,123
262,518,393,191,137,119,107,131
268,530,387,213,148,123,113,135
257,476,360,201,140,122,110,134
215,439,343,184,132,114,105,121
182,378,296,153,111,94,87,129
174,343,311,147,111,84,83,137
195,319,333,146,105,84,90,140
173,294,329,143,98,75,85,131
209,325,346,155,95,75,87,140
224,352,414,171,106,78,86,126
248,366,417,185,110,82,86,120
248,417,418,170,105,78,76,126
268,467,438,196,121,93,91,145
303,546,458,268,172,130,138,180
370,607,519,315,197,152,170,244
364,617,537,305,198,150,176,253
369,611,560,319,213,161,185,264
362,570,564,301,206,157,179,256
320,484,527,238,171,131,147,230
270,407,417,194,160,130,136,188
267,437,444,232,166,138,134,172
253,415,442,237,159,141,133,168
292,467,443,247,164,142,137,179
292,489,460,244,159,142,138,186
281,516,532,284,169,141,139,173
276,492,481,265,169,139,137,175
275,475,434,250,168,134,134,180
234,447,437,249,165,128,134,178
247,414,447,247,163,124,126,164
235,419,423,204,150,110,115,158
230,393,416,191,141,103,108,151
209,396,432,175,127,87,96,117
236,388,423,174,137,111,96,103
246,470,439,203,157,127,118,149
235,421,413,181,142,121,107,150
239,448,438,178,135,117,109,156
242,439,415,180,133,115,110,164
205,435,444,166,115,92,104,167
180,360,407,140,102,89,87,132
172,332,350,120,92,84,74,124
184,327,349,139,107,95,76,120
198,315,362,136,108,97,74,121
229,377,308,150,118,103,77,123
217,367,301,148,117,99,68,120
224,373,322,147,122,103,75,132
251,360,306,131,112,96,70,139
248,449,416,169,125,105,73,136
220,421,416,154,115,98,67,132
224,411,419,149,106,93,69,135
215,408,438,166,108,91,62,112
201,384,436,171,110,96,63,108
213,320,322,137,97,88,69,122
219,319,302,137,97,84,68,122
219,331,317,138,97,78,67,121
236,347,275,138,97,79,74,123
206,345,261,140,95,71,71,117
178,312,269,136,94,73,61,91
172,276,301,139,95,75,61,83
178,307,294,136,92,77,64,79
171,304,348,117,83,77,57,75
171,331,337,110,82,79,58,84
193,331,327,107,73,71,67,125
218,365,387,170,98,84,85,131
215,372,416,192,105,87,90,134
207,450,410,218,127,93,115,184
211,435,420,218,126,94,117,179
201,432,422,220,133,99,115,161
228,431,368,187,126,96,108,170
231,488,370,177,124,95,108,171
222,426,341,151,102,82,85,125
221,451,334,152,104,86,91,147
254,455,342,151,97,83,87,147
208,434,382,151,100,83,90,140
243,356,332,141,105,92,91,137
250,336,362,142,108,93,89,130
248,313,352,141,109,86,79,111
238,370,387,150,116,93,96,123
241,368,370,153,114,90,104,130
185,340,380,156,110,83,100,131
186,354,351,149,107,90,103,133
197,331,347,141,100,88,101,130
196,309,339,139,107,89,92,111
182,295,301,116,92,87,72,89
197,308,328,119,89,84,69,81
201,332,367,115,92,76,63,86
197,359,384,125,97,78,67,82
164,325,373,122,88,75,66,96
199,375,368,126,94,76,68,103
203,371,334,110,93,73,69,107
196,408,291,129,97,80,72,105
210,397,339,136,99,81,73,117
205,402,340,136,104,85,70,105
181,353,375,167,111,87,71,101
209,369,408,184,118,93,75,114
262,403,477,201,121,94,88,135
261,417,453,197,117,93,86,126
279,434,483,197,116,87,84,134
278,436,467,166,103,77,83,142
256,413,442,148,98,73,80,131
218,333,386,117,88,63,61,114
200,321,374,109,88,60,60,114
193,297,303,99,76,56,59,106
212,346,343,163,105,81,95,146
231,353,333,167,102,86,101,155
215,313,288,161,102,88,104,162
240,299,266,165,107,93,106,166
234,314,306,183,127,106,123,185
221,312,306,157,116,94,101,148
187,339,353,155,114,88,95,138
193,333,375,153,110,84,92,118
158,333,381,150,108,81,87,110
196,470,437,166,103,75,71,86
182,445,431,141,96,88,70,81
221,501,435,158,109,96,79,118
225,510,419,165,113,104,82,132
241,522,419,162,109,102,87,148
235,422,355,152,108,104,86,150
248,440,323,174,114,96,88,157
215,350,284,158,103,85,80,137
203,363,299,150,98,75,78,129
195,382,326,157,98,79,77,123
154,340,288,134,89,68,69,113
124,305,287,112,81,63,60,103
162,338,267,131,100,81,75,143
186,356,264,139,105,85,81,145
184,340,233,138,109,85,82,138
185,331,237,130,101,80,85,145
199,342,202,126,104,85,96,156
207,302,219,101,85,70,83,124
207,280,198,90,80,67,78,124
221,301,237,85,73,62,77,123
231,339,264,95,78,70,85,131
236,386,268,108,87,74,86,128
239,440,295,122,90,76,87,118
252,456,298,128,93,78,90,122
237,443,307,129,96,85,90,123
230,446,293,128,95,78,80,117
233,411,303,116,78,64,67,105
215,408,270,134,91,79,85,141
228,394,276,138,92,80,83,135
230,384,245,133,90,71,85,139
252,413,300,136,87,73,89,135
295,431,309,146,96,78,93,143
301,395,305,119,85,61,82,119
271,383,327,108,79,58,83,118
272,404,310,109,77,62,79,111
274,338,256,101,79,59,70,105
219,304,237,79,64,51,68,96
204,294,268,74,60,52,72,106
203,281,267,97,72,56,89,110
213,322,328,116,78,57,94,128
184,336,368,124,82,66,101,136
177,350,366,131,88,73,104,144
178,428,410,158,98,76,103,135
164,424,392,148,91,71,84,129
202,431,447,187,108,85,96,127
231,433,409,183,108,82,91,128
260,434,418,185,106,76,89,143
313,370,415,173,103,77,90,156
324,391,421,190,123,96,108,176
295,331,338,145,111,83,91,163
306,351,356,144,108,83,101,168
318,382,361,144,111,89,101,151
294,369,300,133,103,85,94,134
296,375,357,114,83,71,79,109
314,369,352,108,76,71,86,121
311,352,341,107,77,70,82,124
323,310,354,111,79,71,97,134
296,296,383,108,80,68,99,136
295,304,365,108,80,62,92,137
276,303,355,113,82,62,87,133
278,317,359,121,90,62,79,113
248,333,336,120,104,114,83,110
241,367,317,130,114,129,87,121
235,353,289,126,110,130,88,117
230,385,321,120,110,131,90,114
213,383,322,111,103,131,91,122
199,368,310,107,86,85,68,121
209,411,353,112,76,65,69,132
230,405,335,103,71,62,76,139
227,383,289,106,70,60,77,150
212,358,291,110,74,59,78,149
216,351,288,103,69,56,75,152
253,312,219,96,75,58,66,128
228,295,214,96,79,59,58,124
238,267,259,104,79,66,66,122
236,313,300,118,81,67,65,114
230,306,310,127,85,71,80,114
207,297,300,121,77,72,80,129
236,301,324,122,72,73,83,135
242,304,301,114,74,68,78,130
238,306,258,114,77,77,80,135
255,315,253,102,70,74,66,119
246,289,242,95,66,65,65,105
262,376,280,131,78,69,74,124
277,389,272,129,73,66,70,118
285,365,263,120,66,55,67,108
269,355,255,122,67,55,76,119
266,352,291,125,71,59,76,116
246,298,255,105,74,63,74,90
223,310,260,107,79,66,79,109
254,318,265,98,75,62,80,118
301,338,370,129,95,75,80,126
298,327,351,140,106,80,82,132
296,311,340,134,100,71,73,138
297,308,377,159,117,92,108,163
287,330,413,177,124,101,114,167
247,340,348,164,114,97,118,157
247,364,366,162,109,95,120,163
234,408,370,163,111,101,135,197
259,417,331,143,99,92,121,177
235,425,303,122,91,83,113,174
226,445,314,151,113,94,119,188
218,436,295,143,109,95,122,193
264,481,332,156,116,98,114,158
260,523,360,156,112,90,99,145
261,530,368,173,121,99,108,145
253,550,389,146,100,86,93,123
272,574,425,162,105,85,94,130
267,512,434,175,111,91,101,166
245,465,427,176,112,90,103,173
277,441,458,197,128,103,110,179
281,472,458,210,140,111,117,186
263,449,419,199,139,110,109,166
247,471,430,205,149,118,109,144
246,487,433,218,157,126,117,144
226,538,415,201,144,112,105,138
213,457,382,192,134,106,95,126
219,470,389,201,139,110,105,139
238,449,328,181,123,95,110,188
271,519,429,223,154,119,133,209
259,482,407,222,154,121,135,210
288,573,487,261,176,137,150,221
287,555,490,254,172,134,150,224
260,583,533,260,177,142,157,186
214,515,451,216,141,115,133,156
211,532,437,223,150,118,133,150
247,490,360,182,126,103,127,151
247,491,350,185,126,100,123,144
233,444,320,164,107,80,96,119
273,484,318,176,117,89,101,129
274,473,379,176,115,88,107,133
232,418,363,162,109,84,98,115
230,441,371,158,106,83,92,104
230,439,396,164,115,86,96,103
182,390,417,176,126,87,98,104
230,480,391,155,115,78,96,117
229,502,418,157,114,76,92,118
228,491,469,161,117,81,96,121
224,509,418,155,112,81,91,122
231,558,406,130,93,77,114,154
166,452,419,124,93,80,108,146
159,465,434,138,98,87,115,158
176,474,385,143,104,83,116,161
175,464,390,141,106,85,120,190
190,462,388,130,100,80,92,158
223,539,437,184,120,100,112,176
245,547,438,182,126,98,109,168
239,551,437,180,123,101,109,167
262,608,435,182,123,104,119,147
281,646,485,210,144,123,139,165
333,610,430,170,127,108,123,146
338,622,411,172,125,109,126,153
348,665,474,183,129,114,133,152
363,627,476,193,134,119,131,166
374,613,456,184,130,117,117,160
346,606,473,186,129,119,127,158
352,641,490,192,131,120,132,175
354,648,479,195,127,114,130,186
349,692,535,206,133,117,132,170
355,716,520,192,118,102,130,165
392,791,508,197,123,107,137,203
402,760,482,190,117,108,138,194
429,760,483,193,124,121,152,213
414,714,417,169,107,109,149,219
417,747,459,203,139,132,160,232
365,731,462,200,135,126,153,209
350,776,494,201,135,123,154,216
353,743,477,198,142,126,145,193
363,757,478,202,142,125,140,184
365,687,458,186,124,111,129,167
418,716,537,244,168,147,155,184
392,622,537,245,167,146,146,161
378,644,520,238,159,138,143,174
379,674,561,248,167,143,149,180
373,716,541,244,167,141,171,226
365,638,451,185,121,99,161,230
427,688,419,184,120,99,160,235
459,668,432,179,115,92,156,227
485,698,442,171,118,99,186,273
469,605,425,155,104,88,160,235
453,621,401,145,100,89,150,218
426,619,412,149,108,99,160,221
391,632,380,145,105,97,156,219
355,543,310,135,90,82,113,161
353,574,319,143,104,90,129,191
333,572,349,168,120,101,143,212
332,625,360,177,129,109,149,210
361,629,382,191,141,116,156,218
364,638,367,186,137,114,152,213
396,669,380,186,136,116,149,199
392,638,385,172,127,110,136,183
393,646,376,172,126,106,143,202
385,649,373,164,117,101,148,198
371,654,421,176,126,105,151,200
393,657,427,190,134,114,167,223
397,650,405,192,135,114,168,217
410,611,398,177,123,105,158,211
379,605,405,179,130,109,152,209
399,589,372,178,127,108,160,217
370,532,354,156,115,94,145,219
364,550,367,153,110,92,137,224
408,557,344,146,107,91,133,238
459,600,363,141,96,88,150,268
468,647,498,161,105,93,148,267
452,673,526,170,109,103,169,276
467,711,550,175,116,109,175,272
426,699,559,185,124,114,184,270
393,642,548,186,127,114,181,273
415,643,464,177,122,112,189,288
417,652,431,181,123,104,172,266
406,642,420,185,125,109,187,276
397,685,435,190,129,111,182,280
468,808,473,214,146,127,183,256
445,762,421,199,142,128,174,234
461,817,485,216,155,142,197,251
488,786,509,206,148,131,181,258
530,764,496,196,141,124,172,240
491,670,454,182,130,110,180,265
514,860,469,185,136,116,199,285
510,781,404,155,117,98,178,275
493,830,377,179,137,115,183,259
457,836,379,175,131,115,187,265
444,852,406,174,130,115,178,253
417,671,391,170,121,104,146,222
405,695,382,165,117,103,164,246
432,646,371,162,109,103,173,252
446,601,370,172,124,115,190,268
418,534,338,158,118,115,181,250
413,571,391,164,122,118,190,259
417,554,394,172,129,125,195,264
372,537,354,144,111,109,178,253
329,532,325,122,92,95,164,233
338,593,410,141,97,94,172,248
308,556,367,131,91,89,165,247
291,526,399,119,77,69,152,246
354,565,436,134,97,86,167,257
399,592,477,156,110,96,171,268
395,549,405,143,111,123,191,254
462,569,435,152,117,126,193,257
457,593,405,148,116,128,171,207
481,606,400,162,114,124,177,225
473,637,459,171,121,131,181,217
498,672,438,170,118,116,180,266
461,653,428,166,116,117,183,259
461,681,431,172,118,117,198,263
408,666,438,158,113,117,191,249
419,655,346,149,109,112,178,237
385,590,342,141,99,96,155,192
379,637,307,137,96,94,152,188
460,649,362,157,110,104,157,226
449,661,332,158,109,98,145,225
397,600,324,140,93,82,142,225
422,630,334,143,92,79,130,222
422,599,354,153,108,87,145,242
385,641,325,166,114,84,137,211
417,672,415,194,130,102,161,225
408,680,432,207,136,104,158,214
409,713,446,206,137,112,172,212
407,700,438,196,125,104,160,187
418,673,451,189,127,119,168,203
397,587,350,148,105,104,146,195
414,663,321,132,101,106,145,203
429,662,295,136,103,104,139,207
428,690,391,152,111,106,135,212
390,643,338,135,95,81,111,191
365,675,339,136,94,78,103,170
397,684,357,137,94,74,111,183
397,710,383,139,95,89,140,200
391,740,357,163,107,95,162,214
404,755,428,173,110,103,169,230
418,746,455,181,114,104,175,240
471,761,469,183,119,118,179,249
475,685,470,182,118,106,155,232
481,639,413,151,102,100,142,251
477,594,333,127,90,89,135,234
509,629,384,152,107,104,146,246
460,531,359,148,101,87,172,290
457,558,347,149,107,87,175,320
467,545,368,172,126,98,177,303
460,555,391,176,126,95,172,299
419,471,314,150,110,83,161,277
398,472,301,151,113,93,147,213
352,462,300,165,120,111,149,174
343,451,305,145,103,102,148,159
343,473,286,144,108,109,153,191
337,469,271,137,105,105,152,193
333,464,305,152,108,107,140,196
342,471,310,131,93,86,141,205
355,503,286,142,99,87,138,203
376,505,295,161,109,98,144,186
384,566,405,181,122,107,141,198
419,615,442,192,129,107,156,256
415,608,447,201,137,118,157,241
406,601,478,207,136,119,160,246
389,584,478,195,128,112,159,244
370,557,411,185,118,109,172,258
383,541,378,170,113,112,156,192
380,541,367,166,104,106,171,219
379,557,329,158,108,108,171,221
366,537,332,152,105,106,179,241
406,579,437,183,128,117,180,251
338,537,414,169,116,112,188,268
330,497,410,164,114,107,163,249
372,537,471,172,117,109,162,255
397,616,524,187,120,109,159,251
377,554,427,149,94,91,153,228
404,536,415,151,98,85,147,209
405,579,414,168,117,99,178,224
366,557,390,172,119,102,176,239
343,513,359,180,135,116,183,239
322,571,404,195,147,124,190,254
295,554,418,200,149,123,179,252
303,539,411,183,133,116,158,235
292,547,427,176,130,118,162,213
290,534,396,147,108,99,152,201
337,528,369,139,101,100,149,177
347,551,365,142,102,107,171,214
351,618,396,161,114,118,182,219
352,559,348,146,105,107,176,240
355,581,436,160,110,107,166,246
309,550,425,159,106,101,157,248
287,528,413,151,100,91,133,231
263,432,402,135,89,69,117,243
353,558,404,173,111,83,128,224
336,506,298,170,114,85,133,208
338,476,289,162,108,78,128,204
335,481,288,157,108,76,150,211
335,565,310,160,108,76,143,187
211,456,275,106,78,59,128,172
234,459,288,88,63,57,125,190
259,494,289,88,65,63,135,212
253,568,326,96,67,63,106,184
275,588,332,101,74,71,116,231
278,564,335,101,75,70,114,233
250,567,314,106,75,70,119,242
242,676,367,143,96,79,124,243
261,615,339,141,96,82,129,253
241,549,289,129,87,73,117,218
328,577,325,152,102,91,157,252
329,570,321,146,101,89,151,232
324,474,311,118,87,83,162,223
340,490,385,125,90,82,167,227
340,462,387,132,90,84,166,227
265,431,371,106,72,62,129,184
273,498,400,121,78,65,125,185
280,465,407,128,81,60,97,167
267,491,380,142,98,83,111,178
263,495,411,162,119,108,144,210
251,501,407,164,122,112,147,211
242,513,440,176,135,127,170,214
206,477,396,168,131,127,171,240
155,415,360,148,116,113,154,217
159,477,414,157,108,96,129,188
161,485,406,156,108,91,129,205
150,463,354,134,85,67,110,231
174,494,359,138,93,78,137,222
218,516,359,146,99,82,145,228
229,481,264,114,88,77,147,224
260,476,269,123,89,80,145,216
279,502,276,137,106,96,155,193
270,481,267,131,97,85,129,171
251,471,275,125,92,81,123,159
241,427,262,119,89,81,116,160
290,512,290,119,88,81,123,182
295,452,260,106,73,66,107,169
325,449,260,103,74,71,111,199
341,457,241,105,75,71,110,205
342,505,244,103,77,73,117,228
294,458,259,102,76,72,111,219
287,482,334,133,89,78,108,233
294,493,338,135,90,78,119,217
279,509,370,137,90,81,129,241
310,549,418,149,91,83,134,227
307,567,395,153,97,91,145,226
308,554,340,128,83,88,151,219
270,549,352,129,78,84,146,227
299,548,325,136,86,90,153,231
295,517,263,136,87,86,148,252
308,520,316,137,89,84,161,283
307,494,310,131,86,78,151,274
307,517,309,133,91,91,166,278
279,501,332,125,86,84,152,253
253,462,332,112,80,79,143,228
232,402,273,94,69,70,125,203
214,389,266,99,74,71,141,211
226,346,240,92,68,56,121,205
211,372,225,91,68,57,126,208
209,341,233,102,72,59,139,223
198,362,212,103,72,70,150,227
223,429,249,99,68,75,147,243
223,505,278,108,74,74,148,230
254,534,322,121,82,80,141,238
249,585,305,111,80,82,131,221
252,563,309,106,76,75,116,209
240,548,297,113,78,69,110,189
258,484,291,117,79,76,109,188
269,462,233,100,69,71,113,175
289,436,240,101,64,68,115,175
302,518,254,106,68,65,106,169
313,527,309,137,93,82,106,167
351,570,317,138,99,90,107,177
349,555,332,150,106,98,118,216
339,526,330,148,108,101,127,221
328,459,335,148,109,104,125,210
345,487,279,111,88,94,118,203
293,489,273,101,79,83,121,200
257,470,263,91,74,76,114,164
258,495,277,99,74,78,108,170
300,530,309,97,72,76,123,202
301,509,339,109,80,78,137,214
324,528,322,126,94,86,146,227
337,535,300,123,88,80,144,233
330,528,309,119,89,78,146,223
343,562,296,140,106,104,169,212
341,547,269,143,107,106,168,209
341,534,299,137,103,108,171,241
360,564,316,141,108,115,182,247
372,572,364,149,111,114,177,244
369,507,350,131,97,90,146,235
343,504,351,125,92,86,150,263
311,488,329,119,85,74,138,215
278,450,334,125,87,73,138,215
272,437,271,130,91,74,136,213
227,469,268,128,87,71,148,216
228,440,248,122,81,66,134,177
269,446,286,139,84,65,135,201
313,509,292,132,79,56,119,190
303,486,278,120,73,54,124,194
282,436,256,116,72,60,131,210
285,474,282,134,82,65,133,209
275,551,320,142,99,89,142,212
224,499,298,136,94,89,144,199
216,532,309,134,93,93,141,205
248,604,337,145,102,106,139,193
233,594,328,132,96,110,141,192
213,486,258,111,77,92,120,179
223,494,282,127,83,97,130,185
257,541,291,151,97,102,141,191
235,509,303,152,101,99,142,189
237,488,297,152,102,98,138,199
262,574,354,179,118,113,158,194
327,599,351,172,115,108,155,206
315,563,396,161,112,110,159,215
313,538,376,158,104,100,157,233
326,571,373,160,107,102,159,221
301,485,365,129,93,89,150,222
228,436,352,128,96,96,153,211
236,445,313,132,101,95,146,222
234,455,312,128,100,92,132,187
255,416,329,125,95,90,129,198
265,472,287,131,104,96,130,197
285,546,287,133,105,93,116,193
347,521,265,129,101,97,141,170
365,583,294,129,104,110,174,202
339,575,285,133,107,108,177,191
403,533,295,131,97,97,168,179
410,568,350,149,109,108,175,181
386,651,425,193,140,127,189,226
391,604,410,196,139,121,166,198
439,677,444,222,158,138,188,257
401,704,457,229,169,151,203,269
391,635,436,229,170,145,199,271
378,657,398,199,146,138,238,276
362,659,401,205,150,145,274,288
360,671,374,176,131,174,412,275
348,669,344,163,122,179,436,273
347,705,339,158,121,189,450,291
328,606,303,146,117,180,434,252
365,631,381,138,113,173,412,239
400,714,489,195,147,149,294,288
395,746,510,211,153,135,252,287
441,791,536,220,160,139,275,321
493,821,541,229,169,147,281,341
517,839,561,260,190,170,310,378
476,762,539,237,174,155,278,316
555,849,589,273,201,181,306,360
518,804,568,269,197,174,271,318
523,852,641,317,227,195,288,335
511,864,616,304,216,183,267,303
510,868,572,301,215,184,269,303
432,728,524,268,189,163,243,251
488,737,606,317,226,214,372,351
461,653,558,273,189,219,469,327
444,623,561,280,196,227,481,328
429,554,564,275,192,223,482,333
442,603,569,275,192,224,480,340
393,643,502,227,154,176,385,231
369,766,490,222,160,146,258,261
332,723,441,193,143,129,262,260
395,761,517,236,173,148,270,270
389,781,518,228,169,146,270,279
394,757,511,217,161,143,275,324
395,656,482,205,149,131,217,282
402,641,479,210,160,145,187,286
335,677,398,159,128,131,174,277
384,673,435,187,148,145,208,302
374,648,442,180,142,142,202,267
355,625,440,177,143,153,212,269
396,739,465,190,149,154,204,268
407,685,464,186,147,149,196,261
380,656,430,170,133,139,180,218
366,672,397,165,133,139,175,228
379,812,447,201,156,145,196,236
327,728,435,187,139,129,194,216
330,724,430,185,136,137,194,221
286,730,397,170,123,133,170,200
275,726,406,180,128,137,174,207
270,629,380,159,105,116,154,224
330,619,359,157,107,113,159,225
357,604,323,159,107,107,169,248
341,550,318,170,114,104,173,280
364,513,336,183,124,109,172,262
354,420,301,171,119,108,157,226
302,443,289,163,114,120,172,233
284,483,340,161,114,123,213,211
280,533,350,143,104,129,241,180
251,504,317,105,75,116,256,154
260,560,329,108,84,130,296,178
254,576,346,114,88,126,303,169
214,551,314,115,87,118,272,160
233,579,326,131,93,114,263,170
231,595,344,135,96,112,249,174
215,568,354,134,93,105,224,151
243,529,342,128,85,93,204,154
258,540,346,140,94,103,215,158
257,441,309,123,86,96,210,156
262,467,287,120,85,99,237,199
260,435,268,139,86,91,235,226
259,444,302,154,94,87,223,229
276,447,293,137,81,75,215,241
317,474,307,149,88,90,220,244
328,442,326,149,84,83,189,214
366,508,374,139,86,88,202,215
355,494,344,125,78,89,207,224
330,479,323,130,82,90,208,211
274,470,349,124,76,73,185,189
255,462,362,130,83,78,184,188
195,406,310,116,75,83,174,181
188,401,327,112,72,86,175,157
201,361,352,102,64,85,167,152
241,378,368,114,76,92,166,154
280,410,364,108,73,90,170,190
358,469,371,113,75,78,156,177
395,492,382,119,78,83,203,219
396,549,398,125,80,82,209,230
392,562,448,136,79,79,217,245
360,529,421,129,75,79,212,220
279,439,409,122,69,80,203,213
220,418,388,118,69,74,156,177
238,351,361,125,79,80,153,173
224,310,240,89,65,76,140,160
243,414,234,90,66,73,141,155
265,516,232,97,76,76,145,211
272,532,235,94,75,88,171,209
247,529,220,83,70,85,176,197
256,563,244,93,75,82,173,215
252,535,285,103,80,88,173,255
246,523,301,105,81,109,202,211
240,518,303,109,80,99,175,206
232,551,316,107,75,100,176,219
258,519,300,116,83,110,182,228
255,483,311,126,89,112,192,206
246,429,303,128,83,84,148,233
251,428,360,161,95,90,145,243
314,554,414,195,120,105,152,265
300,577,406,189,115,96,149,241
294,573,380,177,105,93,150,228
299,603,408,173,104,96,153,199
311,600,416,160,104,99,162,202
255,512,393,131,85,88,147,187
252,495,398,129,84,87,150,177
248,490,407,134,86,82,128,206
268,437,374,134,91,88,130,207
250,432,314,114,83,76,108,191
290,392,254,96,74,67,104,165
290,370,230,95,74,64,88,165
316,420,218,107,93,81,116,171
293,422,236,117,95,87,137,175
293,454,203,119,95,87,139,189
293,456,287,138,107,100,162,230
275,458,356,148,110,103,168,235
288,432,371,145,102,94,154,214
303,465,367,147,106,89,132,222
355,463,371,144,102,88,133,211
315,459,328,124,87,72,101,171
337,470,285,125,90,75,108,177
310,462,288,114,83,71,105,168
312,504,325,134,96,85,105,164
322,516,327,138,100,88,104,174
356,498,317,151,105,95,104,166
340,502,304,144,107,98,88,154
353,488,265,143,106,101,109,174
339,399,195,105,80,82,117,193
275,377,202,118,88,89,125,188
217,398,222,122,91,89,136,189
209,378,202,125,90,87,138,194
179,392,209,127,94,87,147,181
186,380,213,134,97,87,140,142
180,345,234,122,91,79,142,149
185,298,206,101,81,65,136,167
189,278,206,93,73,56,135,165
183,308,236,108,77,65,128,197
182,408,276,123,92,91,179,247
188,418,261,120,89,92,183,253
184,423,273,129,95,98,181,242
181,511,319,150,112,107,190,256
199,499,305,156,119,108,179,227
181,428,260,138,105,91,129,175
184,459,252,143,106,89,115,169
192,467,287,146,108,94,123,183
212,552,253,133,95,90,130,200
201,541,249,114,83,82,123,197
207,552,268,122,85,79,116,190
197,535,289,119,85,79,120,192
197,558,297,110,78,69,109,182
227,525,324,108,71,58,100,158
239,543,342,116,72,61,113,174
239,538,338,110,76,63,118,180
253,564,381,117,85,74,111,170
268,532,357,115,81,71,110,171
215,390,319,104,79,74,101,173
198,354,290,91,73,66,90,155
197,388,303,102,73,69,91,155
179,312,234,94,64,62,96,157
173,335,214,91,67,66,96,170
162,327,217,91,70,68,92,143
160,383,249,104,74,70,88,140
161,323,216,97,73,67,84,130
174,398,215,101,81,68,85,126
174,374,211,106,84,69,98,130
183,411,222,110,89,77,97,133
182,361,182,110,97,89,105,145
202,361,216,142,115,101,109,174
249,358,225,158,125,109,121,194
238,372,232,159,127,108,112,172
236,371,236,158,125,106,115,178
237,481,267,161,125,103,128,194
212,482,278,147,123,103,127,168
146,432,263,137,118,99,118,164
130,424,266,134,113,98,114,163
124,394,261,129,110,95,112,156
142,278,233,121,107,96,105,154
139,282,224,110,92,88,106,162
126,276,228,97,82,85,106,145
147,264,220,93,83,81,104,145
150,295,206,103,90,83,105,145
129,325,237,110,89,78,96,112
129,335,213,109,87,73,88,99
163,411,283,140,110,94,97,103
148,426,287,145,111,96,102,101
144,443,290,140,107,92,102,117
158,425,286,144,107,93,112,192
158,428,294,137,104,93,114,195
127,343,217,101,74,64,100,197
124,316,207,97,70,62,95,196
143,289,223,99,69,61,107,195
138,342,209,84,66,59,93,126
140,319,192,81,66,61,93,123
142,366,210,79,61,56,94,121
186,412,233,86,66,63,98,120
176,420,244,81,64,60,81,107
168,355,233,78,61,54,81,103
164,349,290,83,62,51,82,101
165,312,289,86,73,63,86,144
123,269,282,87,74,62,90,158
135,304,267,92,78,69,90,160
127,307,283,89,76,68,85,152
137,322,232,92,75,69,97,177
150,347,261,98,70,68,109,161
153,360,256,92,69,70,114,172
145,337,257,98,74,73,119,172
154,494,283,119,88,85,134,197
177,503,295,129,99,96,135,188
175,487,262,122,94,90,119,172
198,500,261,123,94,90,121,169
215,486,281,117,88,89,121,177
222,361,237,103,83,86,112,151
205,369,216,90,76,75,103,141
202,394,229,93,80,79,109,137
188,369,239,92,76,76,103,142
173,382,210,95,77,71,103,143
159,369,221,97,75,68,103,160
190,361,228,103,79,69,110,176
194,363,212,107,81,67,107,179
180,395,200,105,80,68,105,172
202,445,256,109,82,73,99,168
227,511,278,109,80,70,89,158
230,540,306,108,70,70,74,138
238,524,312,109,80,84,83,139
246,518,315,116,96,90,95,164
264,518,330,131,108,101,121,170
248,440,321,134,111,105,127,172
233,395,295,141,118,110,142,203
275,412,283,136,111,103,142,208
271,379,275,130,97,94,131,182
244,326,213,112,88,85,111,188
243,333,191,101,80,77,104,180
284,414,230,91,74,69,112,198
248,418,268,96,78,71,114,192
258,429,296,109,88,75,115,189
269,423,293,101,77,65,112,176
278,415,301,101,76,64,121,206
243,394,340,110,82,70,102,163
265,421,351,126,97,81,103,170
315,490,388,170,131,110,125,179
320,593,426,192,155,131,148,211
320,606,458,198,163,137,145,187
335,610,425,199,165,138,144,189
316,614,399,203,167,142,151,191
257,601,343,160,136,120,136,209
231,476,279,130,110,99,112,180
216,484,208,128,107,99,117,188
321,434,197,130,107,102,125,201
330,377,222,106,82,93,106,194
387,394,218,105,82,97,129,212
399,468,235,112,82,97,133,222
435,518,266,114,78,94,131,225
344,526,239,92,63,89,123,209
323,543,212,93,66,78,128,208
259,488,223,93,63,71,105,167
271,512,223,99,75,80,111,171
241,459,244,125,106,101,132,172
233,466,273,137,116,104,133,166
245,509,271,134,117,105,141,204
239,522,280,138,123,112,163,244
252,460,275,141,129,120,172,241
239,482,233,114,106,102,152,228
250,473,217,100,93,93,148,228
246,425,226,103,96,93,150,216
262,427,264,97,90,87,121,157
243,468,279,87,73,63,99,158
228,422,281,81,70,59,102,158
231,417,281,80,67,56,100,157
311,408,302,78,68,58,92,139
313,411,257,81,70,57,95,146
300,327,247,69,70,63,98,129
298,322,236,67,66,63,96,149
327,354,235,78,71,68,101,155
255,372,205,80,81,76,97,142
297,354,215,76,82,77,94,133
299,351,199,75,78,74,104,182
305,349,198,74,78,71,101,166
267,327,260,83,84,75,103,173
269,281,256,77,65,59,95,170
208,258,252,78,63,60,93,172
190,256,262,81,63,57,66,102
187,362,289,93,68,62,85,137
199,384,247,80,61,63,102,145
272,450,243,87,70,68,106,154
271,487,270,90,74,70,110,157
271,503,260,93,79,75,114,157
274,457,238,87,78,76,106,142
261,424,223,89,82,77,82,115
215,374,221,84,79,75,87,122
208,331,196,94,79,71,91,136
207,317,201,93,74,65,90,139
202,368,195,93,75,61,83,123
214,399,228,107,78,59,91,128
211,444,245,117,83,67,87,121
233,469,227,108,83,73,95,116
232,474,235,110,84,74,94,115
230,411,242,106,82,77,96,115
227,370,201,89,70,69,89,111
200,292,214,76,64,62,92,124
166,246,223,75,54,52,72,106
188,260,220,67,60,62,92,124
203,263,223,65,56,59,99,148
196,265,245,78,67,68,103,150
188,348,269,98,73,68,100,138
238,337,258,98,77,71,105,138
272,324,259,108,74,67,90,150
298,351,261,114,76,67,81,129
328,363,239,105,72,64,85,137
336,294,180,85,67,64,78,132
317,313,179,83,65,64,74,134
353,320,200,80,67,61,93,143
340,291,232,80,69,65,92,140
313,264,234,76,61,58,84,134
308,374,261,87,65,61,88,141
289,366,269,85,61,56,84,137
182,389,260,78,57,56,54,100
126,386,227,72,58,58,56,97
122,388,229,75,60,59,57,98
96,296,217,67,53,54,71,109
272,324,259,108,74,67,90,150
298,351,261,114,76,67,81,129
145,317,203,64,59,59,85,119
181,317,182,71,55,55,85,120
196,348,178,74,56,56,87,117
195,356,153,66,54,52,74,94
225,327,148,77,65,58,82,117
226,330,155,81,55,49,94,124
203,373,169,75,56,52,110,132
203,392,187,71,53,49,108,140
214,443,219,77,59,57,116,145
182,410,211,71,52,52,113,119
155,408,202,70,55,52,102,119
185,419,218,79,64,58,92,114
178,381,202,79,64,60,91,101
163,286,175,74,60,55,82,104
179,322,224,94,65,57,76,100
181,320,234,92,64,56,76,88
181,266,211,84,56,47,85,84
176,275,233,89,60,49,91,91
180,276,241,90,60,46,89,82
160,236,201,72,54,44,83,82
158,238,221,82,55,44,83,82
116,203,233,82,53,43,66,79
128,199,233,80,50,42,62,83
118,209,219,83,49,41,59,73
123,210,238,97,57,47,59,73
140,205,206,92,57,47,60,78
145,226,212,97,60,49,60,93
134,236,190,94,63,52,69,100
146,229,199,94,66,55,75,104
133,212,195,79,57,50,74,102
145,210,198,75,57,49,73,115
139,202,223,72,56,46,70,104
137,202,225,72,54,38,61,115
129,217,229,70,53,38,56,128
166,293,258,86,64,45,71,135
143,322,273,100,70,49,73,127
151,326,265,102,72,52,75,128
155,325,274,100,71,55,76,109
179,365,305,106,72,53,83,101
145,307,286,88,59,45,69,88
143,301,277,75,53,43,72,108
186,312,287,77,50,43,76,114
181,301,271,75,48,43,74,119
154,243,223,64,43,44,70,115
216,290,219,76,50,45,73,118
230,305,240,95,60,55,85,124
234,364,219,103,70,63,96,136
235,363,217,104,71,64,98,141
253,376,235,109,73,68,114,156
220,439,256,104,69,68,113,169
241,456,244,92,62,61,107,161
227,500,246,84,52,54,109,166
244,540,263,89,56,52,107,158
235,546,259,87,56,47,84,144
229,470,214,87,57,45,89,134
225,475,200,86,60,46,94,148
212,372,202,80,57,45,87,132
224,345,217,80,59,47,100,156
240,381,266,92,62,50,108,164
250,449,290,90,60,50,104,163
240,438,299,103,68,56,101,139
280,437,282,102,65,55,93,135
283,431,271,96,59,51,76,103
300,375,233,84,54,49,68,90
334,323,232,83,54,51,70,83
346,303,266,65,46,48,74,105
324,332,283,63,47,49,83,127
331,454,282,73,51,50,84,128
301,487,295,90,56,56,92,124
278,470,277,91,57,54,91,132
255,464,236,93,55,47,79,121
246,466,218,105,60,49,92,126
245,337,200,108,64,53,98,142
249,294,160,101,63,46,92,145
239,293,155,100,64,47,97,140
262,293,155,98,64,47,107,188
260,260,201,96,63,46,93,175
229,233,214,87,57,39,83,185
236,286,202,76,51,37,94,198
249,309,213,74,50,36,93,209
222,339,215,87,57,41,86,178
228,372,170,78,54,41,88,185
223,376,153,74,53,41,89,163
233,386,170,81,54,43,76,145
220,414,194,102,64,52,75,132
278,454,192,98,59,50,75,116
272,418,188,101,60,51,73,97
268,425,197,109,63,53,83,95
364,395,194,119,74,64,104,104
371,358,158,104,67,63,106,120
339,290,160,100,68,65,104,118
343,294,162,95,66,63,100,122
367,314,165,94,70,65,97,126
294,301,146,74,57,53,78,126
272,314,147,73,56,49,71,105
279,293,154,72,52,46,94,155
309,327,201,77,54,46,95,156
300,363,215,70,50,43,91,154
293,370,223,72,50,43,89,147
311,386,228,73,51,44,94,148
395,437,231,72,52,43,94,125
369,440,216,65,51,44,102,121
373,442,199,74,54,46,106,126
385,461,196,75,57,48,106,130
430,538,191,86,67,55,110,144
340,520,179,90,69,56,91,124
399,532,186,109,76,64,103,154
404,491,218,110,74,65,102,158
389,531,230,113,73,64,103,160
411,487,235,123,80,64,107,159
424,458,252,121,78,63,118,167
383,437,238,106,71,59,112,145
421,446,208,101,72,55,110,140
438,377,198,97,72,57,112,138
370,336,259,98,69,57,106,127
412,351,238,93,70,62,123,143
410,353,257,100,73,62,121,146
354,429,266,105,74,66,124,157
319,448,283,107,76,66,130,157
322,448,228,90,68,63,128,181
345,494,233,103,72,61,106,171
377,545,225,104,73,61,120,201
439,532,234,103,76,75,168,214
457,616,240,111,79,85,168,213
454,629,247,108,78,86,172,196
386,609,269,101,76,86,178,191
366,594,262,97,76,86,167,190
323,605,267,92,73,80,143,190
316,511,275,94,75,72,141,205
344,515,267,96,77,78,165,249
350,490,248,100,77,80,160,251
351,485,252,108,82,92,185,248
334,445,248,117,92,92,171,230
323,444,209,107,86,91,172,223
357,543,248,123,96,95,154,196
366,613,270,131,102,98,153,191
377,630,255,131,99,86,126,181
382,622,253,136,97,87,132,207
386,639,251,135,96,98,152,213
352,585,249,131,91,90,145,197
365,551,233,135,93,97,164,216
419,619,263,140,97,108,183,257
414,656,254,131,92,108,185,242
448,668,267,143,105,109,183,264
454,644,264,160,116,118,193,278
431,620,256,153,115,110,175,262
358,502,251,155,116,107,166,236
364,443,258,153,115,102,177,280
383,493,318,165,117,104,201,309
355,518,382,184,133,118,214,304
397,530,401,190,136,125,228,314
449,583,398,201,147,136,243,345
441,656,401,215,158,147,239,324
422,598,385,216,157,142,217,283
412,574,315,186,135,123,192,274
383,626,306,175,125,111,174,274
334,688,341,180,125,105,149,219
389,684,340,165,110,90,132,208
343,681,311,147,100,84,111,200
351,682,303,136,96,85,119,199
341,673,363,159,109,97,121,193
358,550,314,123,87,81,108,184
283,457,298,125,89,80,113,176
289,445,301,127,86,80,121,171
311,399,286,129,85,77,128,187
327,361,197,130,99,90,154,203
329,400,217,133,100,92,171,218
341,469,238,134,105,101,170,224
445,558,302,151,119,111,175,238
471,650,362,174,135,137,180,249
504,711,385,172,129,138,163,243
522,733,424,202,153,156,163,252
519,716,435,202,151,152,158,249
452,670,397,189,145,154,179,251
405,602,357,172,134,131,168,227
357,609,410,194,142,131,187,245
329,611,369,166,118,110,177,230
368,631,378,172,121,113,199,258
344,602,361,166,115,101,184,247
358,656,376,170,118,105,196,264
366,606,331,145,106,91,175,235
326,557,324,139,100,85,178,223
287,587,303,135,96,79,157,186
309,601,318,144,102,89,161,190
321,553,293,140,103,88,141,172
301,489,284,133,93,80,138,176
310,547,286,138,97,82,127,173
336,546,330,158,113,98,173,207
340,547,318,156,110,89,152,193
340,551,348,154,106,88,168,204
351,600,330,147,107,94,184,217
345,543,326,139,102,96,191,216
302,455,275,107,76,80,151,185
290,466,275,105,72,79,157,194
261,494,260,109,80,85,142,168
255,440,266,112,81,82,125,174
253,443,275,118,84,81,113,170
277,483,266,122,89,82,108,171
285,509,292,125,90,86,119,158
281,442,291,119,82,76,119,176
266,434,292,119,71,67,113,143
284,433,278,136,69,62,127,194
266,409,274,142,64,58,131,189
216,330,255,143,63,59,154,218
204,337,233,163,59,57,150,203
217,343,188,157,59,61,155,219
180,361,195,157,60,62,148,200
178,340,223,222,105,79,152,202
207,455,274,257,115,77,133,199
230,449,268,267,120,81,146,249
258,462,280,302,128,89,155,254
294,485,293,327,149,112,176,293
343,583,351,422,166,116,188,312
398,581,371,466,186,127,193,325
495,618,379,458,187,127,199,324
508,654,399,450,193,129,198,330
501,682,409,436,180,115,188,291
475,647,380,323,150,107,192,278
427,602,333,219,112,93,174,247
333,557,326,215,109,90,166,222
321,527,307,189,93,81,153,208
315,529,293,179,93,78,141,203
321,490,260,147,79,64,107,200
319,532,253,151,85,67,112,192
294,581,262,158,88,72,100,168
255,566,273,176,103,86,134,205
242,510,264,168,99,85,129,202
251,513,279,170,102,84,134,215
265,527,323,172,106,88,135,229
265,464,310,155,102,84,134,229
293,448,311,132,91,73,112,194
314,500,359,153,114,100,158,236
291,497,346,143,113,103,153,213
312,496,322,146,117,111,177,250
296,535,335,150,121,113,181,253
269,588,327,147,122,117,187,254
266,607,271,140,109,101,174,227
258,616,289,180,108,101,176,229
217,551,307,236,106,90,146,187
221,533,322,243,106,90,154,201
233,505,356,252,121,103,154,207
217,438,362,281,120,98,130,207
253,449,361,290,127,99,128,209
251,535,365,301,139,105,149,234
255,536,352,352,158,111,155,271
245,520,318,354,145,93,154,269
233,493,313,326,140,90,153,255
208,461,293,311,132,85,153,256
201,377,258,310,125,80,141,220
198,406,239,246,97,72,125,176
219,431,235,236,94,66,109,173
237,527,270,243,104,75,120,216
224,504,259,230,102,74,118,210
213,480,246,167,82,61,104,212
207,466,260,168,85,62,114,214
193,430,241,160,80,61,125,229
164,331,189,165,63,48,119,204
227,354,184,155,66,50,119,209
257,399,234,136,71,64,132,247
271,455,352,152,77,68,132,244
256,493,356,161,86,75,141,235
266,481,373,139,83,75,147,249
226,468,378,144,81,75,146,249
203,457,379,150,84,69,137,221
183,366,270,119,73,62,137,239
191,304,273,108,64,59,118,220
196,308,291,110,66,61,108,198
209,370,294,107,66,60,109,200
219,459,261,104,69,72,127,227
217,462,267,117,71,70,113,208
221,462,252,117,69,65,121,240
210,453,190,114,67,61,114,235
183,432,217,120,69,64,119,231
175,304,240,120,63,54,106,205
218,349,296,122,66,60,118,212
206,345,310,123,68,59,105,175
200,347,348,127,70,59,106,179
205,402,356,127,74,63,116,211
214,423,340,112,64,54,118,212
214,405,313,101,59,48,103,184
222,415,307,115,61,52,114,205
230,479,307,135,75,65,127,215
238,470,276,126,68,59,119,227
242,483,294,127,71,64,114,228
212,464,266,125,71,64,114,231
227,470,266,115,71,63,111,216
215,413,228,87,54,51,93,202
212,362,220,82,52,52,85,151
194,309,189,74,48,45,70,130
195,381,209,99,65,51,84,139
176,367,215,91,61,48,79,133
188,342,212,89,59,46,78,140
174,317,210,97,66,55,81,129
227,373,218,99,67,60,86,131
235,327,206,74,50,55,76,129
230,320,199,81,57,59,71,132
242,327,198,84,61,61,77,139
267,358,196,75,54,52,78,146
230,308,184,76,54,48,78,164
216,269,224,86,58,50,74,151
212,267,222,80,53,44,72,146
193,282,218,76,51,48,77,145
172,286,245,79,54,48,74,154
166,286,250,82,55,49,74,146
181,360,218,69,50,46,72,152
179,387,216,70,49,46,75,159
178,381,240,76,51,41,71,142
195,352,251,79,54,44,79,138
206,432,238,72,50,41,80,139
207,382,251,79,53,43,94,143
215,383,262,81,53,44,95,135
220,433,252,86,54,46,95,144
209,429,213,82,50,43,89,133
240,352,214,82,49,43,92,121
245,389,217,77,52,40,78,136
261,398,230,97,65,48,84,144
276,351,260,96,66,49,92,168
275,361,266,94,64,49,93,167
232,414,264,94,64,48,86,163
250,388,236,90,60,49,92,146
262,392,233,79,53,46,87,162
257,381,209,69,48,42,77,134
262,435,205,72,51,44,86,145
267,376,218,81,54,45,87,144
235,395,257,97,58,46,82,139
202,356,233,85,51,46,79,114
252,426,215,86,53,49,81,115
249,431,216,84,51,50,70,128
261,431,227,79,49,50,70,129
291,427,173,62,48,47,71,144
293,446,174,75,54,51,79,149
241,400,206,80,54,47,77,139
262,345,229,89,59,47,75,111
250,353,206,102,65,49,78,117
216,320,202,102,64,50,83,119
223,321,223,99,63,47,75,112
221,324,200,93,59,46,73,136
185,306,175,82,52,41,67,137
182,311,171,61,43,37,63,132
172,308,175,62,41,36,58,121
158,294,159,59,41,36,63,121
186,331,242,75,53,43,66,130
179,335,244,76,56,46,75,135
210,334,248,82,58,50,79,146
209,338,248,76,58,50,85,158
219,337,242,76,56,50,85,160
203,277,144,58,46,44,81,133
225,282,203,65,44,42,73,126
212,283,213,65,46,43,71,116
212,273,217,67,46,40,64,93
212,297,249,72,44,37,56,92
197,336,264,74,45,39,55,107
174,331,227,73,47,43,75,128
154,332,214,63,40,37,70,128
161,413,221,66,38,37,70,126
170,457,226,77,48,43,76,132
177,522,285,96,59,51,89,129
203,544,277,92,57,49,85,162
209,544,279,97,58,50,91,188
243,552,328,118,77,61,97,192
239,518,324,112,74,57,105,196
244,443,273,106,71,54,98,207
236,408,271,106,71,53,93,200
262,424,284,109,72,53,92,186
228,359,225,86,54,43,96,208
225,348,214,82,52,43,84,200
231,329,205,70,45,41,89,197
233,362,229,81,51,42,92,175
194,351,286,100,59,46,92,166
192,329,278,95,56,45,78,128
183,314,258,92,53,43,75,138
182,334,261,103,62,50,88,144
186,313,250,102,62,50,86,137
254,387,168,85,56,51,90,137
340,438,183,99,64,53,96,148
389,452,203,108,70,56,100,143
412,444,198,106,66,52,88,136
408,434,186,99,62,50,84,148
366,349,175,92,60,46,80,150
290,315,156,85,54,43,73,140
216,292,145,73,47,39,71,135
211,308,188,63,41,34,71,129
209,386,202,68,44,38,81,129
219,479,242,74,46,39,80,125
229,465,247,69,44,39,98,134
261,495,263,92,59,50,103,142
233,551,246,98,66,58,103,134
226,509,257,94,65,55,98,121
255,451,245,104,70,57,112,173
327,502,249,109,74,58,104,181
326,505,229,94,69,55,100,176
326,452,218,86,65,49,104,181
326,452,201,93,68,53,113,205
305,421,173,98,68,57,106,175
236,351,161,101,69,61,107,176
217,373,157,100,66,60,106,174
216,378,191,111,68,59,96,165
264,377,236,109,67,59,90,161
268,376,239,91,57,53,93,159
272,398,240,78,52,49,96,178
274,403,255,75,50,48,107,190
321,457,254,79,52,53,121,228
288,486,210,76,53,51,116,212
328,501,203,82,60,53,116,219
329,497,202,93,63,56,119,200
319,449,189,105,68,58,112,195
250,349,165,95,65,54,95,148
279,374,176,94,65,52,114,151
253,405,209,101,67,54,108,158
247,442,224,97,69,55,107,169
253,489,226,89,67,53,105,161
254,502,215,84,65,54,107,162
215,450,195,83,66,55,93,172
178,470,202,84,66,55,98,158
146,439,199,83,63,54,94,140
170,385,188,82,65,73,108,149
192,399,195,85,69,75,116,155
205,446,223,93,69,76,117,162
227,392,190,81,65,78,115,160
227,420,175,80,69,82,124,171
238,437,197,83,65,66,114,162
249,453,213,102,70,69,120,183
235,435,231,101,69,82,178,184
209,426,248,104,70,128,268,198
215,413,257,103,65,133,275,186
178,424,268,124,76,140,279,186
151,386,247,111,74,146,291,178
154,362,222,110,77,141,262,154
178,449,208,112,78,98,171,148
242,455,196,112,80,89,161,166
241,413,155,85,66,74,161,171
232,400,175,82,60,58,130,162
299,425,173,76,55,53,136,177
298,364,165,75,52,57,142,161
253,362,180,76,51,53,128,144
265,390,201,82,55,60,120,142
280,410,185,78,58,70,169,157
218,367,175,78,57,70,165,151
199,366,198,75,54,67,152,148
186,369,205,71,52,66,182,144
177,348,188,66,51,111,263,147
153,328,189,63,49,111,261,138
162,412,196,74,59,114,262,125
170,385,192,77,64,119,269,124
193,407,173,85,69,128,258,130
183,398,178,86,70,92,193,126
191,415,179,88,72,88,165,167
164,339,160,77,65,83,167,173
166,358,146,71,60,71,155,171
146,303,156,79,62,57,137,168
188,352,160,78,63,54,111,169
183,351,159,75,60,54,114,102
186,359,159,76,60,56,104,102
189,333,146,77,61,57,104,98
190,367,181,61,52,53,102,95
171,339,188,55,49,51,100,96
168,345,195,59,46,41,93,122
216,386,205,63,48,45,96,133
224,389,203,66,46,44,124,146
238,331,154,65,48,44,126,147
220,333,158,76,53,47,123,145
221,326,169,83,62,53,111,130
184,286,173,80,61,52,117,124
162,284,175,77,61,54,98,115
137,283,186,71,56,54,102,113
171,276,161,62,50,51,100,108
165,254,155,49,40,46,102,104
173,250,157,49,41,43,99,106
192,277,171,55,42,44,107,130
197,296,179,59,43,42,97,127
183,275,182,61,46,46,113,135
187,264,188,69,51,50,111,148
187,342,189,81,64,53,105,136
249,404,201,93,83,58,99,117
296,438,208,100,91,68,133,146
405,520,252,102,93,68,123,148
431,556,255,99,91,69,132,147
439,511,260,95,81,65,136,148
404,470,242,93,68,62,129,142
400,438,225,90,65,57,102,128
291,354,189,88,60,61,130,122
275,357,164,92,62,60,129,109
260,349,170,86,59,57,131,122
276,373,228,100,64,68,136,131
256,442,248,106,64,68,139,121
260,444,237,107,64,64,118,119
253,471,254,111,68,70,143,157
267,484,274,119,71,75,148,161
255,457,231,100,62,64,147,158
236,424,212,91,54,60,142,153
240,467,230,98,55,55,140,153
223,408,220,92,45,45,121,144
206,418,200,98,56,45,103,136
196,397,194,96,54,42,96,134
192,353,189,106,58,41,98,136
219,343,167,110,64,47,101,157
222,339,177,110,66,48,83,133
221,313,152,105,56,41,85,133
256,364,155,104,55,50,104,146
262,367,214,109,55,70,126,155
257,327,224,97,50,66,117,126
283,332,207,94,47,64,115,123
300,338,211,86,54,74,151,189
299,280,217,97,55,70,142,179
292,288,171,100,58,57,155,207
278,285,189,113,65,65,164,217
256,295,192,113,65,67,166,221
229,262,200,113,61,59,135,163
189,259,191,104,59,61,136,162
196,298,186,94,60,57,100,121
197,284,156,73,52,51,91,111
221,251,145,71,56,51,101,118
227,284,141,92,54,53,103,111
248,288,138,93,54,55,121,133
248,233,127,84,49,59,124,126
258,300,182,92,49,57,124,123
237,305,185,94,44,56,114,105
226,270,178,81,46,51,111,104
204,318,182,107,56,47,84,74
198,325,193,214,69,45,77,83
169,261,177,386,134,57,103,115
154,302,249,509,195,65,107,133
189,347,264,524,208,75,111,151
220,349,280,522,205,78,121,157
236,335,275,490,202,77,139,196
279,460,344,376,167,75,138,209
332,445,311,186,94,72,141,217
340,455,342,145,63,67,145,233
319,429,371,144,66,64,141,236
323,469,376,139,67,68,138,209
300,375,308,126,67,63,125,183
256,384,345,135,66,62,124,175
249,355,302,131,64,58,123,184
257,381,260,130,69,68,136,185
242,339,271,128,67,61,119,183
269,326,254,121,62,57,112,192
267,331,206,126,60,57,111,201
240,366,198,132,62,59,102,162
250,394,249,151,66,57,94,159
240,390,244,167,68,55,101,185
183,386,246,169,70,57,112,200
180,392,285,155,72,60,116,191
196,384,307,151,69,66,128,210
183,314,270,131,61,58,114,206
195,322,261,106,60,64,115,189
192,395,287,115,68,68,105,167
203,363,232,103,62,64,102,173
217,341,210,101,68,69,100,159
213,405,202,121,68,69,102,154
216,465,265,142,79,70,95,138
244,477,304,136,71,70,92,131
226,496,310,149,70,66,82,111
230,499,304,147,67,60,104,159
239,453,302,127,66,60,105,167
241,458,266,110,52,53,114,181
231,396,219,119,56,49,123,200
245,399,210,130,56,51,129,209
228,384,209,128,53,42,99,173
215,403,208,129,55,45,110,177
215,338,223,132,59,59,112,180
201,321,196,122,58,62,101,154
210,334,192,92,57,61,94,138
210,352,197,96,59,61,93,132
228,376,187,91,55,59,92,147
213,364,157,77,44,44,75,137
211,371,185,93,57,46,84,150
193,329,207,116,61,47,88,152
203,362,253,132,65,51,88,144
187,326,255,134,66,52,75,136
195,316,248,146,68,52,77,146
198,339,269,141,61,48,71,144
214,429,270,122,59,51,79,150
222,423,238,113,62,60,121,206
211,418,241,121,61,59,123,196
209,426,254,113,65,60,130,199
214,438,218,112,69,60,133,199
182,380,216,118,71,63,133,196
216,337,259,111,67,58,109,152
218,339,280,110,69,59,105,146
210,335,268,106,64,57,96,129
193,338,265,102,58,63,119,161
196,333,260,101,53,58,113,169
106,321,226,105,51,53,117,164
105,316,196,100,51,50,119,165
110,320,227,106,63,57,122,158
119,248,232,122,67,49,98,129
115,197,239,126,69,50,96,118
112,212,223,117,70,50,73,108
109,202,222,116,70,52,72,128
111,219,193,119,61,56,73,142
100,294,189,117,64,64,90,149
95,305,177,111,61,64,88,146
93,293,162,116,55,59,88,145
92,317,160,115,55,61,99,134
90,379,213,103,59,59,94,121
86,325,269,95,54,51,87,110
89,321,257,109,56,51,88,115
92,338,260,107,59,54,90,118
128,341,269,107,58,51,76,109
130,258,236,114,54,44,77,125
129,253,148,100,44,39,65,127
134,246,147,79,44,39,70,125
143,270,149,75,44,38,71,124
111,246,148,90,47,40,76,135
109,235,147,82,47,39,80,137
112,237,142,81,48,37,84,133
149,257,194,96,48,39,81,137
143,220,197,101,46,38,77,135
151,225,190,107,51,36,71,128
153,241,192,123,60,38,71,120
154,233,196,125,62,42,67,118
121,225,164,113,61,42,73,120
133,221,162,111,61,44,86,125
161,234,163,120,66,50,88,128
156,224,149,103,56,49,86,122
190,240,151,103,56,47,85,122
198,246,154,107,63,52,93,117
197,306,171,103,64,55,84,108
168,288,177,79,52,48,79,94
178,279,177,79,53,47,73,81
163,298,180,81,51,48,69,71
148,311,174,81,45,44,58,86
142,259,172,81,44,40,57,89
163,299,175,93,52,44,65,101
149,300,170,94,50,43,68,105
128,300,169,105,57,45,74,112
133,289,174,102,56,37,70,96
133,297,159,99,55,35,71,102
105,260,140,78,48,31,70,99
109,263,146,73,48,33,70,102
105,263,154,57,42,32,68,98
95,255,143,60,40,33,64,96
92,233,144,59,41,32,58,88
95,223,154,64,42,32,61,80
111,348,195,72,47,33,67,87
111,324,184,69,45,31,74,117
117,344,183,63,43,34,81,123
122,363,183,74,46,38,81,122
150,435,196,103,66,54,93,137
147,340,158,98,63,54,90,129
151,347,176,99,64,55,86,103
158,324,178,102,62,54,82,99
153,301,193,96,61,52,82,112
180,202,200,67,43,40,64,100
190,199,191,64,41,38,65,103
189,180,181,59,37,35,55,98
187,176,171,61,43,35,59,95
189,202,190,63,43,40,58,82
212,212,160,55,41,36,58,83
216,213,163,54,41,37,52,74
212,205,155,61,42,39,59,74
210,225,171,60,43,43,85,127
209,212,135,53,41,37,87,128
138,187,157,54,39,36,84,124
143,193,163,56,43,39,90,138
147,206,174,59,48,49,112,189
143,213,171,59,46,50,105,164
143,211,160,62,47,52,113,167
157,219,160,72,54,56,115,171
135,225,160,77,55,57,112,160
196,240,152,74,51,50,93,111
204,217,138,74,52,45,84,117
222,219,147,79,54,47,83,127
215,218,134,70,47,42,86,125
229,212,129,61,44,39,88,129
200,220,127,61,43,41,87,131
218,217,124,59,40,42,98,152
203,211,144,54,41,37,89,146
237,214,138,63,44,40,96,171
216,215,152,66,54,43,100,179
238,211,149,63,53,40,95,171
252,312,181,64,56,48,96,153
249,320,164,66,55,49,97,150
217,348,176,60,53,50,91,118
240,366,160,61,42,49,84,110
213,357,167,65,44,50,92,116
188,281,139,69,44,46,80,109
198,290,139,66,43,45,79,107
203,261,139,66,45,42,78,112
173,249,149,63,44,40,79,112
208,264,195,62,46,40,78,110
219,321,197,55,40,34,72,114
235,306,214,62,45,38,70,112
256,305,214,61,43,42,69,112
285,318,214,65,45,44,76,118
279,305,164,62,45,43,75,118
291,291,166,65,49,46,73,108
295,307,155,68,55,47,77,124
277,356,159,72,57,45,75,121
260,341,175,79,59,45,67,108
237,347,180,78,57,44,59,100
233,308,244,100,62,52,72,119
209,303,254,105,60,55,95,160
226,260,247,105,58,56,102,180
214,241,231,97,55,56,109,194
224,255,310,119,63,60,110,197
214,309,264,105,57,54,112,205
232,304,249,93,50,46,89,163
206,280,252,87,49,45,79,144
224,305,268,93,55,46,71,127
224,348,187,64,46,42,83,130
209,340,180,56,45,41,74,105
197,424,184,66,48,43,84,112
201,423,179,67,49,43,92,152
215,434,164,69,47,43,101,154
199,379,156,69,50,44,91,160
188,345,147,67,48,41,92,160
200,247,136,61,51,42,95,168
222,304,170,88,58,42,91,130
211,337,206,94,62,46,84,135
215,361,198,98,61,47,96,143
230,381,202,97,61,49,93,147
226,392,224,99,61,49,92,153
217,396,217,83,58,49,92,169
219,338,187,76,54,43,87,180
239,326,201,74,56,43,81,172
246,328,210,77,55,41,80,180
270,445,245,102,77,59,84,176
266,432,226,96,74,59,83,170
291,486,227,98,77,67,106,182
322,502,229,100,79,66,99,183
311,493,220,102,79,66,100,179
311,437,190,94,69,61,108,217
320,416,194,94,69,62,112,218
311,462,216,94,70,63,108,224
261,453,212,96,67,62,117,241
276,471,228,96,67,63,120,243
276,489,247,105,76,66,121,209
302,509,278,113,83,70,120,211
364,478,278,113,82,67,118,214
385,478,356,121,88,70,115,200
400,484,353,122,91,72,127,239
469,488,328,100,74,63,124,257
456,474,306,90,68,61,125,267
399,459,312,93,67,57,121,253
399,479,291,90,65,55,119,268
374,536,294,92,61,54,102,228
245,506,285,89,60,52,105,228
249,519,285,88,57,48,105,214
257,501,263,80,54,47,104,221
283,551,252,81,57,55,112,197
295,502,253,80,56,54,119,211
301,472,259,87,62,58,104,182
285,468,267,90,63,57,99,178
306,498,277,104,74,70,118,181
254,458,221,95,67,65,109,176
246,461,203,91,69,67,103,155
238,463,230,87,60,60,99,150
274,550,254,98,73,67,116,167
255,520,239,83,64,55,97,144
256,504,236,80,64,54,95,137
256,484,246,84,66,57,94,138
323,498,269,94,74,61,106,186
328,445,270,92,65,56,111,182
304,437,260,87,60,54,109,189
299,406,268,90,61,53,120,211
290,404,298,98,59,49,124,216
222,405,263,95,58,53,126,191
164,403,239,82,53,50,113,189
156,462,244,87,58,58,123,208
228,501,252,96,62,63,119,191
231,500,229,84,64,72,127,201
225,555,258,107,88,93,143,222
211,521,276,118,93,100,145,215
211,495,296,121,92,97,148,199
152,484,278,115,94,96,150,223
159,481,263,117,128,105,156,213
153,383,221,96,129,100,156,192
154,357,180,85,130,94,155,186
165,359,210,98,133,104,158,229
152,333,206,93,129,104,159,220
124,384,211,89,92,87,146,227
121,379,208,82,67,77,120,224
147,403,221,83,62,89,122,235
141,426,194,72,64,79,100,186
147,452,192,87,74,87,105,189
159,452,210,101,83,94,119,217
168,466,211,119,98,117,134,227
159,463,272,135,116,134,145,254
187,461,259,136,114,140,156,264
203,508,286,145,115,141,154,266
210,532,288,139,111,140,149,239
207,531,314,134,96,117,140,220
202,554,255,119,89,96,127,183
186,527,260,115,97,118,124,164
158,484,265,98,90,112,114,137
150,428,253,103,91,112,105,136
151,435,245,106,101,119,114,200
154,450,256,121,97,117,118,203
167,467,265,135,107,107,144,209
165,427,227,130,108,109,147,206
164,439,235,127,107,108,145,198
170,428,252,115,100,120,151,172
160,356,242,98,92,129,150,164
124,382,239,84,72,115,116,146
121,382,251,91,69,113,111,147
109,358,246,91,72,121,112,161
113,388,199,90,75,107,103,184
115,458,266,107,80,88,95,189
116,403,263,98,76,82,93,186
122,414,264,101,81,89,98,192
115,392,291,103,82,83,107,183
94,356,329,117,85,73,91,118
94,271,283,108,86,85,84,102
88,248,278,124,115,100,91,112
82,247,276,129,128,107,92,110
91,260,242,132,136,149,90,104
90,261,245,120,142,175,92,97
89,302,368,129,153,212,94,104
125,351,380,134,168,216,94,109
140,401,410,153,174,222,102,141
153,438,427,172,192,207,108,154
153,441,422,183,201,202,112,155
161,467,323,173,194,183,116,172
138,449,309,163,168,182,128,189
160,430,321,169,166,201,152,185
151,388,342,169,159,207,148,179
161,404,317,166,145,206,145,187
153,336,308,170,152,194,143,181
151,309,316,171,155,193,143,168
115,253,256,153,158,167,109,145
171,318,237,140,152,164,109,166
164,278,249,134,159,153,114,157
159,278,250,133,161,152,115,137
177,347,251,147,185,170,109,137
180,345,297,146,183,170,116,142
130,360,296,146,183,167,121,140
133,369,284,140,171,171,120,140
151,394,292,146,175,167,123,141
144,331,283,137,149,153,120,137
158,398,263,137,167,190,121,148
167,387,251,134,159,177,115,151
167,401,289,144,163,177,114,155
161,421,321,142,151,172,111,157
175,457,337,139,148,170,105,148
160,437,349,144,121,133,116,163
149,395,374,141,115,137,109,134
217,475,403,177,159,173,144,154
230,496,399,203,184,196,147,172
222,475,450,219,197,195,144,171
248,478,470,236,208,198,138,169
252,488,466,242,214,208,152,178
222,448,432,223,188,177,128,167
207,374,416,197,164,154,122,147
239,497,438,205,162,145,130,165
211,469,397,184,153,137,117,132
221,486,399,188,150,123,104,129
198,465,385,179,145,133,99,126
199,481,398,180,147,147,98,127
156,404,294,152,133,140,92,106
159,409,321,133,112,130,95,108
158,405,285,118,108,136,90,118
158,380,303,109,100,125,86,115
159,367,287,99,92,104,87,115
179,364,402,146,119,136,114,159
177,351,379,150,117,138,111,158
169,307,381,160,115,121,119,153
167,306,392,168,117,122,114,153
174,387,453,190,133,132,145,179
143,320,372,156,104,107,123,143
153,357,375,154,103,103,129,144
138,356,383,141,100,105,126,133
160,380,417,176,131,118,136,156
155,314,356,159,122,107,104,124
160,339,354,161,126,102,97,119
155,359,362,176,143,114,101,117
154,367,351,179,154,119,94,114
134,368,281,153,134,101,77,73
129,368,287,154,135,100,77,75
132,373,348,157,140,109,81,74
149,380,341,149,134,103,74,110
180,470,448,197,142,110,96,138
191,463,460,194,139,110,104,151
183,452,458,192,130,118,101,148
206,492,458,214,140,119,115,163
191,449,454,209,132,116,114,152
172,374,445,171,113,104,97,134
172,364,464,185,125,106,100,130
172,365,462,182,132,100,99,130
148,406,445,161,122,95,87,113
158,438,448,166,125,97,85,100
170,485,455,197,143,108,103,128
161,499,454,196,150,106,93,116
195,539,471,216,154,113,104,126
187,459,438,207,148,116,108,145
187,467,460,203,149,114,107,145
201,475,369,177,145,109,103,137
221,485,368,157,120,104,105,142
218,471,342,137,114,99,102,137
257,575,419,161,115,95,98,125
271,616,454,183,123,103,111,151
252,586,464,169,105,99,98,132
234,582,533,199,122,106,97,131
258,616,573,220,135,129,109,142
237,571,618,234,146,134,111,140
219,513,597,222,135,129,99,115
252,584,619,257,167,154,122,135
271,655,594,254,176,160,129,144
250,631,581,245,173,144,124,143
247,630,506,231,172,138,127,151
280,661,561,245,180,142,134,160
278,605,575,244,178,166,142,191
254,516,545,225,158,155,139,183
241,505,568,225,149,153,133,174
230,464,555,206,145,158,125,160
199,490,476,188,136,152,116,150
172,540,426,149,105,93,80,80
201,589,423,174,128,102,84,93
345,687,503,284,193,140,146,177
381,766,571,321,205,143,160,192
382,742,566,322,205,148,160,192
389,714,615,325,207,155,177,216
385,688,614,320,199,150,170,209
269,616,535,269,162,133,131,155
216,506,453,236,144,127,115,139
210,494,491,236,145,126,115,138
183,497,466,233,138,113,87,98
215,484,469,259,159,130,113,118
209,495,483,215,136,114,103,103
240,531,511,226,149,119,105,108
237,517,480,232,152,114,110,111
275,538,534,293,181,131,136,138
254,602,547,283,172,123,126,131
271,571,541,296,180,129,130,149
243,542,543,285,169,120,126,146
272,580,589,294,179,139,127,148
242,580,526,238,158,131,111,155
227,523,503,227,163,137,104,155
220,551,545,221,158,133,98,139
223,597,557,241,176,136,105,143
191,589,531,237,175,127,109,151
199,534,527,231,169,122,99,122
222,565,568,233,156,111,99,120
202,543,514,224,156,122,102,120
215,581,493,219,142,134,113,129
257,606,508,221,138,132,114,138
302,627,527,236,149,139,117,144
308,658,470,232,154,141,117,145
325,682,473,229,154,136,117,149
330,631,502,213,145,120,100,135
315,631,490,199,133,115,94,118
278,649,464,193,129,111,98,125
264,585,456,184,119,109,94,116
249,595,470,180,117,105,93,116
246,576,426,171,114,101,95,122
232,531,396,173,123,109,93,122
205,476,370,150,112,101,82,103
189,528,376,136,108,98,77,102
191,484,302,118,95,90,72,96
171,532,327,124,93,97,69,91
162,498,303,104,75,80,63,84
186,523,332,134,87,88,73,93
180,453,322,135,93,90,81,95
232,486,453,213,133,120,109,134
231,515,456,234,152,126,113,133
287,576,514,262,166,137,123,152
298,590,562,288,182,149,139,165
317,638,638,308,190,151,143,178
320,653,668,337,223,175,167,196
323,597,662,340,226,177,168,199
268,549,625,323,218,169,160,183
257,555,565,294,204,154,146,176
239,498,478,275,194,152,143,170
176,426,320,177,127,100,91,117
172,394,249,135,97,82,83,104
174,377,280,131,105,92,89,108
185,342,279,139,111,97,101,117
182,343,312,152,118,99,95,108
183,320,307,153,120,94,92,104
182,368,339,175,128,104,92,109
214,449,351,197,135,105,99,123
228,447,375,192,123,101,92,125
234,471,346,194,142,117,100,130
257,577,382,215,154,120,107,137
291,649,479,272,195,149,138,168
270,619,463,262,193,148,130,158
246,659,456,271,209,160,143,156
247,652,494,280,202,154,143,155
220,570,490,266,196,153,137,148
162,457,382,194,149,117,106,113
153,445,374,182,140,114,104,112
138,350,358,163,117,96,79,92
155,341,325,136,102,81,70,89
154,354,281,133,96,79,70,91
166,380,313,142,99,82,75,98
175,371,317,153,107,81,83,106
177,376,333,148,108,91,90,120
187,421,393,166,118,104,94,121
185,390,395,165,116,101,92,118
191,369,397,172,122,107,93,114
194,350,387,167,116,107,89,109
195,410,396,175,124,103,87,90
179,360,323,157,112,93,86,98
182,395,309,159,118,98,89,99
175,369,263,136,105,85,79,91
175,413,272,134,104,79,75,89
186,386,273,115,92,85,68,89
178,450,325,112,92,83,68,75
201,500,335,115,93,83,74,82
239,634,470,161,104,95,86,97
330,756,589,259,168,133,128,149
337,740,586,266,173,129,129,151
374,751,571,293,193,142,140,170
377,732,586,295,191,140,137,170
353,621,496,272,183,131,134,165
288,530,404,204,147,109,111,132
279,564,414,214,147,107,117,139
215,493,401,180,125,92,109,136
203,505,402,184,133,100,115,143
205,546,415,195,139,105,113,152
222,518,402,194,133,103,105,156
212,477,418,177,121,97,94,145
252,530,453,198,135,110,99,142
239,491,433,188,130,106,94,131
264,520,443,194,142,112,106,137
252,481,418,186,138,107,102,129
281,505,373,185,138,109,107,138
261,490,356,174,129,99,99,127
308,612,485,220,153,113,110,137
288,602,497,213,143,105,101,122
290,591,489,203,136,101,97,115
305,630,496,205,139,101,99,115
352,755,566,255,168,122,128,177
313,653,509,218,142,107,115,172
342,631,496,240,160,125,135,191
413,676,536,289,197,153,169,233
406,664,593,328,210,164,177,235
384,549,565,307,191,151,160,198
391,589,549,313,194,153,163,203
364,590,532,301,182,142,151,189
293,660,529,279,159,125,125,149
263,643,476,246,154,118,120,154
262,648,420,233,151,117,120,157
253,611,392,228,154,118,120,155
260,620,410,230,158,122,126,165
256,529,406,243,168,130,138,173
256,513,423,237,158,124,133,167
264,540,519,257,168,132,141,178
271,621,549,270,175,134,144,178
262,600,536,261,166,125,132,160
242,558,496,224,138,102,104,133
253,546,465,210,133,97,100,130
219,496,342,173,118,87,87,110
214,379,289,138,94,73,79,108
229,440,328,157,111,85,89,124
245,452,367,163,113,83,91,127
242,480,396,185,130,98,106,132
258,440,424,199,141,104,109,128
262,436,415,201,142,106,109,125
270,406,389,188,134,101,109,130
246,472,440,210,148,116,122,146
233,443,419,206,144,115,115,144
194,414,385,183,129,105,106,146
187,443,389,184,131,106,105,149
183,451,402,194,137,108,105,142
171,366,332,158,113,90,86,123
185,363,313,135,100,79,79,115
199,363,306,132,92,73,74,104
209,376,327,136,96,77,76,101
190,320,331,113,84,70,69,87
186,365,299,110,83,67,68,83
179,366,307,107,80,62,63,80
178,372,318,123,93,73,72,100
169,411,470,155,103,80,88,119
170,399,440,155,101,80,90,122
168,351,439,154,102,80,91,126
166,382,443,157,102,80,94,128
166,416,525,169,101,79,93,122
229,393,382,149,94,72,78,112
241,395,378,145,94,69,74,137
238,391,372,142,91,68,76,139
243,356,371,142,98,72,80,142
259,348,280,112,88,64,73,135
198,274,271,99,86,62,71,122
205,384,340,144,109,79,77,96
211,395,364,151,115,89,87,107
243,454,378,160,117,92,88,111
249,433,344,158,118,90,88,107
249,472,357,165,120,90,92,114
246,424,343,148,109,84,92,120
256,423,320,143,106,77,82,107
259,439,411,142,103,75,80,113
248,421,412,137,100,75,83,118
248,379,394,121,90,71,77,111
236,368,362,120,94,75,73,100
239,385,372,130,98,75,68,95
201,314,234,118,96,71,65,83
173,328,233,119,93,68,60,73
172,351,238,120,93,69,63,76
164,331,219,98,78,53,58,70
165,347,297,123,85,66,69,92
156,322,305,125,83,65,65,85
150,311,301,124,81,66,64,85
160,353,313,128,82,66,66,97
155,376,350,139,83,69,66,98
161,383,301,119,77,60,65,89
184,384,289,118,78,60,66,91
187,388,282,117,78,58,65,92
193,371,305,122,85,66,79,96
188,337,267,111,82,63,76,96
155,295,232,97,74,58,67,83
144,317,235,99,81,62,71,88
145,338,245,101,86,63,74,101
173,364,261,117,92,69,77,116
178,366,257,112,91,65,76,116
192,373,267,121,92,68,79,121
190,389,277,120,85,65,77,116
199,390,275,126,90,68,78,112
161,317,210,104,79,55,56,95
208,346,242,115,81,60,65,103
204,333,243,113,83,59,65,102
190,277,243,108,80,55,61,102
185,297,259,109,77,58,61,103
192,303,276,117,82,66,73,100
156,315,265,116,85,69,72,99
152,339,253,117,82,68,71,96
154,344,258,130,89,73,76,98
173,358,264,136,96,72,75,93
175,388,268,134,92,66,64,86
170,365,251,130,89,65,60,80
201,380,263,125,88,65,71,91
205,380,239,111,82,60,68,88
193,344,207,95,72,57,65,82
196,352,186,96,79,62,69,74
187,331,173,84,75,55,71,73
180,308,169,85,74,51,59,74
196,359,232,100,78,53,59,82
195,351,265,107,81,57,61,81
208,308,260,98,67,52,55,81
212,323,286,101,69,51,54,88
200,347,284,100,72,53,52,83
197,297,241,102,73,62,58,83
212,354,202,93,67,57,56,85
180,358,220,96,72,55,55,83
186,348,192,97,71,55,53,78
188,357,236,112,82,64,63,78
183,368,235,103,82,58,58,72
158,332,257,108,85,58,57,67
173,372,311,138,102,73,68,88
190,386,332,145,105,79,72,93
199,377,327,146,108,83,81,103
193,390,367,166,114,89,87,114
198,451,400,175,115,93,90,115
251,442,377,163,107,85,88,110
251,454,386,170,110,84,86,106
276,465,380,164,102,78,71,97
281,452,347,143,93,70,66,89
298,387,295,132,90,67,63,97
252,356,296,120,80,62,57,93
248,318,255,100,71,57,55,89
191,260,234,88,63,50,53,83
194,324,292,113,79,61,58,87
164,302,299,112,81,60,57,79
160,339,287,112,84,61,55,74
125,343,291,115,84,61,53,71
146,346,297,122,93,67,57,72
199,344,269,127,88,66,57,84
205,349,273,131,89,66,58,83
220,348,257,131,89,65,64,86
232,346,264,127,88,66,72,97
243,397,281,119,78,60,74,98
189,371,290,98,75,54,68,81
184,374,289,90,71,51,65,82
158,342,288,81,61,46,59,88
170,369,336,93,74,59,64,87
145,361,390,107,74,60,61,88
171,340,358,101,73,60,63,89
168,331,348,103,73,61,64,88
177,327,352,106,81,64,66,78
206,303,333,106,84,56,58,75
213,236,244,92,85,56,58,71
254,229,247,100,85,57,69,91
258,219,264,96,85,57,69,89
262,223,262,102,85,58,68,91
237,241,232,91,73,56,69,87
237,258,245,103,87,59,78,95
189,307,275,106,89,59,76,83
220,343,272,115,95,63,77,88
224,347,273,110,89,60,73,87
225,353,273,115,94,62,74,84
223,341,257,112,88,62,66,76
204,285,215,104,82,59,53,63
173,272,230,103,79,60,53,55
180,285,266,111,83,62,56,58
224,378,334,150,98,72,70,103
219,378,341,152,94,70,68,106
220,387,351,152,93,70,69,109
221,417,352,164,102,78,77,116
230,411,313,157,99,75,76,120
192,330,315,124,77,60,58,85
202,342,335,120,76,60,58,79
217,345,339,116,77,59,63,81
217,328,343,108,70,50,57,72
224,350,345,142,92,65,71,93
215,326,316,135,91,72,80,98
267,329,290,130,91,84,93,108
256,316,269,126,87,83,92,111
249,317,262,115,80,78,91,114
226,340,284,98,70,73,85,98
223,341,239,100,72,68,78,95
140,319,228,107,74,57,61,85
150,342,259,122,83,64,71,80
164,318,238,120,84,65,78,82
161,280,235,112,84,65,77,71
152,281,239,111,84,65,78,65
160,295,239,107,82,61,76,61
239,321,222,112,85,66,73,98
229,318,255,116,85,69,66,101
223,291,234,104,76,65,60,99
238,280,216,103,75,63,58,102
235,269,216,107,81,69,59,103
159,305,250,124,90,73,68,84
161,302,252,129,97,73,67,89
165,316,248,128,94,71,74,100
169,322,249,125,94,74,85,105
172,331,269,121,86,70,91,109
163,243,246,79,65,53,75,96
173,248,195,60,54,53,78,88
172,234,197,59,54,54,77,83
174,359,267,87,67,56,69,75
180,380,290,108,79,62,70,83
179,404,288,117,83,65,74,84
165,393,304,114,80,61,73,81
188,404,313,120,86,62,72,80
169,328,256,106,82,59,68,76
163,287,208,86,73,51,57,60
157,249,196,71,67,48,53,61
156,247,189,73,68,47,51,65
136,265,189,74,65,47,49,64
122,220,188,71,58,46,49,67
122,222,193,78,65,53,55,85
133,256,238,89,73,55,58,89
179,296,248,94,73,59,61,97
168,270,233,90,75,58,57,95
198,311,239,111,90,69,63,98
192,308,254,116,91,66,62,91
207,308,258,111,87,63,61,91
231,391,281,135,103,73,80,97
232,413,328,135,101,77,83,98
213,387,347,125,93,69,83,97
227,435,364,127,91,69,82,97
222,444,366,137,92,73,86,99
167,351,339,113,74,61,65,85
194,405,319,118,75,61,73,107
193,424,305,114,70,58,69,117
245,424,323,113,81,66,73,124
242,446,284,102,82,66,70,133
250,449,304,109,85,68,72,133
257,413,283,105,85,64,69,127
257,396,281,106,87,68,79,120
195,361,224,101,81,60,75,114
207,406,244,111,82,60,77,103
206,420,228,109,82,63,82,100
188,453,263,107,81,63,78,104
204,484,281,108,88,68,81,102
225,511,338,144,116,95,130,144
207,447,366,152,121,97,134,149
205,457,382,154,122,97,135,154
276,478,389,185,150,118,151,167
280,516,398,187,146,115,147,169
314,532,352,163,126,99,120,166
337,585,343,164,124,99,126,179
354,622,368,177,132,108,130,192
340,624,436,198,133,108,132,191
351,637,495,230,152,123,144,204
338,647,498,232,153,124,141,193
325,628,506,234,157,128,135,181
303,581,494,221,148,119,131,175
250,615,508,217,137,111,123,165
243,619,473,208,126,104,121,159
216,603,490,215,130,106,129,169
204,573,458,213,128,103,126,163
206,592,443,223,132,106,124,156
227,552,359,200,121,98,115,149
219,509,406,220,149,114,125,155
207,474,388,209,141,106,115,145
221,521,396,202,136,104,118,156
272,571,436,219,151,114,137,185
254,538,443,213,151,112,137,187
243,518,367,173,120,90,124,196
258,526,440,204,143,113,137,185
248,532,445,203,141,108,131,173
200,459,407,172,118,93,107,144
238,471,398,192,139,111,117,147
249,452,382,181,134,109,112,117
261,456,327,153,117,91,100,141
263,457,347,153,121,97,105,146
252,466,374,157,124,96,104,140
213,436,361,126,96,75,89,139
188,434,358,126,94,72,88,162
144,441,331,114,84,64,86,173
132,399,303,121,90,66,91,176
175,440,255,119,86,67,94,191
195,452,233,112,90,68,96,197
213,458,253,112,88,65,93,186
245,448,249,114,89,70,88,156
273,495,267,107,83,68,87,158
254,487,287,116,98,73,85,139
266,543,401,140,101,78,91,127
262,542,407,147,107,80,90,118
264,539,416,151,109,79,88,134
270,521,431,167,116,82,85,138
304,653,593,218,138,95,95,151
295,609,548,220,148,103,99,155
299,626,534,221,148,106,99,153
280,614,533,221,149,105,98,142
243,579,532,215,145,105,98,133
214,411,365,171,123,96,95,123
198,402,358,154,104,83,80,109
184,364,356,146,97,79,77,105
170,439,374,150,97,78,84,110
182,469,405,147,102,77,96,135
165,441,378,123,88,69,91,136
165,426,363,132,99,77,103,151
164,420,359,127,98,74,105,154
170,357,344,116,95,74,95,141
189,369,316,119,91,76,86,122
181,347,320,130,94,75,84,115
170,354,304,111,79,62,69,90
194,399,331,124,84,67,73,104
231,420,338,146,102,83,91,116
232,373,300,138,94,74,82,115
241,373,294,132,96,77,83,117
255,371,290,132,97,78,84,127
254,335,272,128,98,79,86,119
212,310,266,102,77,65,78,105
227,287,257,98,79,74,114,112
228,311,243,92,73,72,133,145
240,341,268,97,72,78,147,165
225,360,266,91,69,74,144,164
233,339,230,87,69,73,142,164
234,405,246,91,70,68,120,163
240,386,249,102,81,75,99,140
209,352,220,99,82,68,78,116
205,339,213,99,79,67,87,129
212,344,273,115,83,71,90,132
168,296,263,112,83,68,90,124
162,294,269,107,80,62,88,114
178,334,292,130,93,73,96,123
192,350,295,131,94,74,85,108
196,417,266,125,95,71,79,105
193,489,349,148,102,74,72,103
184,497,338,145,96,69,68,104
172,475,313,122,81,57,56,86
206,487,326,126,84,56,63,100
188,453,350,126,80,53,62,101
186,378,275,95,64,47,61,100
221,426,327,117,91,68,79,116
248,498,404,149,107,84,92,137
258,522,411,154,109,86,94,139
263,554,405,168,119,95,98,142
297,577,441,180,124,96,101,151
300,601,446,190,122,91,92,141
327,606,407,181,120,83,89,145
301,604,455,203,137,92,96,164
312,569,475,198,134,89,96,169
290,534,491,214,148,105,116,172
270,546,547,212,145,103,119,177
230,509,536,212,144,104,117,178
224,493,508,196,128,101,129,163
216,512,470,191,126,100,133,162
216,535,443,166,106,86,117,152
222,506,367,155,99,85,118,154
215,480,366,140,87,80,114,133
216,504,328,125,83,71,91,128
201,472,332,121,79,71,81,125
198,503,347,132,85,75,84,125
248,512,344,165,118,98,97,130
247,524,352,194,138,111,114,145
238,471,399,196,136,110,114,148
241,473,393,193,135,111,118,145
300,492,396,199,140,112,124,170
267,431,378,166,114,92,111,165
306,447,484,239,166,127,128,179
307,441,456,241,170,127,125,169
354,497,511,293,203,154,151,214
305,423,476,292,205,153,143,200
312,455,479,301,211,158,144,204
290,462,372,235,166,130,139,212
294,465,374,235,167,135,144,215
252,399,305,167,125,100,115,169
276,443,374,194,148,119,129,179
246,395,361,177,139,108,123,169
222,332,352,167,128,96,92,137
230,382,343,182,134,97,100,152
221,414,342,183,138,101,105,167
206,365,265,142,106,77,92,154
208,403,282,142,108,77,92,156
207,399,281,141,109,78,96,161
202,356,287,114,97,72,91,145
212,356,301,129,99,74,88,138
184,338,316,121,91,68,78,128
179,308,293,119,88,70,81,137
177,349,292,132,100,77,86,121
209,411,333,154,113,83,89,133
188,394,313,138,108,76,84,122
190,400,298,137,108,75,83,124
213,481,347,149,116,81,85,117
207,463,342,145,116,82,81,117
186,436,297,131,107,75,77,118
182,439,421,155,115,79,80,116
185,461,415,159,116,81,86,129
164,377,396,154,109,73,80,126
161,356,403,153,105,67,84,137
143,368,416,147,100,66,77,128
143,350,286,116,85,59,74,129
155,325,282,109,77,56,70,116
152,320,261,95,71,56,71,115
168,341,251,93,72,61,74,113
203,290,241,90,69,60,69,101
221,271,238,92,73,60,68,95
220,273,273,95,76,62,70,95
254,309,265,113,84,71,82,107
248,352,266,105,76,63,72,93
216,349,262,108,77,62,74,95
213,406,306,111,80,66,80,115
239,471,303,119,89,74,103,182
223,446,321,116,87,71,98,175
226,416,357,119,84,74,98,180
228,430,353,117,87,75,98,180
214,409,340,116,84,72,94,171
173,321,312,110,76,64,70,110
148,328,298,111,76,62,65,118
186,375,254,119,86,65,71,117
178,357,247,122,89,67,69,112
179,338,217,120,95,70,72,108
177,328,215,112,91,67,66,99
174,312,204,102,88,65,69,100
123,224,228,84,75,54,59,85
174,244,231,82,73,53,64,92
178,221,233,78,62,47,60,90
180,249,244,80,63,53,57,81
194,307,284,90,63,58,55,68
210,333,284,101,73,65,61,90
184,303,281,97,68,64,64,114
179,321,313,100,71,65,64,116
190,349,322,108,79,67,72,126
185,384,317,109,81,62,75,130
161,361,308,102,77,57,78,139
172,382,330,106,77,57,72,120
166,387,293,106,79,62,74,121
153,390,281,103,77,58,73,115
168,366,259,108,87,66,77,113
192,375,260,114,84,63,68,90
173,371,233,114,87,65,71,98
184,387,254,118,87,62,79,119
184,400,254,122,89,62,76,119
201,385,255,109,74,56,70,122
216,386,230,97,74,57,71,120
221,382,346,99,73,57,72,124
220,378,355,114,84,69,76,105
215,342,382,106,79,66,72,99
193,318,374,117,100,73,78,112
181,316,390,123,104,76,82,113
175,360,309,120,102,72,80,106
167,338,303,116,97,67,75,118
176,313,262,114,95,67,75,120
166,299,267,101,72,56,70,107
154,377,349,112,68,53,70,124
179,390,365,118,77,58,69,118
190,392,360,112,74,54,60,102
179,392,367,114,74,53,60,102
193,436,392,125,82,56,59,96
198,375,308,117,88,64,60,77
211,336,267,105,78,58,55,79
205,339,276,95,73,53,56,93
233,366,277,97,72,54,56,92
224,348,269,87,64,49,57,114
214,412,268,80,55,40,51,112
200,403,287,97,63,47,55,109
200,393,255,94,63,48,56,102
182,412,294,120,77,60,66,109
186,414,323,128,81,65,63,85
188,367,315,132,80,63,80,104
162,406,338,152,95,71,91,116
157,423,366,168,109,80,93,114
147,379,331,149,102,73,89,108
166,401,289,144,103,73,90,110
167,375,296,140,102,76,96,137
182,351,256,115,89,72,87,131
215,360,224,93,70,63,84,134
211,365,212,90,67,60,82,137
224,349,275,95,64,58,82,136
225,341,302,90,63,54,64,124
209,320,359,81,59,45,63,124
178,283,385,89,61,44,62,122
181,302,415,96,62,46,64,121
169,292,372,106,69,48,63,136
199,322,370,124,86,64,72,114
210,302,314,124,88,71,78,121
207,304,282,120,90,70,77,118
217,305,252,121,92,72,76,115
189,277,246,109,96,73,74,97
149,237,264,99,83,63,60,91
133,230,250,100,79,60,57,84
159,301,258,103,80,64,64,90
188,318,267,101,81,63,65,97
184,300,261,93,75,58,63,98
178,302,207,84,75,60,61,95
180,311,216,79,75,56,63,130
183,287,202,76,71,52,57,130
152,260,235,75,68,52,56,126
160,256,235,77,61,50,56,125
172,255,254,77,59,45,57,121
187,312,332,95,68,44,50,87
177,296,349,110,89,56,63,88
171,295,331,116,91,59,64,90
160,306,443,134,93,59,64,86
165,352,460,142,95,58,64,86
161,331,467,135,90,58,62,93
149,330,453,123,74,50,55,107
165,320,434,112,71,45,55,111
165,326,350,90,68,46,55,111
170,325,337,98,79,55,60,114
184,302,251,94,78,54,61,109
189,330,273,110,84,59,76,106
172,331,315,112,85,61,74,101
180,329,323,109,85,63,76,107
163,292,291,95,80,61,72,101
133,275,278,92,82,61,70,92
143,274,342,103,87,62,54,82
152,310,346,101,87,61,59,94
150,319,348,104,87,58,62,102
155,317,352,104,83,56,59,100
154,315,358,102,79,55,58,97
130,291,308,79,64,49,54,95
111,245,289,85,63,48,49,86
100,217,242,79,58,47,44,69
85,209,261,73,56,43,50,77
144,331,300,120,76,59,76,116
152,296,289,114,74,55,76,116
174,313,269,113,78,57,80,116
184,384,272,118,82,59,79,117
190,391,270,127,82,60,80,117
181,356,236,102,79,56,62,96
194,376,215,105,81,57,61,93
187,387,231,108,81,60,66,100
215,342,232,110,83,63,67,102
218,350,236,103,84,64,64,102
209,300,225,84,71,50,58,88
223,283,219,75,70,52,61,92
263,299,244,78,75,56,68,99
239,301,246,73,70,54,65,104
269,292,222,70,66,52,64,105
269,288,271,75,73,57,65,110
250,291,305,77,70,58,61,122
194,258,301,80,66,53,46,107
201,259,310,93,70,58,56,108
153,254,320,98,72,60,57,103
143,251,287,96,70,57,56,98
133,252,280,105,92,63,64,73
156,264,277,100,95,58,71,106
158,237,258,80,90,54,65,99
170,250,266,90,90,54,65,101
170,282,272,92,89,55,65,101
195,323,308,92,76,48,64,118
190,299,291,89,68,53,55,93
189,304,331,100,76,55,55,92
193,290,347,93,76,53,53,90
180,259,333,91,75,50,52,90
231,308,321,93,71,55,52,84
220,305,326,93,70,53,60,96
227,305,287,86,68,52,60,97
212,310,257,78,64,51,68,110
225,328,269,77,61,51,68,111
163,287,264,83,62,52,66,98
162,298,252,80,67,54,61,87
137,292,254,80,67,55,63,98
158,298,252,84,68,57,62,91
189,290,276,99,74,64,73,119
188,247,253,89,71,61,71,120
191,273,266,98,68,60,69,120
199,286,261,95,63,56,66,116
201,318,269,94,64,58,75,133
163,335,352,97,60,51,65,112
147,325,353,98,62,50,63,109
156,310,340,94,60,49,64,107
144,303,342,99,69,55,66,101
195,285,405,119,77,60,53,74
189,253,333,108,76,60,55,71
200,275,316,101,72,60,58,85
196,262,312,96,70,59,57,86
218,254,349,98,66,56,56,92
187,257,268,75,54,50,63,98
200,271,238,77,65,54,67,117
226,259,275,79,68,54,67,111
233,263,285,91,78,61,69,109
226,301,237,90,80,63,77,111
226,285,227,90,86,66,69,100
226,266,257,85,79,60,64,80
206,275,273,101,87,64,67,93
216,301,272,109,86,63,68,95
216,256,269,104,83,60,58,95
196,251,270,103,77,54,58,105
232,295,276,105,82,58,63,112
223,279,243,87,66,52,54,102
209,250,229,62,58,42,48,101
195,252,226,59,58,45,50,92
207,265,249,69,61,49,54,89
190,249,243,81,64,51,58,94
189,261,222,84,66,52,61,101
185,247,222,82,65,55,62,98
197,315,256,105,76,62,74,113
186,299,246,103,75,61,79,122
168,304,219,91,69,57,72,108
163,312,221,89,68,54,70,98
167,340,244,95,67,55,69,98
191,279,226,72,55,42,59,94
205,279,223,75,58,42,57,92
194,257,227,75,60,45,58,89
196,228,221,77,60,47,58,90
189,196,213,75,61,48,63,93
163,255,210,83,63,51,69,116
166,249,207,74,55,49,63,111
155,240,191,73,54,47,65,124
162,248,182,71,57,50,64,125
209,274,169,72,56,46,61,125
217,239,162,74,57,45,51,97
195,234,153,69,53,42,48,94
206,239,158,68,50,41,56,113
221,245,196,72,50,39,58,122
185,254,205,73,53,41,61,124
167,237,203,67,55,42,62,128
192,233,203,73,62,49,66,132
220,231,202,72,63,50,64,124
218,211,186,67,61,46,63,116
212,176,194,72,65,50,62,115
233,192,189,78,73,52,61,114
221,220,177,82,76,53,64,123
194,233,185,81,76,52,58,110
191,247,201,88,80,57,63,109
187,229,190,81,74,53,59,104
170,216,195,67,62,48,56,101
202,197,213,71,56,43,50,98
193,246,207,79,61,50,61,102
208,248,210,76,59,53,60,107
228,253,205,73,59,55,64,128
222,253,197,76,57,56,77,143
189,263,195,69,56,59,85,140
191,229,232,80,54,56,77,132
152,213,208,75,55,53,74,129
126,264,219,83,60,53,72,109
134,322,229,101,78,58,64,91
169,329,231,113,85,58,56,93
166,341,258,104,85,56,55,91
173,344,256,104,80,51,52,87
179,353,249,106,83,52,57,91
185,350,250,94,71,47,52,92
169,336,240,85,65,41,59,94
215,300,162,84,66,44,63,111
212,296,162,82,68,49,66,112
219,258,161,84,74,54,64,110
222,230,183,94,80,59,72,111
227,247,178,91,80,63,67,96
201,254,184,91,77,61,66,75
213,295,191,98,80,60,69,80
197,281,187,89,67,51,68,75
175,247,181,76,58,46,57,71
140,232,176,68,49,40,52,64
145,255,179,77,57,44,52,88
178,214,188,72,53,43,46,82
186,252,193,80,68,56,61,96
196,283,166,74,66,53,67,105
258,303,183,83,71,55,74,106
256,285,192,77,68,53,74,107
225,314,182,82,73,58,87,124
220,280,167,77,67,48,80,118
215,266,182,82,73,53,77,111
178,294,187,87,75,57,76,114
169,299,174,85,72,54,74,99
174,270,179,79,69,50,57,78
199,390,195,86,67,54,67,119
196,395,193,81,62,51,66,119
161,373,184,75,60,46,62,120
207,399,204,76,62,47,60,118
213,439,246,107,76,56,67,124
235,371,243,107,76,50,54,85
258,433,272,114,83,55,61,102
262,430,272,126,92,67,77,121
221,403,256,123,91,66,78,121
209,366,206,96,84,64,75,114
181,349,203,93,87,66,76,111
195,292,162,93,86,67,75,97
189,291,164,74,79,55,57,68
188,308,203,89,80,58,69,83
236,319,219,91,75,54,75,87
233,390,221,92,70,51,76,86
209,379,221,93,68,48,82,102
214,391,261,97,65,48,82,103
218,395,244,94,72,52,75,95
201,415,261,108,80,58,74,99
197,347,255,106,77,60,74,110
205,318,244,98,72,58,67,114
201,305,220,92,68,55,68,113
247,325,239,103,72,57,73,126
221,291,200,89,64,49,65,123
221,274,196,84,65,46,62,114
196,275,198,87,74,50,53,91
208,321,215,98,76,54,54,100
203,355,207,86,67,52,61,90
212,357,234,90,66,53,61,91
201,371,248,90,67,55,60,90
208,388,258,94,63,55,66,95
215,380,227,83,63,57,73,85
189,348,291,115,68,59,70,88
184,332,283,112,68,60,72,83
212,330,275,115,69,58,71,96
214,363,297,124,74,61,74,114
241,465,348,183,113,91,98,133
231,455,281,164,112,91,103,147
235,484,288,177,119,95,107,155
243,515,293,177,119,97,112,152
247,489,278,173,122,98,109,145
204,377,215,115,88,70,84,132
220,373,231,124,94,72,80,135
255,387,222,106,86,68,86,144
235,403,221,108,89,70,86,151
227,393,197,106,89,68,86,150
231,405,200,107,91,67,87,148
213,465,182,95,83,62,84,135
174,447,204,100,87,62,76,124
160,415,212,116,95,64,77,118
160,417,217,112,88,62,80,124
188,448,233,124,91,69,92,138
180,376,246,120,87,67,88,130
169,352,229,116,84,67,87,123
191,321,219,95,68,59,89,144
192,368,238,101,71,60,84,133
186,379,304,96,68,55,75,124
191,396,298,97,69,55,75,133
191,402,302,92,63,51,74,137
174,414,310,100,66,51,77,121
188,405,302,96,59,48,80,148
239,342,250,90,58,46,75,159
239,366,254,85,58,44,71,147
243,371,242,90,63,45,72,144
243,401,245,86,66,48,61,136
271,385,245,87,72,53,72,146
211,371,208,79,66,48,71,131
203,413,250,101,74,56,77,136
225,492,295,126,90,72,89,150
228,458,283,129,95,75,93,161
199,461,294,132,97,77,86,130
213,472,299,141,106,80,88,135
215,427,254,127,101,75,84,132
190,327,202,109,87,64,73,116
205,388,210,107,85,58,69,102
187,416,191,103,78,53,62,109
186,437,184,100,80,57,72,125
193,417,218,106,80,58,72,124
182,419,233,103,81,54,78,140
177,403,251,113,88,63,85,141
177,359,250,112,88,64,87,137
188,371,277,114,86,68,88,131
180,353,265,111,88,68,86,128
184,393,278,123,100,77,89,122
168,367,279,107,88,70,79,115
165,392,290,126,104,76,82,111
134,350,273,119,100,70,75,108
132,358,277,119,100,71,80,120
133,354,309,107,87,63,71,116
146,370,389,129,97,69,74,120
164,341,383,118,87,64,81,127
151,334,381,114,80,58,82,141
161,363,375,110,76,59,83,135
164,318,335,107,75,62,86,131
177,291,208,84,74,58,85,129
160,296,198,70,68,54,75,128
173,291,186,77,75,63,84,139
160,244,167,81,77,59,81,141
169,336,178,92,76,58,78,141
152,367,245,119,86,67,86,144
177,400,290,149,97,80,91,145
170,396,297,146,96,74,74,105
198,427,305,143,96,77,75,111
199,375,314,138,96,77,83,140
195,357,273,117,85,67,77,144
212,335,236,84,78,60,68,139
217,344,229,85,79,62,71,143
216,319,239,92,78,62,69,135
209,285,215,97,78,61,57,109
201,244,200,90,71,58,49,94
180,387,264,114,84,67,66,93
170,381,265,111,81,65,62,96
142,414,273,116,84,64,68,101
144,553,323,128,91,67,70,92
157,573,341,139,98,75,82,118
161,488,301,117,77,61,73,116
167,495,302,119,80,60,74,112
166,461,283,110,77,61,70,110
154,300,231,92,68,55,68,109
162,286,211,78,57,48,64,86
130,251,186,72,56,47,60,79
135,254,185,73,56,47,62,77
132,258,179,77,57,47,61,67
133,253,147,68,54,47,58,65
117,267,171,77,58,47,55,68
131,268,166,78,55,43,61,110
124,267,178,77,50,42,64,120
146,327,239,95,63,50,66,121
147,337,255,101,68,50,66,121
137,314,235,93,71,50,60,117
128,323,237,92,73,53,59,96
141,362,250,95,77,59,65,93
128,337,203,77,66,52,67,102
139,353,185,84,69,58,72,105
141,359,229,112,83,70,76,107
137,351,232,117,86,74,88,119
136,333,270,117,86,73,82,114
146,312,285,117,87,74,82,109
152,284,310,122,93,75,87,120
151,266,278,94,76,61,84,123
159,290,287,90,73,56,70,114
192,392,245,101,81,62,83,140
185,403,246,106,83,68,84,148
175,423,236,99,75,64,75,140
173,429,237,103,78,64,75,138
196,471,263,117,81,70,86,142
157,374,264,111,72,62,76,125
173,356,250,107,68,53,71,116
179,331,249,110,77,61,78,117
183,327,254,114,78,65,84,123
167,287,230,100,74,58,76,112
163,320,291,109,85,66,80,111
140,311,286,107,85,67,83,110
122,299,282,94,73,57,75,111
114,302,282,93,69,52,68,105
162,323,284,101,77,61,69,108
170,282,223,85,67,52,55,89
178,285,224,98,76,57,58,104
178,282,210,98,74,57,57,97
188,302,218,100,75,59,59,97
133,258,203,89,66,51,50,84
110,245,192,83,59,47,51,91
173,254,189,73,54,48,54,98
190,260,187,81,67,54,58,110
197,328,204,88,76,57,62,115
215,305,203,98,81,60,73,121
240,338,187,104,92,66,75,117
193,354,182,100,89,61,66,95
177,360,203,118,99,70,66,84
163,330,188,111,94,69,68,81
165,326,190,105,89,66,61,73
139,308,264,105,85,66,65,72
159,281,264,104,85,68,66,74
169,305,293,82,62,52,62,74
169,309,313,78,60,50,56,66
147,316,317,81,62,51,59,83
138,348,262,75,60,47,65,106
130,362,276,112,77,63,93,144
172,364,230,106,78,64,94,146
175,311,180,107,76,63,94,149
171,300,169,103,75,61,91,143
200,282,180,111,82,72,102,166
194,332,189,91,78,64,87,144
206,317,205,106,88,67,91,154
207,311,206,114,88,67,91,155
219,331,209,123,91,69,92,158
216,335,205,115,85,57,75,123
213,268,179,104,74,51,65,111
158,249,155,90,61,43,60,93
170,277,167,80,63,47,74,114
164,325,187,70,58,43,72,116
141,303,176,73,54,43,72,113
139,306,174,68,51,37,69,114
139,309,168,69,51,40,68,115
154,335,167,71,51,38,54,87
153,278,159,73,50,36,56,79
150,294,179,73,51,34,59,86
153,281,177,75,51,37,61,86
151,298,182,76,54,35,62,98
124,277,183,73,55,39,60,100
124,332,195,81,66,47,61,99
124,369,206,99,73,54,63,113
116,373,215,100,75,53,62,115
114,351,217,101,75,55,67,107
92,333,214,100,74,54,65,103
101,343,232,98,68,54,64,106
150,271,227,105,68,52,57,90
158,283,216,127,78,59,56,99
163,303,223,127,80,60,54,97
169,336,261,135,90,64,56,96
162,272,252,129,86,60,57,92
112,272,235,110,80,55,51,82
106,289,231,83,68,46,51,65
146,278,232,88,71,44,57,103
155,243,190,76,59,38,54,105
164,279,187,86,75,53,58,107
161,284,184,86,77,55,60,106
166,297,216,92,77,56,61,105
128,303,206,90,78,58,54,74
125,304,202,88,76,57,55,75
111,275,194,86,69,45,49,71
114,294,206,89,70,45,50,71
117,358,238,102,80,52,69,127
113,358,238,108,74,48,72,152
106,409,264,128,81,51,74,157
102,407,296,127,79,52,73,161
112,395,300,126,77,52,79,170
98,315,264,110,65,46,63,138
104,339,275,109,72,52,61,119
112,281,264,86,69,53,66,113
122,314,207,84,70,55,74,115
136,326,194,82,73,57,67,105
147,372,215,88,76,60,71,103
147,348,223,83,72,55,67,90
142,372,273,84,74,55,65,98
128,331,277,78,69,50,59,106
107,383,299,80,65,45,65,106
95,359,278,79,65,42,60,101
93,357,286,80,65,49,60,103
84,316,235,82,61,44,55,98
101,319,233,88,71,47,56,88
101,280,199,89,76,52,52,95
116,254,202,90,76,54,54,95
115,268,173,89,75,51,59,94
116,266,164,88,75,53,57,86
105,273,160,87,68,51,54,73
102,274,161,81,60,46,56,75
87,264,174,81,60,46,59,89
85,261,172,77,60,45,58,98
87,296,178,80,60,46,59,98
85,295,220,82,61,48,64,103
81,278,252,88,62,50,59,96
74,276,244,80,58,47,53,83
74,260,242,85,58,49,60,91
69,216,238,82,57,47,62,101
81,252,226,90,57,46,55,101
82,234,208,81,57,44,57,102
87,230,211,83,58,42,62,102
97,294,240,86,60,48,58,88
97,305,266,86,59,47,54,78
110,365,271,86,67,59,71,92
116,365,267,100,77,66,76,109
112,373,264,97,77,66,72,110
104,326,245,96,78,63,71,106
106,336,239,97,78,63,73,103
84,233,207,83,66,50,57,89
78,218,197,69,55,42,56,92
82,219,192,70,56,43,58,89
78,218,211,68,54,42,52,90
75,216,173,61,50,40,49,90
74,248,211,77,67,52,57,90
70,253,214,82,71,51,60,83
66,247,255,84,71,50,62,84
112,255,234,83,69,51,73,109
124,254,240,87,71,51,74,110
156,274,219,86,69,47,69,115
160,268,216,84,67,48,61,104
160,253,173,85,69,51,65,112
136,299,231,108,82,61,60,89
128,313,245,116,86,64,68,100
85,268,244,117,79,61,67,102
79,270,270,115,78,59,67,99
82,268,266,113,75,58,65,95
105,259,217,95,68,57,72,101
101,227,224,85,65,55,69,95
103,235,216,76,67,58,73,96
109,320,193,81,72,60,75,96
109,322,210,82,72,61,69,90
97,290,215,74,63,51,60,86
122,335,191,76,67,54,62,98
123,338,186,73,65,52,57,92
118,270,176,62,56,48,56,97
117,315,165,61,57,45,58,101
103,319,154,54,53,43,56,97
70,267,166,50,50,38,46,75
63,277,167,61,59,44,48,77
87,282,193,71,65,47,53,91
109,312,231,75,66,47,52,105
112,311,229,77,68,50,51,110
118,319,219,75,65,49,52,113
121,319,236,79,65,50,63,118
122,333,229,74,62,49,58,104
110,273,192,79,68,51,63,92
126,288,208,93,82,61,69,94
122,274,209,98,86,62,69,92
150,348,259,120,87,65,69,103
138,322,266,124,92,70,69,101
162,329,263,123,90,70,72,99
160,355,264,120,85,66,76,114
171,387,279,122,87,70,88,140
149,333,232,100,83,67,85,126
147,326,207,95,79,61,84,128
111,312,222,92,76,59,77,123
93,263,212,82,67,54,71,107
99,274,222,81,65,51,69,97
90,236,240,71,60,47,64,92
87,241,246,71,57,46,62,88
91,260,244,69,56,44,65,90
99,289,263,79,65,48,65,88
108,290,258,76,62,49,63,76
112,320,240,81,67,53,63,80
114,323,233,81,68,55,62,80
117,315,212,82,68,56,62,85
128,287,218,76,59,51,72,101
105,232,249,78,58,50,62,86
99,185,233,68,48,42,58,84
103,188,286,70,46,41,61,86
96,165,288,73,47,42,61,76
107,352,286,83,58,51,50,70
105,353,273,79,56,48,50,75
111,371,287,87,61,49,50,79
115,404,242,85,60,48,47,77
136,471,252,97,69,57,57,88
111,359,224,87,61,50,61,94
113,369,194,87,63,57,65,92
130,431,248,94,70,67,71,96
138,428,243,106,83,74,77,99
118,356,228,91,82,67,69,89
126,371,252,99,94,75,65,65
132,403,268,110,106,79,69,68
121,386,221,118,109,80,69,64
117,409,337,141,112,82,69,62
119,416,350,147,114,88,71,68
127,456,350,150,112,91,86,100
136,448,372,159,107,87,87,102
135,430,373,149,98,79,84,105
135,427,319,130,87,72,82,107
153,487,352,133,87,75,84,109
140,437,352,126,74,63,65,79
163,513,366,141,88,74,68,84
156,506,370,144,98,77,71,77
153,487,398,144,97,76,68,72
137,435,372,137,91,68,61,65
144,440,377,142,96,70,65,69
137,392,397,138,91,64,63,70
137,366,387,134,84,61,58,67
129,338,342,130,87,61,59,70
142,349,374,151,106,72,70,83
147,424,394,158,108,72,70,87
150,402,315,141,109,79,67,81
164,434,428,156,118,84,71,86
170,441,437,160,116,85,69,83
155,426,411,140,96,73,58,68
158,368,408,141,98,76,60,80
136,375,413,142,93,69,63,85
119,345,315,121,81,63,57,80
114,371,305,108,80,67,57,82
131,384,299,115,91,73,61,88
117,378,289,100,83,66,57,68
130,356,313,103,81,68,55,74
130,343,323,106,77,65,56,78
136,307,331,111,78,66,60,78
143,317,333,111,77,68,60,79
149,336,333,115,79,69,60,80
129,323,315,102,73,61,52,64
132,340,306,104,77,64,55,65
134,341,279,98,74,57,49,67
123,351,299,111,78,59,55,62
114,350,272,106,77,62,56,62
112,339,267,110,77,61,54,59
146,423,327,137,86,64,55,61
145,434,348,142,92,71,61,60
141,413,330,134,84,64,54,57
142,381,343,139,82,60,52,57
139,365,351,133,79,60,55,57
96,245,268,97,65,60,52,47
86,220,231,93,60,62,47,40
76,209,244,95,64,61,46,42
115,208,251,91,68,63,61,82
132,246,244,100,74,64,59,88
