216,618,462,127,104,39,63,56
174,623,440,120,109,40,64,56
177,597,412,155,103,40,59,55
186,614,366,159,76,41,52,57
152,607,352,155,72,43,52,55
151,575,351,154,73,43,74,58
147,562,377,163,65,44,77,57
143,501,351,114,59,46,84,56
133,453,320,104,54,46,85,47
126,444,295,101,62,43,82,45
140,462,305,112,66,45,62,39
157,412,260,98,64,45,63,42
157,421,247,93,66,40,53,51
154,438,243,108,67,44,51,57
167,430,241,108,61,44,54,59
157,485,247,107,54,42,51,57
148,654,345,149,76,46,53,60
159,706,441,176,93,49,54,61
164,684,521,174,145,45,58,55
161,713,549,181,153,53,58,57
158,727,558,181,173,56,58,59
150,689,570,163,187,54,88,60
138,753,532,135,182,57,92,56
130,852,515,135,150,57,89,61
139,886,502,134,146,52,93,64
184,849,495,129,125,48,93,64
182,761,417,108,87,45,60,60
187,633,452,138,85,42,56,61
209,476,510,144,74,45,59,56
200,382,529,141,64,48,61,55
166,349,544,144,65,51,78,53
172,324,568,164,77,57,78,59
177,333,546,144,125,59,84,59
158,431,480,138,141,57,82,60
173,476,478,142,184,54,99,61
211,581,479,197,189,58,95,70
208,655,487,193,185,55,100,66
215,725,474,192,159,50,92,62
266,713,454,190,146,53,97,63
262,705,445,192,93,56,84,54
235,665,430,131,79,48,71,48
231,660,417,126,108,46,65,44
257,731,419,179,122,52,76,46
208,773,408,178,140,49,70,54
201,772,392,185,143,45,73,66
234,745,394,193,151,49,83,67
239,699,376,195,147,51,87,73
202,537,354,140,139,45,78,79
207,400,346,150,126,51,81,73
215,346,370,145,132,56,76,81
220,303,346,132,129,56,70,79
218,258,359,125,124,58,68,78
228,236,369,128,139,60,73,72
233,210,352,115,148,53,71,70
227,418,331,117,150,53,82,63
195,554,328,118,154,53,81,61
210,649,308,143,150,56,85,54
185,703,287,148,129,51,82,57
173,765,281,152,109,58,101,64
172,708,252,140,90,56,92,72
151,632,244,143,76,56,94,77
141,581,261,118,64,51,91,77
186,535,303,110,60,51,93,79
183,467,302,97,60,46,80,73
193,424,336,108,58,45,74,55
196,435,342,98,54,40,73,57
227,425,325,100,57,37,75,58
217,456,281,114,56,40,74,52
212,481,293,118,55,39,69,52
200,574,311,118,74,45,68,68
206,771,304,118,115,47,68,61
158,790,282,111,125,51,64,62
122,788,327,104,134,51,62,65
126,790,326,105,144,51,54,66
165,740,288,100,145,55,55,51
158,546,315,103,131,58,65,47
173,518,365,110,133,60,70,55
210,567,356,109,131,62,112,54
258,652,361,102,127,64,122,56
277,758,354,103,128,62,137,56
278,770,339,101,120,63,138,56
276,778,311,103,110,65,137,49
258,743,327,106,102,69,121,59
241,634,314,115,94,68,127,57
244,480,368,113,78,64,130,62
265,416,350,115,62,60,122,63
260,359,340,112,58,56,126,66
279,322,288,107,59,47,116,57
265,348,317,109,70,48,105,59
230,317,261,108,76,46,85,53
210,290,309,112,101,46,86,52
225,263,334,109,109,41,99,47
203,465,375,111,170,58,141,48
218,607,383,125,189,86,174,44
284,689,457,135,189,101,204,43
288,742,430,149,180,103,224,47
284,793,411,150,176,109,240,46
315,705,409,151,121,104,222,51
323,601,407,143,87,80,202,52
281,539,352,147,83,65,173,60
320,494,382,138,86,76,159,58
320,446,385,142,85,67,124,58
283,456,342,135,79,64,128,52
288,454,374,136,74,65,122,51
267,444,397,122,74,64,124,37
224,422,387,120,74,46,108,34
215,403,396,122,75,50,116,45
235,435,423,131,105,60,116,44
197,539,401,121,165,66,117,54
244,610,356,115,167,76,114,56
249,652,339,127,169,84,135,57
250,670,400,119,171,87,135,51
229,647,395,113,168,82,127,54
250,571,402,135,130,84,136,48
258,540,419,156,144,74,139,53
247,589,432,147,143,70,125,57
265,671,395,146,150,64,113,55
273,752,396,155,137,62,116,55
280,807,394,140,120,55,105,54
246,792,368,121,99,62,96,49
269,733,375,112,96,80,97,49
258,643,439,135,79,92,98,48
365,522,445,123,75,96,104,50
351,397,439,128,78,106,99,50
346,351,470,132,74,103,102,49
371,315,472,139,86,88,98,55
367,289,429,132,88,79,101,56
268,266,440,131,109,77,90,54
284,250,426,131,112,60,85,53
282,516,390,127,150,56,83,54
216,645,375,127,169,57,76,43
214,700,324,113,176,65,88,47
220,771,316,124,169,70,86,53
208,805,319,121,168,77,89,55
207,696,321,118,136,79,90,51
224,626,361,114,101,77,92,51
267,649,367,133,90,78,83,50
253,619,343,122,83,72,119,46
260,594,343,120,72,67,117,44
254,561,366,121,72,78,122,56
271,549,341,120,70,86,130,57
254,461,335,104,68,78,126,57
283,446,324,105,70,83,87,53
261,461,314,105,73,85,88,55
299,526,310,103,95,78,71,46
301,739,315,105,146,73,66,44
297,759,349,105,149,87,59,42
272,759,367,105,157,92,64,51
272,748,388,103,160,111,68,54
280,718,399,113,163,108,71,57
243,493,442,127,128,108,62,60
263,494,434,134,128,100,70,62
268,531,430,131,129,106,72,58
339,625,422,134,131,90,71,61
310,722,410,133,117,91,75,56
324,771,364,128,123,90,72,55
309,823,373,126,119,86,68,53
301,787,359,136,105,78,60,50
226,711,388,148,100,71,79,43
257,606,419,154,92,81,81,44
307,506,416,150,82,86,82,41
291,356,386,141,85,89,78,42
323,322,446,139,80,82,76,40
330,293,457,127,95,95,56,42
355,257,438,118,124,85,62,45
303,242,424,113,141,79,60,45
324,519,426,113,153,74,63,47
294,661,375,109,170,90,67,54
291,740,314,104,166,79,66,53
282,774,281,96,147,88,51,52
284,796,273,86,125,91,55,51
267,681,261,85,107,100,64,49
261,545,260,85,79,91,62,41
282,461,239,89,67,88,58,47
214,406,232,93,69,75,56,45
212,474,315,113,76,70,52,46
231,432,327,121,72,87,50,48
248,442,310,113,72,90,48,47
232,439,316,116,74,96,59,40
280,444,306,116,74,100,60,45
282,349,215,106,73,101,62,43
258,350,204,117,78,83,53,42
267,361,240,146,84,73,54,45
248,364,228,141,82,65,66,47
244,406,224,137,88,62,66,42
243,386,241,150,86,66,65,42
267,516,231,136,91,57,63,42
278,610,275,108,128,64,64,46
275,705,292,107,152,69,47,44
251,787,303,116,168,76,47,43
263,948,306,106,193,76,46,44
243,996,367,118,212,78,49,46
221,951,333,115,195,83,53,41
217,907,318,115,186,80,45,42
200,835,336,120,169,71,44,41
175,678,336,107,138,67,45,40
197,516,287,92,102,66,44,36
176,485,252,93,91,51,34,34
190,440,294,107,69,51,35,32
200,424,293,108,70,54,38,39
209,421,304,112,70,62,48,36
186,401,288,114,65,59,46,36
188,421,305,120,65,58,48,35
189,394,258,107,68,57,50,38
202,373,236,104,69,63,46,35
208,328,205,100,66,58,38,39
206,375,202,95,77,62,46,40
204,344,189,94,73,62,44,40
210,334,214,91,69,60,43,34
177,373,214,74,73,62,45,34
159,389,212,93,82,66,42,36
215,479,225,91,86,68,41,38
259,652,255,92,136,66,42,42
252,716,273,100,148,73,43,55
271,734,285,101,156,68,53,67
278,811,345,94,169,70,54,71
254,777,357,95,176,68,50,71
208,690,346,99,146,68,54,70
222,651,334,103,142,63,56,62
214,650,348,114,133,57,51,50
253,553,299,118,119,52,55,41
234,504,280,123,103,49,54,41
267,449,320,122,103,53,49,40
264,431,317,113,100,52,55,39
275,496,297,104,123,54,52,47
232,701,282,116,159,55,51,46
235,827,307,122,186,63,51,46
214,935,263,124,196,64,53,46
206,1031,304,135,211,65,46,46
197,1111,305,151,202,64,50,38
210,1061,363,139,188,60,46,38
211,1002,347,136,166,51,46,41
234,918,352,134,160,44,43,40
226,822,310,122,133,42,46,52
210,636,313,111,122,42,44,52
260,506,267,107,96,49,44,51
286,456,273,103,94,49,44,51
252,417,254,99,80,49,42,48
261,401,271,99,82,48,37,33
279,383,262,97,83,47,31,30
241,390,258,96,78,42,35,36
214,366,248,94,66,57,37,77
222,366,276,89,62,55,39,86
275,341,259,92,60,56,39,88
273,376,251,82,57,55,40,97
263,393,230,80,61,54,36,99
277,384,223,76,63,35,32,109
277,377,202,77,62,38,35,118
228,385,204,72,61,34,40,129
265,451,209,72,94,38,40,125
263,677,220,65,135,39,46,124
268,722,226,75,147,42,48,97
274,737,283,73,161,41,44,85
283,764,301,80,174,44,40,68
231,734,301,83,164,42,37,65
232,563,300,94,140,45,36,63
280,546,307,86,128,45,34,59
296,598,270,101,115,44,35,49
272,647,249,110,118,42,33,46
284,752,268,116,141,44,35,49
280,737,273,122,151,41,37,53
243,725,269,122,161,41,37,54
267,663,250,113,165,43,39,59
296,602,273,107,158,51,44,57
289,510,257,101,147,50,48,52
292,591,243,98,142,51,43,44
300,669,226,109,136,50,50,40
264,715,228,109,128,53,51,42
247,718,199,102,121,47,48,49
261,673,176,100,105,46,43,53
265,577,194,96,90,47,49,56
242,447,195,110,99,48,42,58
277,381,182,116,98,41,38,53
284,333,184,122,107,45,39,49
284,332,194,123,110,45,41,46
280,324,180,124,110,46,37,51
265,317,182,118,104,48,36,53
300,284,198,111,104,50,42,56
296,261,189,102,98,47,42,55
294,190,199,105,101,50,45,53
334,365,212,105,164,45,45,45
336,540,266,90,173,46,47,43
278,622,281,94,178,47,45,39
288,674,288,95,174,45,43,36
290,730,279,90,169,50,49,40
242,707,276,87,106,51,46,42
257,629,246,95,92,50,44,37
255,564,211,99,84,55,44,37
234,546,213,106,89,55,46,40
232,504,219,109,92,47,43,36
229,455,212,105,90,46,49,36
228,426,186,95,83,43,50,41
217,434,206,96,89,35,48,39
221,385,209,104,88,34,46,36
198,405,210,102,88,35,41,37
249,416,202,97,86,36,41,36
260,445,226,95,80,33,42,36
257,439,204,95,79,35,41,42
244,477,196,80,76,40,41,45
281,478,196,79,70,40,49,48
242,486,212,78,65,39,43,46
205,472,178,92,75,39,43,43
259,482,186,83,68,40,43,37
282,474,203,80,67,35,43,32
248,455,199,86,67,35,30,29
238,455,199,95,73,34,36,30
299,425,201,86,66,37,34,37
255,435,203,91,67,33,32,36
227,435,193,96,66,40,33,38
245,441,239,92,70,38,33,37
272,421,224,92,73,42,25,38
221,451,235,96,75,47,43,32
223,482,245,96,73,47,43,34
240,459,233,96,82,41,44,41
229,476,195,107,81,43,45,46
221,464,210,103,74,42,48,53
240,436,243,98,77,40,33,53
236,381,229,95,75,40,34,57
220,410,236,96,65,42,32,52
223,375,245,91,70,41,31,48
220,407,239,93,70,40,28,41
178,424,229,97,67,39,28,41
186,443,249,105,73,44,30,38
189,418,253,113,87,46,30,43
188,438,233,106,88,46,30,43
196,425,224,100,86,45,28,41
210,421,213,99,82,43,28,49
210,398,197,89,76,39,31,51
223,402,181,74,54,36,33,47
232,387,178,77,50,36,32,47
216,388,184,91,55,37,35,47
209,387,170,90,62,39,34,37
223,385,166,95,65,41,28,32
216,385,192,96,66,43,28,41
237,389,195,101,67,41,27,42
235,363,205,98,70,43,27,42
231,345,206,99,68,44,34,48
211,369,214,91,76,43,35,54
206,369,217,105,89,50,38,48
181,348,218,108,91,52,40,49
183,370,218,103,89,50,39,50
192,393,212,105,86,47,38,51
238,396,249,127,79,49,43,46
238,466,232,121,72,41,45,56
235,504,236,130,96,54,46,63
240,536,247,144,103,59,57,69
266,529,269,145,107,60,61,72
226,521,229,140,108,57,62,73
263,495,238,140,106,60,62,66
267,510,247,134,84,50,69,64
263,529,255,133,91,48,63,57
235,527,269,139,90,47,58,51
281,559,295,140,90,50,71,58
279,535,305,136,87,49,69,70
266,493,340,130,89,47,60,67
286,460,325,121,86,45,57,66
310,504,343,112,90,48,65,71
280,473,328,105,94,50,43,67
270,483,327,103,96,50,45,58
287,485,294,98,90,49,51,55
309,457,317,97,78,47,56,67
295,430,266,108,86,50,52,65
306,410,279,102,83,47,55,68
300,427,279,115,90,50,57,71
299,447,304,123,101,59,64,73
290,460,350,120,114,64,63,65
289,642,383,124,139,69,66,62
303,696,377,126,157,70,79,56
284,702,376,116,162,70,81,55
344,700,377,111,166,61,73,71
328,704,329,118,170,58,76,79
317,516,289,113,149,51,74,77
282,423,282,109,137,53,70,81
333,344,263,113,132,51,74,82
250,282,239,113,122,51,78,68
239,206,236,112,103,49,76,65
240,182,267,100,112,48,73,66
249,216,271,100,106,53,84,61
245,471,302,101,130,52,79,67
255,624,293,95,148,55,81,66
276,670,276,108,159,55,78,66
273,736,240,122,152,52,81,67
287,769,237,124,148,46,64,67
233,698,216,119,122,45,63,58
238,576,209,135,107,53,60,63
202,534,219,134,94,52,61,53
274,466,262,133,122,58,57,50
278,419,268,151,143,69,53,47
281,381,261,164,155,72,53,42
272,422,263,151,149,70,56,41
296,450,248,151,163,79,55,45
268,478,213,146,144,76,53,55
247,473,215,161,136,63,53,58
252,520,236,150,137,61,78,60
314,669,277,151,145,62,74,58
310,707,313,137,132,56,79,60
277,852,312,135,172,55,82,52
298,1066,334,95,188,56,82,52
320,1115,313,101,180,55,61,50
267,1084,287,109,189,52,63,62
245,1109,264,139,202,48,65,59
285,1019,276,141,174,51,65,56
303,812,263,150,163,52,61,57
293,709,273,169,170,55,64,56
280,605,283,177,153,54,64,49
291,492,299,156,136,52,67,49
285,465,283,159,126,49,71,53
235,487,266,153,114,54,80,55
222,472,299,125,97,53,78,54
260,460,280,112,98,51,75,45
286,476,251,112,89,51,73,48
261,480,309,110,86,53,65,44
296,420,319,110,79,46,69,36
287,402,287,129,83,50,72,38
306,414,298,127,81,49,72,44
275,375,306,134,85,52,64,41
302,311,246,145,101,57,76,47
273,353,274,150,98,56,65,53
344,375,303,138,106,51,68,59
311,467,324,148,106,50,83,56
312,745,316,149,131,50,97,61
279,752,354,125,135,47,147,61
294,737,356,145,150,81,183,70
232,861,387,161,173,88,200,69
235,869,388,150,179,92,196,71
231,685,409,153,172,93,202,65
246,698,384,158,160,91,175,65
234,693,382,127,146,67,166,50
233,562,336,112,118,63,145,44
215,471,298,108,109,61,143,44
208,426,267,114,107,69,141,45
192,401,264,114,112,72,131,41
199,386,220,118,108,70,91,40
168,422,239,110,120,65,85,38
182,637,275,120,129,62,90,41
180,873,297,113,123,59,67,50
175,996,287,112,132,53,61,52
140,1055,287,109,147,57,66,56
139,1103,290,117,146,59,75,58
105,1035,273,107,138,57,71,53
115,896,249,101,137,51,75,45
141,774,263,102,124,54,77,47
152,720,290,113,114,69,76,59
155,604,258,117,106,76,68,62
174,522,299,128,106,80,74,62
192,426,308,125,100,78,75,62
175,400,326,124,99,79,75,59
168,377,306,114,89,68,78,61
180,351,319,120,82,62,78,59
178,385,284,115,75,58,72,59
230,408,285,111,69,59,64,58
230,391,251,112,74,61,70,59
244,387,231,121,78,58,64,42
243,391,201,104,68,53,64,40
282,410,196,100,66,52,59,42
276,392,194,101,67,56,71,42
277,393,211,93,62,44,64,37
274,399,242,83,57,42,64,41
276,490,260,83,92,42,60,39
238,725,283,79,143,44,68,36
178,758,289,78,155,34,59,46
189,809,275,83,166,32,57,52
181,821,252,78,169,33,53,56
183,791,242,81,159,40,57,59
183,589,187,85,122,38,48,60
188,599,151,90,112,39,43,53
178,667,187,89,116,45,47,48
165,658,229,100,123,50,54,46
150,642,241,104,141,44,52,48
178,635,275,100,145,50,54,52
177,647,298,102,156,57,57,52
169,604,286,111,151,57,59,56
190,700,262,110,152,59,63,49
194,791,243,101,133,59,61,46
156,826,220,99,126,56,58,41
175,796,190,97,105,50,55,41
181,726,202,92,98,49,51,45
185,613,194,79,84,40,40,50
185,471,215,83,75,40,42,54
202,366,210,95,74,38,43,56
184,323,233,94,84,46,49,58
200,317,232,93,114,52,50,56
182,326,233,125,145,60,51,56
208,555,218,131,174,59,51,56
205,671,312,130,192,59,50,53
214,720,304,132,193,54,53,52
230,736,322,137,176,51,46,46
237,789,342,108,150,44,44,44
215,671,348,97,113,51,46,35
211,572,280,87,75,51,52,33
209,532,277,93,65,50,43,34
186,516,241,87,57,49,46,37
189,447,209,90,60,54,54,42
178,489,191,95,59,48,51,43
166,477,154,101,63,48,45,44
157,446,154,90,56,51,45,44
175,419,165,88,53,50,44,42
195,404,177,97,55,41,34,42
202,452,179,96,91,44,39,43
222,652,217,92,121,46,44,48
218,671,226,93,147,44,46,46
209,699,238,107,161,48,46,50
214,700,239,102,170,51,56,56
215,617,249,106,157,49,52,58
199,376,220,109,141,50,50,54
217,325,222,113,115,55,49,59
203,271,208,106,104,54,47,59
173,286,207,107,94,69,48,49
165,338,230,107,103,80,53,54
199,465,249,111,134,79,55,60
186,614,264,109,148,77,54,59
187,700,299,101,144,74,60,58
197,719,286,97,139,59,46,57
198,738,294,98,132,41,44,58
165,675,291,91,86,46,40,54
195,564,272,88,55,44,45,52
199,486,253,92,57,44,37,50
188,490,279,99,62,43,39,53
181,433,250,91,64,47,39,43
191,426,247,88,69,43,50,48
143,418,244,102,73,44,49,48
151,419,222,100,73,41,50,48
153,388,201,96,68,43,53,51
156,493,211,108,73,45,51,50
137,725,283,114,106,46,40,44
163,768,296,102,109,47,37,49
177,838,297,107,134,59,49,56
210,944,311,104,157,60,48,53
243,1023,305,89,175,56,58,56
267,981,248,105,172,56,61,54
280,996,226,107,174,58,63,53
287,974,225,101,164,49,61,45
263,890,221,101,147,46,59,44
252,752,251,106,119,49,68,41
229,633,238,79,102,52,65,41
201,560,243,88,104,49,63,42
163,479,249,92,87,47,55,41
231,432,228,89,78,55,66,39
219,511,186,89,94,56,52,39
220,687,210,93,146,52,52,40
217,727,210,88,143,53,53,35
219,735,197,84,150,56,61,37
185,740,233,87,153,50,58,44
186,680,239,85,152,49,55,47
220,554,231,87,132,57,64,52
235,690,227,84,155,54,67,52
243,837,237,84,180,59,60,51
212,856,222,85,188,58,52,45
203,896,224,87,186,55,50,43
158,910,227,91,164,49,43,42
143,807,225,91,149,53,44,47
127,634,247,97,112,45,44,53
120,605,225,111,97,47,51,55
147,538,251,114,110,51,53,66
153,409,240,106,113,48,46,67
145,313,268,109,107,46,43,65
142,290,284,104,119,44,48,68
144,240,303,93,128,38,41,66
117,507,282,83,130,33,41,58
114,642,274,91,142,35,41,58
119,733,277,87,141,38,51,59
133,772,221,95,130,42,48,53
136,821,218,89,122,43,51,51
140,718,212,90,100,45,51,49
171,622,231,92,76,47,52,46
169,549,205,95,71,44,49,40
173,528,211,88,73,39,45,40
165,473,204,116,81,46,44,43
206,416,225,121,85,46,45,43
211,453,223,127,85,44,57,46
210,436,219,123,82,42,53,46
216,423,229,124,79,48,56,44
215,425,220,101,66,43,57,42
255,452,205,107,82,43,57,47
239,587,205,97,104,47,50,44
239,662,222,100,140,55,58,44
236,682,240,107,145,50,55,45
240,694,235,107,146,49,57,47
182,692,239,93,144,52,80,41
219,538,237,86,137,48,77,42
227,410,217,86,104,39,69,48
221,350,189,78,104,47,81,47
221,296,207,72,110,53,84,48
251,262,204,74,101,55,69,46
218,392,214,78,108,57,71,44
224,524,219,78,119,59,73,36
222,656,220,82,131,55,62,42
223,754,216,86,141,49,69,46
180,799,202,85,140,42,78,56
205,762,174,79,125,38,76,55
196,701,174,78,111,32,75,54
229,592,160,63,88,33,77,49
229,501,221,66,59,35,63,49
246,421,221,79,54,37,45,39
217,397,220,85,54,36,64,39
267,389,243,87,58,43,70,48
245,411,287,98,64,44,69,48
244,376,252,93,64,46,72,40
211,385,266,94,66,59,91,38
212,419,263,92,95,64,79,38
140,613,273,88,130,60,76,36
131,690,263,82,132,62,75,42
133,850,267,87,161,67,87,45
222,1022,291,83,185,55,69,45
260,1096,311,80,177,53,85,48
267,1052,281,81,161,52,86,45
265,1015,257,84,170,52,91,46
268,908,232,77,150,43,79,51
218,733,194,72,116,41,78,50
187,593,169,73,113,44,62,49
182,507,197,69,100,51,71,47
188,442,184,62,75,49,64,48
198,412,213,65,60,55,70,42
202,360,206,65,61,58,67,42
195,376,202,62,55,52,70,46
207,361,184,61,54,50,58,44
203,399,191,58,58,48,63,40
213,426,195,75,61,41,62,48
195,424,215,74,57,37,70,57
214,401,221,85,60,41,67,54
279,388,226,91,64,41,65,54
320,416,246,96,62,40,63,56
311,398,227,92,63,40,65,47
320,419,220,95,63,44,58,42
307,467,222,90,78,43,59,41
236,648,218,89,121,39,62,48
235,647,199,90,133,39,58,55
259,655,216,79,142,40,53,63
279,660,202,83,149,37,67,67
301,637,236,80,153,40,66,79
306,443,223,76,129,38,65,77
353,377,227,70,136,37,66,75
335,297,215,73,144,45,63,69
312,223,216,60,147,54,49,62
320,153,180,76,148,52,56,49
316,95,217,101,156,53,58,47
220,473,205,99,154,52,57,39
208,668,200,100,157,47,56,39
256,749,199,102,153,40,58,39
219,789,197,102,140,44,60,39
238,826,162,85,122,48,58,37
248,704,167,100,105,52,59,38
264,555,159,110,81,48,61,38
218,470,180,117,77,46,57,37
224,416,178,108,77,43,58,45
196,358,174,111,81,38,55,45
173,331,168,101,77,34,54,45
177,355,166,88,72,34,50,45
186,352,144,75,73,34,56,45
179,368,131,82,75,30,44,35
183,368,167,78,75,35,51,37
191,388,165,75,80,39,51,37
227,397,179,89,82,51,54,49
217,387,180,90,74,55,55,48
250,385,192,89,77,62,53,53
252,404,167,81,75,62,48,51
265,411,204,83,71,60,54,51
217,408,277,91,90,53,57,38
218,677,274,96,123,51,50,39
187,863,292,94,135,43,48,32
177,1014,318,97,165,43,56,45
177,1098,296,101,173,40,57,49
191,1107,233,85,174,38,52,51
225,1004,245,101,164,41,53,54
233,866,224,101,153,45,60,54
270,675,195,101,120,43,56,46
278,521,198,111,110,45,50,40
286,479,202,103,83,45,49,37
276,398,205,99,61,39,54,33
296,354,209,101,53,35,52,34
287,343,192,107,56,45,61,41
277,322,206,103,58,45,61,50
299,292,198,106,59,46,72,53
287,297,186,90,56,47,69,51
250,318,170,87,57,45,65,52
235,337,195,84,57,39,53,46
233,348,194,66,55,39,66,38
212,375,191,65,55,38,58,46
203,366,189,77,59,36,61,47
203,371,202,83,61,41,64,46
236,412,219,86,60,49,64,50
214,471,238,95,85,47,57,49
186,700,258,100,107,60,58,42
199,736,273,98,140,66,54,47
268,724,268,97,153,64,54,69
246,786,287,97,157,59,59,68
263,817,282,89,154,90,58,77
300,670,292,109,153,89,64,77
302,666,321,134,134,94,77,75
327,692,328,142,125,107,134,64
361,598,320,145,137,149,141,65
375,551,355,167,141,161,169,67
395,536,375,172,151,178,182,71
394,649,397,168,168,176,183,71
368,702,428,160,171,173,148,64
333,829,421,169,181,146,152,63
329,908,458,157,176,121,146,54
302,1030,433,139,174,87,132,47
308,1014,432,118,164,88,137,52
283,1003,399,115,160,82,138,57
283,906,387,106,141,70,135,58
296,798,324,94,136,59,111,58
262,584,311,94,115,68,109,65
262,448,258,90,90,69,101,66
238,359,287,92,87,82,107,66
288,313,312,79,95,78,100,69
275,309,315,88,106,85,94,71
285,452,346,87,126,82,97,67
268,502,361,89,140,84,90,62
304,535,336,93,142,72,72,56
259,586,318,101,130,78,67,49
232,609,303,98,117,73,105,51
214,533,265,96,96,68,105,45
297,480,232,111,87,63,105,47
277,466,228,108,82,59,111,47
296,431,229,99,88,60,126,57
310,400,216,96,100,73,137,51
354,497,241,94,99,73,138,59
302,664,233,87,122,69,140,61
296,705,252,84,135,73,144,73
274,733,272,98,142,70,137,73
299,740,274,99,145,58,102,75
268,671,296,120,148,64,98,74
263,491,323,115,137,83,145,76
245,371,333,119,149,86,143,69
266,259,352,115,161,92,156,69
226,235,356,124,171,92,157,70
213,304,386,112,192,91,189,69
230,351,367,114,194,78,170,69
275,452,351,113,183,76,178,65
270,527,323,114,165,65,168,59
266,598,342,107,145,68,172,58
280,603,306,104,125,83,179,56
268,614,316,97,113,95,191,51
296,574,324,95,96,90,182,52
274,529,325,89,93,93,183,47
293,462,317,85,96,93,194,41
273,431,298,84,79,78,156,36
280,457,340,88,91,60,133,44
215,670,351,90,121,61,129,54
225,692,380,90,128,62,130,67
207,739,376,88,138,66,105,81
216,847,401,97,158,69,107,81
191,868,368,98,179,69,116,77
221,750,363,102,186,68,113,75
229,768,321,103,221,67,108,72
218,715,313,100,220,59,100,58
208,573,274,100,208,54,112,62
212,475,262,93,183,54,96,63
183,389,256,88,165,56,99,63
163,330,277,100,120,59,93,63
158,338,260,112,119,59,107,66
229,493,287,103,150,60,90,64
240,590,289,104,158,67,97,65
229,646,277,102,155,64,96,60
226,672,247,85,147,60,93,51
232,713,247,68,137,59,76,43
198,641,195,75,102,59,68,39
181,578,254,78,90,53,85,44
183,604,242,80,91,56,98,49
184,717,247,93,98,53,101,50
199,702,276,107,129,62,100,51
158,686,281,102,148,61,99,58
150,681,230,103,157,60,72,52
138,610,271,100,153,63,65,48
149,399,286,92,158,69,68,53
118,318,282,93,138,61,80,57
133,271,279,94,114,61,80,52
145,212,277,93,98,57,80,52
147,155,286,96,98,56,80,53
130,192,287,93,95,58,78,53
130,472,273,82,145,70,70,49
116,642,294,88,166,74,73,48
106,718,285,91,169,76,82,45
117,779,253,89,169,74,74,45
123,806,224,90,157,69,74,36
129,706,212,82,109,56,69,33
145,591,215,76,71,50,73,31
138,512,213,75,56,44,61,29
129,470,221,91,54,45,53,24
132,430,235,106,68,52,52,30
128,414,236,105,69,50,81,40
120,418,202,109,68,56,79,41
142,415,200,110,70,65,84,42
146,395,216,106,68,62,89,46
150,392,215,94,60,52,88,51
154,484,249,97,75,52,69,58
143,676,262,90,98,56,74,61
125,720,283,88,103,57,81,64
131,844,277,83,143,64,85,64
138,1012,317,107,158,72,87,63
154,1088,289,121,160,80,80,50
153,1032,286,120,163,73,71,48
155,1034,271,121,172,66,59,44
157,968,264,143,142,63,52,41
150,796,199,139,126,62,57,50
138,626,200,128,118,48,56,51
143,564,206,129,94,48,61,53
136,510,216,124,69,49,71,53
130,437,216,111,68,45,69,52
120,429,231,101,67,33,59,39
128,495,249,104,66,40,60,37
132,433,244,107,71,49,57,34
150,435,244,109,67,49,40,39
157,427,236,99,62,49,45,39
156,440,223,91,58,51,52,39
141,376,226,86,59,48,55,39
136,380,217,82,61,41,54,39
129,383,212,82,68,40,54,34
110,388,219,82,76,44,53,35
112,386,216,85,77,42,48,39
103,428,208,78,84,38,45,46
98,700,209,80,103,36,45,47
83,740,221,87,101,34,45,52
91,767,229,72,104,28,32,58
84,754,229,66,109,38,29,62
83,730,232,69,129,41,26,58
80,699,251,77,151,45,37,63
125,688,251,91,192,49,38,59
125,651,249,96,201,53,38,65
126,643,246,102,201,49,40,57
133,627,223,111,192,49,43,57
147,354,199,116,173,45,33,52
116,254,210,100,128,51,33,60
138,224,191,99,114,47,36,49
147,214,206,103,110,51,36,58
154,442,210,92,128,53,44,61
163,621,237,73,125,54,46,61
159,668,209,73,126,50,48,55
170,749,202,70,119,52,47,53
169,774,196,61,119,45,47,43
169,689,212,64,84,44,40,39
156,546,180,64,69,52,49,35
177,493,196,68,64,52,47,32
152,421,193,67,67,51,47,35
152,423,203,65,67,52,49,41
147,394,192,65,66,50,46,40
137,390,193,68,60,40,34,45
111,408,172,73,62,32,38,43
108,361,177,78,66,31,37,52
109,350,180,76,67,39,36,50
129,389,170,74,68,38,37,54
130,404,181,71,66,42,40,51
126,399,189,59,67,46,36,52
125,421,193,60,63,46,33,43
122,394,170,63,61,39,33,48
97,445,191,70,80,45,32,44
98,621,218,69,124,41,28,50
110,878,217,80,140,40,29,53
126,988,240,79,159,41,37,57
118,1030,248,77,167,43,37,57
113,1005,240,73,161,39,41,59
127,913,212,84,135,46,53,55
121,681,215,78,122,44,52,51
97,531,185,76,100,47,49,52
97,465,187,75,84,52,49,47
103,471,234,74,76,52,49,43
90,451,227,76,71,49,39,44
151,464,251,84,69,55,44,50
156,433,267,82,63,52,44,47
172,429,273,86,67,46,42,49
175,414,262,87,69,45,39,49
176,404,297,77,64,41,38,54
137,372,275,70,51,36,42,59
130,365,266,71,52,35,41,55
115,360,267,66,46,36,41,51
114,356,237,65,45,35,41,55
137,391,242,77,44,38,43,51
138,453,236,77,66,42,34,40
142,707,239,82,86,43,44,52
157,741,241,84,112,41,44,60
156,757,247,97,125,48,51,67
140,758,273,96,135,49,52,70
129,768,304,102,138,45,54,78
138,615,299,108,140,45,53,76
127,608,289,106,135,47,54,72
125,683,291,99,181,40,49,62
164,666,227,89,173,41,47,60
182,615,187,82,167,39,44,49
185,536,222,72,161,41,39,44
177,489,224,88,161,43,38,49
177,318,249,91,111,54,39,50
144,312,246,97,123,54,46,55
132,349,259,106,127,59,49,59
120,422,234,108,133,62,46,60
144,552,232,101,125,59,48,55
144,700,196,97,116,56,56,55
137,790,200,91,122,56,53,50
163,873,223,81,131,51,52,50
186,862,217,81,130,47,53,49
173,807,222,75,127,48,56,49
178,733,221,74,128,41,46,59
203,637,215,75,111,36,48,64
181,482,171,73,87,38,47,58
172,453,196,67,68,36,45,57
175,413,180,67,64,35,43,56
175,351,181,64,45,35,50,53
156,334,172,59,42,39,45,46
157,344,197,64,52,38,45,48
142,339,181,71,56,42,68,48
168,353,207,75,58,80,181,52
164,353,196,75,61,84,182,45
167,366,210,80,63,91,187,43
162,354,182,92,59,92,191,43
176,333,169,83,57,90,199,44
186,323,143,77,52,61,110,36
213,304,148,88,50,58,111,58
209,308,129,91,51,49,106,61
212,355,134,82,56,49,103,61
204,370,159,90,56,54,75,60
179,384,206,119,70,55,72,69
153,385,230,113,72,50,64,55
189,375,236,107,72,48,63,54
183,334,263,102,71,49,62,51
180,429,252,100,84,45,69,51
181,686,230,67,122,46,70,45
170,711,228,70,128,54,71,42
123,730,264,71,145,58,67,40
141,779,241,84,148,54,62,44
151,777,238,84,149,61,53,54
142,598,226,93,114,61,73,53
162,576,214,94,107,56,73,51
163,591,180,99,88,54,72,53
157,524,171,98,81,58,81,51
161,476,198,98,62,56,85,40
176,413,194,90,66,53,67,36
161,413,213,102,66,55,80,43
192,396,232,120,61,51,86,41
184,576,247,126,72,48,78,40
180,657,238,124,141,44,75,51
162,693,246,125,145,48,74,54
157,693,244,118,155,43,71,51
125,679,236,96,175,48,65,59
176,523,236,78,175,48,66,59
168,370,225,88,137,45,66,54
177,278,231,96,137,47,75,50
198,222,212,96,136,48,63,51
197,161,204,96,120,48,65,46
168,266,190,104,132,50,70,52
224,464,222,96,138,52,65,51
223,524,214,90,138,44,58,50
231,573,208,105,149,44,62,48
246,634,191,114,143,41,67,48
239,620,228,139,138,42,59,42
225,534,216,141,124,38,59,39
219,506,215,140,116,40,53,46
208,467,208,128,87,42,56,51
208,432,213,120,91,42,66,53
220,405,173,96,70,40,67,54
189,381,155,97,74,43,87,53
188,372,141,100,74,41,90,48
220,362,158,106,78,41,92,42
235,322,155,106,65,43,121,35
232,454,165,97,95,40,121,37
223,587,174,100,122,41,121,45
229,637,198,124,142,49,141,49
234,690,209,122,163,54,143,52
210,737,235,128,164,57,112,52
202,772,267,127,185,59,118,49
207,823,272,128,184,60,116,41
233,815,266,99,172,53,87,33
206,810,257,94,162,45,98,34
200,799,255,102,165,53,105,40
208,735,226,107,129,52,104,47
286,590,250,116,105,51,105,51
272,646,251,118,105,53,107,51
259,789,265,120,136,54,93,51
261,787,277,118,151,42,90,46
299,759,269,111,151,46,89,44
262,727,242,96,162,43,79,42
255,626,239,89,166,39,77,54
269,341,224,88,136,38,76,55
270,240,186,87,120,36,75,58
285,179,189,89,124,35,66,56
256,136,173,87,116,36,63,57
254,328,168,92,115,38,66,48
264,506,156,100,115,41,68,46
316,573,155,102,113,39,65,43
271,627,178,103,106,44,73,45
267,660,197,109,100,46,70,44
263,612,195,113,89,46,87,42
255,493,197,124,78,44,84,42
193,450,198,117,69,44,90,41
186,389,198,115,58,46,89,40
189,348,172,110,58,42,91,38
198,343,204,114,57,40,75,46
170,350,204,93,57,41,82,49
145,367,211,86,56,41,71,48
129,406,195,90,58,35,65,43
120,413,193,93,61,43,63,45
142,590,157,95,79,45,59,44
143,800,169,93,125,45,51,48
149,827,173,93,141,46,50,60
157,861,180,93,167,49,60,65
168,877,181,85,174,45,59,68
149,793,188,67,169,49,64,62
175,612,184,65,143,56,61,60
173,576,166,92,134,58,64,48
164,527,153,96,101,54,66,48
150,507,155,96,84,57,69,47
178,463,149,96,80,55,63,51
159,420,149,97,69,48,60,45
167,415,168,68,54,47,60,48
217,482,187,64,62,49,56,47
246,668,207,66,121,42,57,45
221,695,221,74,124,43,58,45
225,704,256,79,150,44,59,49
219,690,248,81,168,47,68,49
170,615,238,78,174,43,63,46
148,380,241,78,143,47,62,45
142,284,226,73,148,48,63,43
145,211,177,67,128,58,72,46
167,147,201,65,118,53,61,46
176,331,225,72,131,65,59,56
160,488,212,72,129,61,52,55
175,570,219,77,130,60,53,55
156,634,215,74,128,48,45,49
159,706,196,85,120,55,52,52
149,674,168,82,85,41,50,40
157,639,170,86,85,44,68,44
144,605,153,89,71,42,67,46
155,590,187,105,75,44,64,49
144,521,173,103,71,38,59,44
154,498,163,102,72,38,61,45
146,436,145,102,71,37,41,42
146,433,192,98,69,37,53,42
166,415,166,84,56,35,51,39
164,430,177,76,49,43,52,50
157,490,179,69,64,43,51,50
160,633,203,62,96,42,50,55
163,652,176,68,96,41,43,56
153,668,187,74,115,45,46,59
142,717,209,77,123,50,45,56
138,767,243,82,130,63,61,59
161,717,246,88,125,67,62,55
186,794,238,84,131,68,57,53
170,817,235,87,119,72,59,54
170,794,217,90,111,64,56,48
183,706,170,91,96,54,48,57
169,637,146,93,73,52,48,57
131,489,147,87,61,51,48,58
141,395,139,80,56,43,54,58
142,338,146,73,56,42,58,59
125,313,158,81,55,38,56,58
115,291,170,75,65,34,56,59
136,276,169,82,90,33,56,57
128,438,190,82,138,36,60,55
124,530,183,95,147,36,57,55
162,619,184,85,152,36,53,41
172,680,173,93,149,35,56,40
160,703,169,92,137,37,58,39
163,630,139,100,91,36,46,35
182,555,128,88,74,36,48,33
180,487,118,100,65,34,51,37
178,424,141,89,66,35,49,37
177,416,145,87,69,33,45,36
176,405,151,81,67,40,44,44
158,422,160,83,64,43,48,43
156,415,177,76,64,48,51,47
145,400,154,90,68,49,49,43
151,395,175,96,60,51,48,47
150,452,194,96,74,47,58,47
155,557,208,108,124,48,52,49
121,639,192,106,136,43,47,43
141,674,206,93,139,41,48,44
132,691,200,96,147,41,50,41
130,657,211,94,151,35,55,45
139,547,209,78,123,39,55,45
147,413,212,81,118,46,58,54
155,329,213,97,112,50,59,56
162,266,210,89,107,50,60,61
161,368,206,89,109,53,50,58
164,558,197,91,128,53,50,59
202,637,202,99,125,48,47,52
190,687,189,87,138,45,43,50
188,723,174,83,136,41,50,42
207,695,148,83,124,38,46,37
192,579,132,82,98,34,47,32
150,511,117,76,93,37,45,37
146,451,112,77,75,41,60,38
156,406,122,96,90,42,55,43
138,378,117,101,93,45,54,42
147,363,121,100,87,42,52,43
156,347,129,91,83,43,52,37
154,344,122,92,77,37,43,34
165,387,121,78,51,36,40,37
164,428,119,67,74,34,38,35
167,619,119,81,124,35,43,38
174,735,150,90,147,45,45,40
200,831,160,96,165,53,48,44
190,963,166,107,198,54,48,38
237,1064,178,122,199,56,52,55
240,989,178,116,181,56,50,56
224,920,149,114,173,46,48,57
204,859,142,132,165,42,41,72
222,700,129,165,142,42,41,73
209,519,111,155,129,39,36,64
206,471,109,162,126,39,44,62
234,443,103,168,119,52,47,64
285,405,105,153,112,52,44,55
277,371,116,116,98,53,44,53
247,345,112,124,99,53,45,53
244,338,107,121,96,56,35,53
243,373,114,119,93,46,30,48
179,379,119,132,96,45,43,39
181,415,138,135,97,46,46,49
179,397,139,147,101,44,46,48
184,397,139,142,95,39,46,48
151,373,134,144,93,38,47,52
167,365,126,131,84,35,36,74
145,316,86,120,80,37,33,79
149,371,114,103,94,37,31,78
137,600,152,103,156,35,30,78
150,663,159,117,157,33,28,83
129,702,198,124,172,33,38,83
131,737,213,128,172,37,39,77
137,727,198,124,165,43,39,78
162,570,172,121,118,45,41,86
148,562,170,94,118,48,54,79
146,526,154,81,93,47,47,58
174,478,141,73,92,43,47,53
169,464,140,80,86,38,51,52
144,437,141,113,80,41,51,52
148,332,140,115,75,40,49,55
159,317,123,139,75,50,49,54
155,325,131,148,67,51,46,54
154,311,143,144,61,50,45,55
154,297,140,119,49,45,45,45
152,317,147,118,53,46,41,43
137,389,152,88,68,37,41,43
112,420,140,81,79,35,42,41
113,430,135,76,86,35,42,48
122,538,153,112,101,36,42,49
112,697,148,122,108,37,47,52
114,692,156,120,120,35,46,55
114,688,165,120,120,34,48,70
133,743,165,133,122,37,48,69
127,720,157,118,130,37,49,68
127,629,157,104,123,35,37,66
136,601,133,118,101,36,50,69
173,589,124,114,92,36,50,57
179,537,112,111,88,33,50,52
179,473,98,96,60,33,50,48
186,485,93,100,85,34,49,47
176,717,97,89,113,36,45,47
147,800,147,94,123,44,45,53
131,922,167,80,146,48,45,56
130,1087,183,94,162,48,44,56
124,1142,196,100,166,47,44,57
144,1113,193,93,171,45,34,55
148,1082,164,90,171,36,32,49
136,1011,158,101,162,30,30,44
133,852,165,101,142,30,42,44
150,732,151,97,129,27,44,49
135,561,145,104,97,28,43,46
113,488,132,117,86,30,46,43
117,369,130,120,80,30,47,42
129,315,107,117,87,34,38,49
108,260,108,127,81,35,45,46
111,245,135,123,80,36,47,47
115,244,137,110,80,35,46,47
122,293,130,109,67,37,45,47
107,291,127,110,63,31,46,41
117,312,129,110,68,31,37,45
113,298,109,114,79,31,34,42
124,327,113,119,81,34,32,43
111,301,116,119,81,33,33,45
109,319,122,115,79,34,28,45
100,309,123,108,77,34,27,36
118,311,120,112,67,33,30,39
120,466,127,108,77,29,30,38
120,719,140,114,93,34,29,39
126,742,155,115,105,36,40,47
129,790,168,122,105,35,46,65
112,822,171,133,115,35,45,64
121,782,168,134,111,35,44,65
115,589,159,122,97,31,45,70
125,590,152,121,84,30,36,64
119,541,144,112,80,30,30,50
149,526,142,93,69,30,29,51
131,466,157,85,58,31,30,50
133,426,153,79,55,27,28,39
143,401,149,77,51,26,28,50
143,384,142,75,56,27,30,56
118,332,149,62,50,27,31,59
125,297,131,68,57,27,30,60
143,307,129,70,57,31,32,66
149,381,116,71,57,29,37,65
159,395,106,78,61,29,36,56
160,394,96,82,61,30,35,54
162,400,97,89,60,32,36,53
172,520,114,92,83,32,41,52
160,682,140,103,123,37,42,45
161,716,171,94,127,38,52,53
166,799,183,97,139,38,53,51
156,841,188,88,142,36,54,58
144,780,177,92,131,34,59,56
155,620,176,88,98,31,63,57
207,616,151,91,92,31,70,52
226,526,143,97,83,36,71,52
243,473,136,102,78,41,75,56
245,459,133,100,74,48,86,54
244,404,116,119,74,50,85,51
229,514,115,126,89,50,81,50
226,724,151,120,104,49,82,53
231,876,150,115,126,49,95,51
239,937,156,118,135,47,93,58
250,966,165,94,142,44,110,65
229,897,181,83,140,46,118,68
209,765,159,100,133,46,129,72
200,680,157,106,133,46,121,67
197,618,156,99,126,40,112,66
177,613,151,97,121,42,93,59
163,600,136,99,113,41,85,59
188,562,124,83,102,40,74,51
174,437,138,83,80,37,72,49
152,416,144,96,80,40,80,42
175,368,138,105,75,40,84,43
191,345,140,105,72,36,82,38
170,360,152,121,73,45,82,44
171,366,137,120,68,45,82,42
174,339,121,108,65,44,78,45
151,369,125,95,59,43,74,49
170,384,124,99,60,47,87,55
171,354,101,80,59,42,98,51
173,479,110,79,69,46,98,55
185,705,141,114,117,47,102,57
197,735,144,119,127,47,111,68
167,738,145,111,131,42,96,70
229,771,184,109,147,38,86,75
233,747,195,112,147,33,92,72
242,606,187,84,119,32,88,72
230,571,185,82,108,32,74,61
239,593,185,89,109,34,80,60
178,586,152,91,92,32,79,53
201,616,140,100,110,37,71,55
187,719,137,106,126,42,81,48
186,739,150,108,142,42,90,50
177,763,163,113,155,63,96,49
197,826,162,120,168,68,90,48
167,845,174,108,162,72,104,50
175,845,177,103,161,73,97,55
179,894,160,97,153,72,91,50
189,900,137,92,143,59,87,53
209,831,136,90,123,58,94,56
219,733,122,92,109,50,82,61
239,566,111,88,89,45,80,59
246,429,118,87,81,48,84,62
232,300,122,87,71,42,77,55
197,263,117,84,91,38,73,64
187,273,128,86,110,37,64,58
164,454,139,91,131,42,74,59
168,574,138,94,143,42,69,60
169,641,163,92,143,44,66,65
163,689,167,87,130,42,63,53
161,706,153,86,114,43,67,51
129,628,140,97,86,37,59,53
148,540,140,107,67,43,77,57
146,464,115,122,88,46,78,53
170,419,126,130,92,47,75,53
166,403,124,126,87,46,78,52
172,392,131,119,86,43,80,45
171,384,131,113,83,41,66,35
174,390,140,105,59,42,71,42
154,387,167,96,60,46,86,44
174,391,173,93,61,46,86,45
204,447,172,79,75,48,79,49
188,559,187,76,119,45,74,48
190,634,196,67,123,39,87,49
194,651,189,65,132,36,75,55
187,655,198,68,137,44,76,55
153,610,205,69,140,44,82,53
135,490,189,90,119,41,82,63
155,362,171,95,126,43,67,60
163,277,157,94,115,41,69,57
159,215,149,111,127,37,90,63
180,186,146,130,125,53,88,70
183,403,160,118,149,58,93,62
184,511,170,118,149,60,94,62
177,588,237,117,157,59,89,59
186,652,246,109,147,62,69,57
181,684,249,86,139,51,71,47
193,628,243,80,96,49,62,53
215,574,242,70,94,48,66,52
212,543,175,85,91,49,74,49
199,489,158,79,86,49,70,45
188,456,147,80,90,54,72,49
172,427,152,77,90,53,80,48
119,405,154,76,72,49,84,64
113,372,156,65,59,53,82,70
146,367,173,64,51,57,99,73
166,386,180,77,76,53,94,76
169,402,182,82,99,57,89,74
176,574,210,82,119,61,98,64
184,595,231,84,122,65,116,69
213,753,247,116,159,63,102,85
211,877,262,114,156,68,108,99
213,1023,260,113,162,66,120,102
227,1033,261,113,153,68,120,112
301,1118,236,119,155,68,121,114
284,1055,224,105,127,76,126,105
287,971,237,100,121,72,124,90
288,802,233,99,97,101,132,93
291,710,208,100,100,103,125,83
208,549,207,90,93,101,123,89
205,493,227,75,84,94,124,87
196,449,200,101,79,95,125,88
195,467,198,108,83,68,117,88
208,411,194,109,75,83,124,85
225,395,204,121,81,87,112,78
208,368,169,118,77,86,103,72
198,362,153,98,76,84,107,74
211,344,156,94,73,79,107,88
188,348,164,92,72,66,110,86
194,347,167,80,64,65,117,95
196,378,164,85,64,65,120,101
204,377,178,82,68,66,115,99
208,368,196,79,65,65,121,80
221,373,195,89,65,63,112,83
214,394,193,90,86,59,107,75
242,497,209,110,139,58,124,72
252,560,230,115,138,61,123,81
265,613,259,127,163,71,118,97
257,631,265,148,167,64,119,101
265,628,271,149,172,69,137,95
279,524,274,139,140,71,125,101
269,434,317,158,162,77,127,107
275,326,293,158,158,71,117,92
264,336,298,138,158,71,116,88
260,429,308,137,172,66,101,92
225,433,294,133,172,63,92,89
208,451,241,105,157,56,92,76
196,476,244,105,145,62,91,85
252,530,252,112,152,69,116,82
247,576,247,105,134,74,106,74
245,726,241,100,132,75,108,69
249,810,218,104,130,75,113,72
253,877,209,91,128,65,113,66
239,852,195,73,117,61,93,74
243,822,164,76,105,53,96,76
236,734,183,79,111,56,92,75
285,653,186,85,112,54,86,74
265,581,200,88,100,56,90,79
225,559,187,88,104,51,88,78
216,507,198,89,99,58,80,84
216,635,188,91,93,55,87,86
166,650,238,92,93,51,87,79
194,631,228,91,98,58,83,69
194,621,226,101,96,61,74,63
183,633,221,100,93,57,89,56
190,456,226,94,93,59,101,53
181,438,187,102,83,74,106,67
137,492,193,106,90,72,109,76
135,569,211,100,95,77,120,76
132,633,230,101,100,74,116,74
138,686,236,106,97,80,102,84
152,694,227,91,103,72,101,71
151,663,228,84,93,72,101,67
152,579,209,93,79,66,91,75
155,457,208,104,72,67,87,78
171,351,187,100,76,65,88,65
153,293,185,97,61,58,84,68
153,244,216,93,62,58,117,65
161,245,232,82,82,56,113,59
155,235,220,59,93,49,111,58
154,421,245,65,136,42,112,68
145,520,250,69,146,44,107,66
141,583,214,71,148,49,75,66
147,617,198,69,140,50,86,66
163,648,182,72,133,53,85,64
137,566,146,67,82,58,80,53
140,540,157,77,67,58,82,65
143,529,153,82,63,53,76,68
123,500,154,80,60,56,70,65
114,473,160,102,62,61,68,64
121,464,180,115,76,62,65,66
116,389,149,109,76,61,66,62
124,300,149,105,72,61,67,72
141,282,166,108,72,64,63,71
160,264,163,92,71,66,62,78
148,250,182,83,64,63,61,76
155,279,190,84,65,83,68,77
153,286,192,88,68,90,63,66
154,299,175,84,68,88,58,64
132,335,217,78,65,91,55,52
143,340,184,66,55,96,58,69
139,459,195,65,66,86,42,63
131,682,200,65,98,80,40,63
122,781,217,80,137,81,58,62
178,877,224,88,156,83,60,67
174,884,221,87,166,77,64,52
171,851,212,82,164,69,64,47
184,712,211,95,153,67,74,47
191,641,193,83,118,72,61,54
156,507,151,73,95,60,63,54
150,503,154,78,80,61,57,53
159,455,151,90,77,64,64,58
144,415,133,74,63,63,51,56
141,338,120,76,65,61,50,55
119,327,110,83,60,59,45,50
117,289,107,82,53,62,45,58
120,281,100,78,52,58,39,55
120,283,118,85,55,59,57,56
104,314,123,81,51,61,59,55
115,294,117,74,54,59,61,57
124,308,127,103,60,61,62,58
111,316,129,96,60,63,61,60
110,324,112,88,54,63,61,61
117,330,126,91,58,53,58,57
105,479,119,92,77,56,56,59
110,709,144,55,112,51,57,63
109,912,183,71,133,53,57,71
112,990,197,83,144,61,60,89
118,1010,195,85,148,59,59,90
126,971,197,88,145,61,62,87
134,841,197,88,119,59,62,78
137,630,160,87,97,59,60,72
156,520,146,79,81,56,54,57
151,457,140,76,71,56,55,70
144,422,167,72,56,54,53,72
126,366,156,75,52,50,53,71
151,334,159,62,43,46,59,84
128,302,162,62,47,45,47,80
119,303,156,66,50,56,48,71
124,277,131,65,52,56,53,72
137,330,126,63,52,57,52,74
119,323,126,80,53,63,45,55
117,323,128,83,48,58,53,53
116,339,135,81,49,49,54,52
113,336,142,82,51,49,52,48
97,301,135,82,52,52,52,54
81,347,144,73,49,45,55,56
78,402,172,69,64,43,49,60
93,642,192,77,116,43,46,58
105,686,190,80,119,44,46,79
102,736,195,80,129,42,49,76
106,750,195,77,136,49,57,80
108,742,171,78,130,50,55,78
99,571,146,70,91,50,56,76
96,540,144,71,91,53,58,57
105,488,172,69,80,53,62,58
122,443,172,65,68,48,53,51
121,407,170,67,66,46,55,58
123,372,171,74,66,46,55,59
112,380,182,71,59,43,51,55
127,348,144,75,54,44,55,51
105,459,131,82,60,46,54,64
112,703,123,87,67,56,55,57
114,904,122,80,76,56,57,60
137,1011,115,86,111,54,57,65
128,1038,144,85,122,55,50,66
128,1061,156,78,132,51,49,56
127,956,158,68,133,41,52,64
127,788,159,78,125,44,51,63
133,653,148,80,94,46,56,62
127,658,144,80,81,50,56,59
132,574,137,82,61,49,57,63
134,513,137,79,49,47,52,57
139,507,162,72,46,55,53,63
137,475,167,70,51,55,44,64
150,419,145,79,49,54,39,73
146,390,140,79,48,55,40,67
140,388,147,80,48,55,54,66
129,374,134,82,45,45,51,57
111,379,123,84,51,46,51,56
124,368,143,78,51,41,61,53
138,369,155,78,50,40,60,53
150,403,147,81,50,43,48,61
155,393,130,83,52,43,50,63
146,488,139,80,58,41,57,70
123,679,161,90,103,38,46,64
118,708,156,88,121,39,49,70
110,701,164,86,131,38,57,70
111,694,199,87,137,39,54,75
112,626,200,84,141,37,51,69
127,397,181,75,130,38,60,71
123,297,185,77,121,46,61,70
129,230,182,81,118,44,55,63
134,188,148,81,120,43,54,57
141,388,139,79,121,44,57,57
127,569,128,86,105,42,46,57
132,660,107,84,102,33,43,50
135,698,103,84,93,35,47,55
129,729,95,84,94,37,46,52
120,671,86,82,76,36,35,47
132,552,122,84,72,42,49,49
136,468,126,88,70,43,50,52
123,424,123,90,71,44,47,46
125,399,120,82,54,40,52,47
128,376,128,91,58,44,52,49
111,365,96,86,56,38,43,42
88,360,94,86,54,41,42,56
83,362,87,83,54,39,42,54
83,385,87,87,56,42,40,60
104,455,84,82,68,39,39,59
111,698,123,82,105,41,50,68
113,746,126,79,121,53,49,60
130,770,132,77,127,52,51,66
130,777,141,73,131,52,53,69
120,733,155,84,136,57,65,71
114,497,144,91,113,58,57,64
133,480,154,96,112,45,57,60
119,536,151,102,126,48,57,53
131,582,154,102,124,49,56,43
130,637,136,92,124,45,49,43
139,731,141,75,134,41,50,46
128,771,128,74,125,44,49,55
172,714,143,75,110,42,48,60
162,653,153,84,118,40,48,66
165,597,164,82,106,38,49,73
157,478,145,81,99,38,51,81
178,325,168,90,106,33,55,81
143,297,163,84,114,41,65,79
141,268,172,80,115,42,63,78
140,374,182,79,144,41,62,74
142,477,183,81,143,44,61,68
135,571,170,69,140,48,68,63
138,670,174,85,129,42,59,63
150,750,148,81,120,42,60,59
155,733,128,83,77,41,55,53
160,688,127,83,69,37,52,47
142,633,119,84,53,33,46,59
147,552,107,71,50,37,49,60
137,482,107,77,50,38,47,59
147,446,113,79,51,37,51,64
140,434,112,77,43,37,57,68
156,433,110,70,40,37,51,57
153,435,107,67,38,34,56,57
151,402,122,75,46,32,56,57
137,438,127,70,73,35,53,50
169,594,133,70,103,39,55,45
154,635,163,79,131,40,62,57
146,657,168,94,136,41,56,60
147,678,169,86,144,42,59,60
148,658,158,90,134,45,61,65
126,503,181,93,120,56,57,71
139,411,158,99,95,53,58,61
140,337,155,91,92,53,68,60
155,298,185,95,81,59,68,76
155,279,201,92,81,61,71,77
142,379,205,93,88,52,73,70
125,485,212,89,95,54,66,73
122,620,222,85,122,56,57,70
120,696,194,77,127,50,54,55
122,747,185,74,130,46,53,55
136,736,158,68,119,45,52,53
139,689,147,73,112,43,78,51
154,580,144,76,81,41,78,49
141,482,137,80,73,43,83,56
133,408,141,84,64,42,81,54
122,371,131,87,63,41,80,61
126,377,127,79,62,47,56,60
112,373,112,74,63,46,72,59
105,373,108,72,55,47,66,50
95,351,113,72,60,47,68,44
89,362,121,71,71,44,70,39
116,553,132,63,84,40,73,40
110,628,148,67,83,47,69,43
112,765,170,65,122,47,70,43
116,961,179,67,146,50,66,41
124,1046,175,67,150,50,62,38
90,1027,183,82,146,51,58,38
101,1025,172,89,151,46,43,53
106,961,154,97,127,47,54,57
125,769,135,108,99,42,58,65
118,635,132,108,82,43,57,65
128,520,113,99,75,39,58,62
128,435,108,93,62,38,64,48
130,366,109,92,52,35,58,50
111,366,103,82,46,43,56,49
110,357,105,85,49,42,68,53
110,327,105,84,44,43,80,58
115,319,116,105,50,44,75,59
122,322,123,104,57,43,73,55
127,305,122,97,54,38,79,53
128,319,118,94,54,38,84,48
116,333,113,94,54,39,73,43
114,339,104,78,48,35,72,44
111,327,127,71,40,47,80,50
109,341,133,74,45,46,80,46
103,329,135,75,44,47,67,46
113,363,147,76,65,46,70,47
112,618,149,64,94,50,72,51
115,645,143,68,112,39,64,50
123,682,163,69,121,41,74,60
127,691,173,67,127,40,73,67
115,740,167,62,123,39,71,72
109,613,169,67,113,36,76,67
102,628,158,66,107,31,74,61
89,590,138,76,101,31,57,49
100,589,126,83,98,33,53,41
102,509,127,101,96,32,56,29
95,455,122,102,95,33,58,44
97,545,120,97,110,35,64,59
94,597,139,88,114,44,68,61
89,703,160,86,134,43,70,61
105,798,172,66,140,49,74,61
107,933,180,66,135,50,62,52
111,987,184,73,126,52,55,41
116,1022,159,86,127,45,52,42
109,1021,146,96,131,47,69,50
99,980,131,93,128,43,68,54
116,872,118,93,144,42,71,54
108,832,129,92,155,41,71,61
122,749,147,83,164,40,69,73
128,640,151,72,149,37,56,67
125,577,166,85,148,40,47,64
105,520,173,89,147,38,43,71
115,283,171,89,131,44,49,65
97,237,171,88,122,44,60,52
97,206,169,86,123,45,68,54
95,507,156,86,125,39,68,55
110,654,165,84,111,41,68,51
108,738,155,81,113,34,68,54
111,804,169,82,100,35,67,50
101,849,170,80,96,33,58,51
109,720,169,76,87,34,61,48
95,592,157,82,88,33,65,46
95,499,149,82,76,33,72,42
94,396,118,84,74,32,65,42
102,307,116,88,64,32,65,44
97,303,126,77,66,32,68,46
106,330,121,74,53,36,79,48
103,361,124,71,54,35,70,48
108,395,119,73,58,36,75,53
99,449,135,71,59,34,72,48
96,433,123,74,61,34,67,46
97,424,122,73,68,27,53,43
94,425,133,87,70,32,51,44
102,399,132,87,69,31,45,47
108,338,102,84,68,33,44,49
131,370,102,82,64,38,63,58
134,501,113,82,62,39,64,62
126,748,105,72,76,39,70,58
114,952,124,65,103,42,72,57
119,1099,144,73,124,48,71,58
178,1171,146,74,131,44,62,52
171,1136,137,70,132,46,64,48
177,998,137,76,123,43,58,55
178,832,136,78,101,42,56,50
195,629,119,75,77,34,56,49
127,463,115,74,59,34,57,46
125,412,113,70,50,31,66,45
122,352,109,59,45,32,71,35
131,319,112,65,44,30,77,35
110,335,116,65,41,35,80,70
136,335,113,67,45,33,93,70
136,333,110,68,46,34,90,69
135,348,109,72,47,34,90,71
129,333,91,80,53,33,85,71
132,329,117,79,49,32,85,39
102,348,125,78,47,32,74,47
101,368,134,82,46,37,79,60
97,360,135,75,48,40,73,70
86,336,128,60,45,41,73,70
100,328,139,60,49,41,83,74
103,426,146,73,78,44,99,73
121,625,150,70,101,42,91,69
129,662,174,77,112,40,94,61
142,699,190,75,125,39,101,66
130,711,184,73,136,39,94,65
132,675,178,67,130,39,92,68
127,553,181,76,127,35,92,64
124,539,162,76,119,35,89,61
114,560,155,77,112,35,86,58
108,625,153,81,132,34,81,56
104,608,157,82,128,31,50,48
110,554,159,75,123,35,45,52
145,524,156,68,125,36,52,59
147,491,165,71,128,42,58,57
143,444,159,71,107,46,56,56
148,501,163,64,112,48,59,56
148,649,155,62,108,49,72,61
122,747,158,66,104,48,75,67
121,768,137,63,95,42,67,67
133,747,111,68,83,39,73,71
125,691,92,69,69,37,85,71
108,549,102,69,57,32,76,67
104,403,101,64,53,28,72,58
117,318,112,76,50,27,72,58
97,297,121,62,71,24,75,56
99,327,130,64,87,25,60,55
108,400,119,61,106,26,61,53
101,481,120,64,119,29,57,48
91,524,109,49,120,31,68,51
123,556,118,58,104,32,62,56
134,557,118,55,94,31,62,54
132,523,121,59,73,30,60,52
152,480,127,58,50,30,60,58
172,438,137,59,46,30,55,58
153,397,130,64,51,30,51,49
152,414,132,71,49,34,71,50
182,489,130,73,70,37,83,50
165,656,137,72,105,34,87,48
150,739,137,76,113,35,82,51
149,786,142,74,123,33,85,61
147,832,144,65,137,32,75,65
127,807,141,64,132,25,60,67
131,745,146,68,127,28,58,63
120,787,155,78,158,32,65,58
124,743,156,73,156,34,67,63
126,669,158,73,154,32,60,60
123,625,165,69,157,34,61,64
131,507,151,66,147,33,57,66
131,244,149,46,120,30,55,66
137,187,140,56,120,33,58,51
127,278,144,59,127,35,65,51
127,422,145,59,125,38,69,57
110,523,137,61,124,39,76,55
119,589,134,74,110,41,75,61
120,636,133,70,101,39,74,62
130,626,116,66,73,35,102,61
133,565,103,68,62,32,101,50
150,500,103,64,50,36,98,55
148,451,99,63,46,33,97,49
139,413,102,59,45,33,107,47
169,378,100,62,46,33,73,53
153,356,97,61,43,34,81,55
147,356,96,64,45,27,80,50
149,350,82,56,47,29,79,49
171,360,78,75,55,32,60,54
139,364,78,79,55,34,68,45
153,498,76,86,73,32,61,46
151,689,104,87,118,32,71,52
156,735,129,87,127,36,78,55
149,751,152,76,143,40,79,59
148,812,184,81,154,44,75,58
128,860,196,76,164,52,69,58
119,748,186,80,140,53,63,56
129,735,175,78,135,50,82,52
112,757,169,71,119,46,81,40
109,714,132,60,105,40,83,42
112,598,116,73,77,29,84,40
110,561,117,81,71,30,80,36
91,534,115,91,62,33,51,37
102,551,92,98,76,32,56,35
108,673,109,101,101,37,66,36
110,699,133,90,131,36,77,66
135,709,138,78,140,33,86,70
132,700,146,73,148,28,88,70
128,637,152,67,144,29,86,71
127,464,145,65,133,24,75,70
152,348,132,74,104,27,67,43
154,278,130,79,96,32,63,42
167,225,148,79,96,41,74,45
174,215,156,91,107,43,73,47
203,467,163,91,118,48,81,50
193,637,154,88,122,50,82,47
180,742,155,92,116,49,99,43
173,796,126,139,135,43,99,38
180,822,111,138,121,40,98,45
194,740,106,137,103,33,91,46
186,640,106,137,99,29,87,48
195,553,94,131,99,26,68,51
188,514,93,73,53,25,76,54
172,468,102,69,53,27,75,48
122,445,96,65,46,25,76,49
125,441,106,61,39,28,87,49
99,441,106,64,40,30,80,49
94,421,102,67,46,30,58,48
88,433,88,61,42,32,59,50
95,525,95,70,62,33,58,53
111,710,115,74,103,33,63,60
117,767,146,84,113,41,62,57
120,852,180,86,137,46,62,56
128,969,189,82,145,47,62,57
112,1037,191,77,155,51,63,61
87,993,178,80,134,50,40,52
86,972,165,79,131,43,48,53
119,923,128,79,119,38,54,54
112,827,116,76,111,36,64,49
118,693,114,77,86,30,63,36
129,560,113,73,79,28,65,39
151,506,104,64,75,24,61,52
128,469,107,62,51,24,56,52
127,425,108,65,48,24,61,53
128,387,94,65,47,23,63,53
119,379,94,71,52,27,69,49
85,373,90,67,49,31,75,38
103,372,94,63,48,31,75,49
102,382,97,64,46,30,63,49
98,391,99,78,49,33,58,56
119,397,92,76,50,32,47,56
121,393,99,73,45,32,48,53
118,391,90,70,40,32,48,41
120,360,88,74,42,35,46,48
116,437,94,65,54,33,47,40
96,675,107,57,84,34,47,43
95,710,106,64,96,34,46,54
71,747,116,67,113,35,48,61
72,761,121,65,114,35,67,62
81,724,135,68,121,34,74,70
75,581,129,69,106,32,82,72
69,614,127,69,113,31,76,65
80,600,119,73,125,32,77,58
88,603,129,82,168,35,63,51
86,594,117,75,160,35,56,37
90,528,110,75,161,35,44,30
91,446,109,71,151,39,50,31
104,391,118,63,135,38,47,35
94,360,115,52,80,37,45,37
100,361,118,53,86,44,48,47
96,414,140,61,89,47,64,46
99,501,147,67,94,46,61,44
83,605,144,72,90,46,60,42
77,703,131,75,88,44,59,40
65,732,117,78,80,37,55,28
79,701,89,72,69,37,37,34
93,631,79,73,58,37,49,44
112,521,77,71,52,35,49,46
116,378,76,66,43,34,49,45
135,306,78,60,42,33,51,49
136,278,90,58,55,30,61,51
136,337,103,50,86,27,50,54
125,469,107,64,103,29,51,53
128,540,119,64,118,32,53,60
139,595,122,62,118,34,55,57
135,638,114,69,113,36,47,54
132,639,105,68,93,34,44,43
128,553,95,54,75,35,42,42
122,501,80,50,56,32,41,34
100,448,80,52,52,31,49,47
101,412,79,48,48,29,48,48
89,420,69,59,62,30,50,46
82,629,93,57,103,29,51,47
80,707,101,61,109,29,49,50
68,737,112,62,117,26,33,48
61,773,127,67,128,27,49,53
79,762,130,59,126,26,47,54
82,682,123,59,112,25,46,54
82,696,142,59,142,28,48,51
72,647,156,59,146,28,48,44
72,602,160,54,149,25,33,36
52,591,163,54,149,25,50,40
73,501,163,53,142,29,58,42
82,311,149,54,115,28,56,43
82,299,128,50,112,30,59,43
88,252,122,62,110,34,60,43
86,264,133,61,117,43,50,38
75,402,124,60,118,40,55,43
78,525,125,60,123,40,54,44
82,593,118,66,113,39,53,50
78,631,112,64,103,36,50,50
79,633,94,72,89,25,56,51
76,565,98,77,78,26,46,42
63,476,85,77,53,26,51,47
57,401,85,72,51,24,62,39
53,359,77,63,44,27,103,43
51,339,72,52,38,29,105,43
38,316,65,50,40,29,107,45
37,311,74,49,40,29,110,37
41,334,85,50,42,31,104,38
59,328,83,53,43,29,69,42
61,322,90,56,45,30,64,42
66,444,98,60,61,29,66,44
76,638,118,61,96,28,77,47
72,691,142,65,109,33,83,51
60,793,166,65,136,46,83,39
57,868,173,73,147,49,81,41
57,860,175,67,150,50,75,56
45,758,166,64,137,50,64,56
44,736,141,59,127,47,56,54
41,646,126,56,100,34,51,54
42,539,117,45,83,28,46,54
35,456,105,48,66,27,47,34
34,385,96,54,51,30,43,35
38,314,94,58,48,30,40,48
59,265,78,57,44,31,40,50
84,252,74,74,54,32,42,50
86,277,79,73,53,33,56,58
102,285,73,73,53,34,51,55
104,279,71,71,50,38,51,41
109,338,81,80,50,35,53,42
99,348,77,69,38,36,58,50
99,332,77,69,40,36,54,43
90,348,79,67,40,34,53,43
86,347,88,71,39,29,56,52
69,293,75,71,40,30,53,51
66,295,81,67,38,29,51,54
67,414,87,64,51,30,43,58
58,664,110,60,96,29,45,61
58,793,110,59,109,32,51,63
53,871,120,61,125,34,54,67
45,899,122,75,140,36,93,65
58,868,118,76,142,38,96,61
69,706,102,84,119,40,98,61
70,590,96,87,108,38,97,53
72,475,83,82,91,41,105,51
82,420,103,70,65,39,79,43
71,382,107,80,51,36,76,51
71,366,120,75,42,38,86,50
74,327,125,66,38,37,86,49
77,332,132,64,27,33,82,43
65,343,114,67,29,34,78,44
64,348,125,57,32,35,89,36
77,347,117,56,35,29,76,43
95,328,115,58,38,31,77,42
93,323,107,55,40,29,70,46
94,339,108,50,39,29,90,45
101,320,98,54,40,27,77,55
93,318,102,60,42,31,78,57
85,415,105,56,71,31,72,58
86,640,148,58,119,34,84,58
88,674,164,60,123,32,61,66
91,697,178,59,132,33,67,66
86,779,184,51,142,33,74,64
76,791,187,56,134,33,80,69
83,645,157,60,106,30,70,67
82,631,138,62,107,32,65,62
73,665,129,77,99,36,67,55
76,567,121,80,87,34,55,50
72,497,112,81,83,35,57,40
61,474,111,79,72,34,55,43
63,430,105,82,69,39,65,43
58,346,80,65,62,32,62,39
52,350,57,65,57,36,73,47
65,488,60,63,74,35,70,48
66,754,66,75,106,37,72,47
64,864,70,79,108,32,63,47
74,929,84,80,119,34,60,68
77,953,92,79,125,29,53,67
77,902,102,79,119,29,47,73
87,723,101,65,102,27,43,80
89,610,107,63,102,29,57,78
85,550,100,62,89,30,61,60
82,498,93,60,80,28,58,59
72,474,79,63,77,31,57,53
73,445,74,72,56,31,63,50
76,410,69,62,51,32,51,50
75,349,70,64,51,31,47,53
82,361,68,65,51,32,46,50
93,360,66,63,45,34,54,50
84,341,69,54,45,33,56,45
79,343,65,50,38,31,55,55
76,353,69,65,42,28,54,57
69,332,71,69,40,29,60,58
59,331,77,69,41,28,67,57
56,324,73,71,45,29,63,52
66,484,74,77,77,33,64,40
72,732,93,73,110,34,63,40
77,775,104,76,125,33,66,49
82,809,123,85,133,32,49,60
92,827,127,81,137,31,51,65
90,755,128,82,127,28,64,68
94,542,115,74,100,28,70,62
91,523,107,66,83,29,65,55
87,485,79,60,71,29,67,54
115,450,78,70,66,30,63,55
159,435,81,78,58,29,63,53
167,404,76,84,61,33,57,54
173,374,75,95,59,34,57,53
185,368,78,95,67,32,71,49
183,383,78,91,64,35,82,47
158,393,76,92,64,36,73,52
149,420,84,87,60,31,74,51
151,399,85,75,56,29,76,50
143,390,82,74,42,33,64,59
152,382,93,75,43,31,54,58
138,371,96,65,38,33,69,56
143,491,98,64,63,35,92,61
148,718,139,68,119,36,89,62
141,770,156,79,125,35,91,52
151,783,162,79,132,38,97,62
169,808,174,74,150,39,87,64
164,753,175,80,147,40,61,59
156,602,150,79,115,42,59,62
164,565,140,75,116,39,57,64
125,589,128,73,108,38,40,53
143,600,107,78,93,36,55,52
150,719,101,75,102,38,57,61
148,785,126,83,109,45,68,56
155,861,140,78,137,48,67,49
157,937,143,91,150,49,73,49
140,1080,157,103,149,51,63,54
132,1053,167,102,147,49,77,50
135,1050,147,95,147,39,69,53
126,1023,132,97,125,35,68,53
132,928,145,81,120,37,62,55
111,721,136,69,117,31,61,58
120,613,137,66,108,31,44,57
114,455,163,72,107,32,47,57
127,298,168,70,110,32,48,62
121,260,164,69,110,33,49,62
120,489,166,59,117,35,50,55
185,620,160,58,128,35,53,56
192,718,134,62,120,34,51,54
182,761,127,60,105,33,50,48
177,801,110,66,95,28,47,49
187,708,94,71,82,28,47,44
113,619,84,77,55,30,43,42
100,529,89,79,49,32,43,52
112,494,93,86,53,34,44,56
119,448,100,85,49,34,57,55
109,444,103,87,49,35,63,54
112,419,101,86,53,33,61,51
111,404,95,75,54,37,63,54
103,395,94,66,50,35,71,53
102,408,94,64,50,35,68,56
114,475,96,54,58,32,61,57
121,648,112,59,93,33,57,59
128,715,128,63,116,29,54,46
118,731,135,77,121,28,56,44
121,738,136,80,128,29,50,42
140,688,147,87,135,33,50,43
130,521,135,87,118,36,63,54
129,395,121,94,104,36,63,58
150,327,117,81,102,42,63,67
155,278,138,77,105,48,64,65
123,264,144,72,101,57,63,69
140,430,160,67,121,54,52,61
141,596,159,54,132,55,59,70
121,674,154,54,131,52,63,63
111,729,134,69,123,44,61,63
114,754,116,69,114,34,61,60
110,712,96,74,86,40,65,66
138,606,104,74,52,40,67,62
136,548,103,78,48,38,54,60
148,491,106,67,46,50,57,65
154,441,104,68,45,49,63,63
143,401,114,71,47,45,82,63
135,388,105,74,45,44,75,58
143,360,102,69,40,47,87,59
144,366,103,69,38,36,88,57
138,404,109,81,38,33,90,64
137,426,98,72,59,35,84,73
159,645,129,72,96,35,85,71
156,746,157,78,105,48,78,74
147,866,173,80,128,53,79,75
145,1024,188,79,144,56,98,81
145,1106,192,87,138,57,86,87
124,1043,182,104,135,59,85,108
119,1007,169,101,137,45,79,113
134,929,148,101,122,46,85,110
139,734,126,95,101,45,59,109
153,570,121,95,99,46,59,96
137,492,105,74,73,49,60,70
134,425,87,77,56,51,66,57
129,358,93,73,42,47,59,64
127,388,87,87,49,43,58,75
152,385,93,91,60,50,86,77
144,358,108,92,62,46,87,79
151,371,115,92,62,46,87,79
139,379,110,104,63,45,86,75
149,345,109,93,58,46,84,54
125,380,107,80,45,34,62,47
126,388,92,79,39,35,86,50
118,372,89,77,38,34,83,53
124,366,103,72,45,36,80,55
123,368,120,67,47,37,79,59
115,381,128,68,64,37,71,60
131,661,143,70,101,42,50,55
153,687,149,69,108,40,47,55
161,737,148,73,110,39,46,53
161,746,159,75,113,39,46,57
160,787,171,76,120,37,49,60
155,632,168,77,101,30,45,58
137,653,158,86,100,51,51,55
154,636,160,77,96,51,54,56
148,638,144,76,95,52,55,45
149,572,121,75,84,56,53,48
148,637,121,93,113,60,53,48
154,607,155,87,123,46,48,51
138,602,153,85,128,51,46,46
136,591,168,85,131,54,52,54
137,675,215,92,139,59,53,45
139,655,217,77,122,55,54,46
137,760,212,76,115,59,54,48
122,818,213,73,117,56,63,61
122,848,195,77,111,55,59,59
123,790,149,77,98,47,56,60
122,699,142,79,80,46,48,62
121,559,124,86,71,40,47,64
118,410,109,91,59,37,32,54
132,318,112,90,60,42,44,59
138,261,141,86,75,47,47,62
138,309,154,81,95,46,47,58
139,468,158,70,108,46,49,61
155,559,168,82,115,47,50,58
143,620,180,84,123,39,49,50
129,677,167,84,113,41,47,46
139,683,154,84,96,41,50,54
151,607,170,103,84,46,51,45
140,530,173,99,74,45,50,44
142,461,172,100,63,49,52,46
148,446,177,107,62,44,57,47
134,408,179,116,66,48,62,43
117,410,166,114,67,47,70,44
128,404,174,116,67,49,82,51
133,411,172,116,67,49,73,49
130,377,152,114,68,51,75,49
131,501,176,115,87,45,77,49
180,675,195,106,143,44,68,54
177,720,250,100,146,44,55,49
185,730,293,94,157,44,61,50
185,717,308,108,170,43,58,56
192,634,322,115,165,52,60,61
158,397,341,111,134,51,61,60
197,291,309,108,143,48,65,61
189,219,267,112,140,46,64,64
200,327,258,114,127,48,72,62
198,502,238,103,126,38,62,54
208,604,206,108,115,40,60,56
195,694,198,121,99,40,56,59
194,730,210,127,92,41,52,54
201,692,231,121,91,37,51,52
199,596,228,127,92,40,52,57
191,529,213,126,86,40,52,54
159,430,197,121,86,38,58,48
157,396,191,119,81,36,59,47
170,476,169,137,91,39,51,48
165,493,160,127,79,38,59,51
166,477,163,129,76,36,61,51
170,495,180,137,71,43,61,61
181,489,195,134,71,44,66,65
166,516,190,106,75,41,64,70
172,728,214,123,112,41,56,65
226,743,244,129,120,50,58,62
227,753,245,114,129,47,50,58
220,762,237,120,137,52,48,62
206,714,255,123,145,61,63,55
207,493,261,106,125,66,63,57
132,546,246,106,137,61,62,62
138,615,247,121,143,63,65,58
134,727,241,114,141,59,68,52
148,774,216,105,121,48,78,55
154,787,194,126,127,44,80,51
151,728,181,116,108,40,79,46
166,646,167,104,89,38,77,47
165,496,166,109,87,52,80,47
157,365,194,120,88,56,59,45
144,265,203,104,74,56,58,50
144,268,238,100,89,59,55,52
116,269,244,97,102,60,54,53
139,476,245,96,113,47,41,53
133,580,223,85,122,42,35,52
136,640,215,81,126,41,32,49
139,666,177,90,115,39,42,47
150,670,172,87,102,33,44,45
134,555,166,89,84,35,44,52
130,460,166,88,68,35,44,50
140,437,159,93,60,38,46,50
145,399,166,85,59,43,38,54
137,380,167,96,60,45,37,112
134,372,161,99,66,45,45,134
164,403,160,98,65,45,45,136
158,337,160,90,62,46,43,136
150,356,153,95,61,42,42,142
178,420,195,96,64,38,40,108
179,484,226,96,81,43,29,76
159,644,241,103,130,41,28,79
157,697,259,100,147,36,30,83
179,702,260,100,161,35,31,77
161,672,236,101,170,36,31,70
169,625,269,94,169,30,29,65
164,411,272,88,138,33,30,59
160,304,248,94,122,39,27,50
151,244,252,97,111,45,30,51
150,230,254,93,98,56,32,50
150,411,196,97,98,55,35,52
155,535,179,128,94,55,36,51
168,610,185,130,101,50,34,50
150,667,174,128,95,46,32,36
140,684,159,126,92,36,33,31
133,630,176,136,74,40,31,29
128,555,174,113,80,39,30,34
103,495,164,114,76,38,32,37
107,465,168,120,75,39,33,45
94,445,163,117,74,35,29,44
110,401,160,113,76,33,35,46
119,406,160,110,68,38,36,50
132,411,168,108,59,43,38,60
133,384,164,102,58,48,37,58
141,401,162,104,61,49,37,58
134,523,169,103,77,49,30,56
127,706,180,109,91,47,33,59
141,745,201,115,115,54,36,49
167,808,251,111,128,53,40,45
164,915,281,116,148,57,46,53
169,990,277,101,158,58,46,55
170,883,283,85,151,55,47,46
164,864,278,69,142,45,42,43
136,829,238,69,134,38,36,44
136,729,225,68,114,35,33,36
131,577,208,78,89,35,32,33
137,543,193,82,86,34,28,31
124,545,190,90,72,38,28,31
124,538,199,90,61,43,30,32
130,504,187,85,56,39,31,52
113,606,193,93,63,40,34,56
148,791,188,91,84,41,37,59
152,792,169,86,99,36,35,61
151,779,143,84,105,34,36,60
142,771,136,87,106,39,31,44
145,646,150,81,114,41,29,44
110,386,157,88,103,51,31,45
108,337,188,88,101,54,33,41
114,433,200,87,109,58,35,43
118,514,198,79,108,54,35,40
137,705,228,81,125,56,43,42
132,760,223,78,123,47,39,42
124,764,197,80,115,44,40,49
136,712,200,81,102,39,38,53
134,666,221,91,109,39,39,58
125,469,184,78,80,29,29,54
123,363,212,72,85,27,29,53
144,324,271,82,97,28,29,54
131,280,265,79,98,25,29,57
140,365,246,81,112,26,29,53
135,502,254,89,119,30,30,52
138,584,237,90,121,31,29,50
119,645,182,77,114,31,25,45
111,720,176,76,113,33,24,34
114,712,185,65,93,31,22,34
151,638,181,57,80,34,23,37
142,585,171,62,74,35,32,43
142,550,153,64,68,33,33,42
145,467,157,65,67,34,34,43
143,426,150,68,67,37,34,43
97,392,136,61,65,36,33,40
118,425,163,58,58,35,27,31
128,409,165,67,58,38,30,41
166,431,172,70,55,37,32,47
165,560,177,70,74,37,33,46
174,751,220,73,144,33,32,49
164,778,213,71,148,35,31,51
160,799,261,62,154,33,29,47
139,791,266,66,167,29,28,41
166,694,308,73,169,30,29,42
160,488,289,88,132,30,31,49
172,372,293,112,134,31,33,50
184,289,254,115,127,34,34,53
206,240,264,115,127,42,35,53
181,328,226,112,134,45,35,54
202,514,242,100,127,48,37,49
195,605,244,70,127,51,43,49
184,676,284,69,131,50,42,44
150,733,269,75,117,44,42,46
173,731,272,94,98,42,40,44
174,636,323,104,90,39,37,40
174,595,315,106,78,32,29,36
180,585,317,114,73,36,31,32
200,562,329,113,77,35,31,26
191,572,318,102,72,32,32,34
165,555,251,95,71,32,33,39
162,559,260,99,70,33,36,41
164,541,227,101,74,40,35,45
141,516,227,105,72,44,32,45
139,613,269,104,75,42,30,40
179,677,283,104,111,44,30,43
198,729,300,102,130,49,36,51
192,731,311,89,138,47,38,51
189,787,300,82,138,54,43,51
201,765,289,78,153,56,44,50
182,801,274,97,137,60,47,46
172,831,323,122,129,62,43,34
180,876,315,129,128,58,40,31
179,879,312,135,125,52,38,35
159,803,299,146,106,51,38,38
160,697,301,131,93,47,36,40
161,578,260,110,82,40,34,47
156,475,295,106,67,40,36,49
158,370,291,93,70,41,35,50
163,353,292,77,65,38,36,48
164,350,297,88,64,34,36,45
154,319,262,92,67,36,36,40
144,268,209,89,80,35,35,41
161,216,238,101,88,31,33,39
163,435,237,109,103,34,33,40
177,597,247,123,116,43,36,39
183,653,267,115,118,43,37,37
191,719,267,114,108,44,36,33
175,774,244,102,101,47,37,31
166,685,222,95,85,45,35,29
149,573,197,65,69,37,26,28
137,540,160,74,70,38,25,29
136,457,167,81,78,36,31,31
140,416,166,108,82,38,29,31
163,438,206,107,81,39,29,40
152,434,196,118,80,41,30,40
155,427,197,115,75,38,32,38
153,464,192,115,70,39,27,34
152,459,201,96,65,37,30,42
120,480,164,98,66,36,32,38
133,665,198,89,119,34,34,39
136,708,195,91,121,35,32,41
142,713,200,84,122,35,31,42
134,717,207,89,121,35,32,36
136,723,237,86,126,40,31,36
147,582,220,92,99,45,33,34
144,558,270,108,108,51,38,33
139,609,281,117,123,53,39,32
140,688,274,126,129,57,41,31
154,757,273,132,126,57,42,30
138,808,263,135,120,57,41,43
147,799,256,129,117,50,38,45
166,740,246,127,100,49,42,51
191,644,257,118,99,44,39,54
186,508,239,118,97,39,35,54
179,378,235,104,85,33,32,50
172,314,238,93,81,35,32,57
185,301,239,100,88,39,29,59
190,287,225,95,92,41,35,64
222,272,242,90,120,45,36,67
237,519,256,111,137,51,40,68
267,643,292,121,142,52,40,68
337,709,378,135,150,61,42,68
359,766,448,157,164,64,45,68
402,829,487,172,150,67,52,76
417,759,547,194,145,75,54,73
433,747,546,198,160,80,60,71
412,765,492,190,165,76,63,69
412,773,479,184,160,78,61,69
435,799,434,181,175,80,61,61
438,785,362,148,170,72,57,60
418,745,307,139,151,68,54,61
396,672,331,147,155,67,50,62
411,633,257,139,145,62,52,56
359,621,268,128,125,53,46,52
386,835,339,146,134,56,50,54
406,842,341,148,157,54,48,47
390,860,375,131,146,48,44,43
353,848,379,131,154,48,40,45
340,785,446,135,158,52,40,54
289,479,396,116,150,47,38,54
279,386,414,107,125,45,36,59
314,323,385,143,134,58,43,58
300,287,393,145,128,57,41,57
295,276,321,142,133,59,45,48
308,344,327,148,130,63,43,45
299,529,305,150,143,63,46,48
282,595,281,127,134,56,43,53
292,653,256,121,127,53,43,51
312,673,223,114,113,46,38,50
293,679,204,108,113,39,37,50
307,609,190,110,97,41,36,42
287,553,171,97,87,38,32,40
306,533,212,94,86,40,37,50
258,504,209,107,83,42,37,56
302,547,197,101,89,43,37,55
284,748,199,95,121,40,32,56
294,778,201,95,140,36,32,51
319,804,196,106,158,37,32,48
339,869,194,99,164,37,31,42
302,874,192,107,162,38,28,46
296,832,219,121,140,43,29,44
304,940,236,116,125,45,31,44
252,1006,252,101,117,45,28,37
236,1087,274,100,127,48,33,37
224,1151,292,95,140,44,34,42
201,1148,301,87,150,42,34,49
190,1068,306,104,157,40,33,54
183,1073,277,104,169,37,35,57
178,935,266,100,165,33,34,65
183,791,275,109,158,34,32,61
224,623,278,114,158,34,34,60
216,562,274,108,156,33,34,66
209,297,274,106,147,33,31,64
210,268,295,110,139,36,30,60
233,335,290,101,146,37,33,65
246,486,273,91,135,36,30,60
262,568,277,136,135,45,33,48
263,653,265,147,120,46,33,47
269,714,250,155,121,47,32,39
251,714,252,153,104,48,32,33
211,627,228,149,96,47,32,32
175,558,201,106,75,41,31,33
209,469,217,104,69,40,32,36
207,445,228,95,66,34,29,37
227,454,215,100,76,39,32,47
234,439,225,113,80,37,32,48
256,506,233,112,79,36,34,49
235,506,213,104,75,36,34,49
225,453,209,110,68,39,36,49
216,516,209,103,81,32,31,36
217,782,198,102,112,35,37,48
215,761,209,105,132,34,38,48
256,762,253,112,141,35,41,60
260,767,251,101,150,32,44,63
266,691,250,106,145,31,45,66
273,350,292,152,159,33,42,84
261,282,292,163,156,40,39,96
247,243,296,178,160,39,35,92
312,215,304,183,159,48,36,94
341,464,344,191,172,49,41,103
366,635,322,152,147,56,42,140
375,707,321,139,134,50,44,161
372,787,304,116,122,51,45,176
325,814,295,112,113,46,50,198
309,739,246,94,80,45,57,200
277,628,254,89,65,39,57,169
280,585,233,88,71,38,57,144
294,537,227,94,65,37,58,138
329,530,233,87,61,35,51,109
313,510,220,86,63,34,41,117
295,502,193,86,66,30,48,149
292,496,201,86,65,34,47,150
267,436,183,70,66,33,47,147
238,416,150,75,84,35,47,150
217,470,174,89,109,36,44,134
220,648,184,112,128,37,44,98
191,650,198,116,126,42,46,94
261,744,255,131,160,48,51,77
232,842,261,131,163,49,53,61
244,927,296,126,163,48,55,66
243,882,296,106,153,50,47,56
274,934,297,121,175,47,46,57
190,915,245,107,147,43,38,57
191,923,249,108,156,41,36,52
188,879,194,103,157,44,36,53
219,804,204,104,153,41,34,72
191,719,200,85,131,37,35,231
204,635,220,96,142,39,33,296
209,450,229,93,122,38,31,300
241,396,278,111,131,43,31,303
220,514,322,142,137,44,33,305
260,596,334,148,139,48,48,222
254,658,327,144,130,44,50,136
278,704,310,143,127,44,53,138
254,665,293,134,99,37,51,136
250,614,234,98,88,36,57,124
201,582,210,92,86,33,45,109
220,565,217,106,86,39,47,97
187,570,236,126,99,37,46,83
194,535,202,155,105,38,47,73
215,523,194,163,109,39,40,67
210,503,196,159,104,41,36,60
233,508,190,146,99,37,37,46
267,473,166,152,92,37,33,40
262,479,164,121,78,36,45,38
250,457,177,128,78,37,50,59
253,422,178,135,86,33,51,60
206,468,186,135,98,33,50,59
174,664,196,120,153,38,52,60
188,695,198,122,155,38,41,57
176,700,185,116,157,38,34,39
173,715,174,106,153,39,33,42
181,641,187,105,147,39,30,47
161,412,177,103,92,34,26,47
123,347,191,103,96,41,30,47
118,350,193,100,95,46,32,44
126,429,196,109,97,50,34,39
163,562,181,130,99,51,34,33
165,698,173,145,106,50,34,33
169,762,156,148,98,48,30,39
178,774,197,148,101,41,28,39
186,721,195,151,102,38,27,39
145,631,201,143,97,35,26,39
137,474,260,139,83,37,26,38
136,363,262,138,90,34,27,35
152,296,230,159,102,39,28,40
132,310,232,153,107,39,29,44
131,313,241,145,118,42,31,46
142,443,186,138,132,48,36,48
151,582,199,144,140,49,35,46
152,642,196,121,126,47,35,41
153,679,185,118,120,45,32,42
176,719,184,119,117,42,32,41
172,680,197,118,104,38,28,40
172,584,180,110,85,31,27,40
151,533,182,110,84,31,25,38
162,503,201,118,80,32,28,31
146,514,198,119,73,33,33,39
163,528,183,102,69,29,34,38
181,518,222,106,83,31,36,38
219,512,240,118,97,39,51,37
222,532,234,118,132,43,50,37
225,650,222,115,163,43,49,39
216,673,254,163,180,47,52,39
208,698,267,194,204,54,52,42
193,706,258,195,214,52,45,44
196,680,270,191,206,49,44,43
208,498,280,199,184,49,44,46
252,389,250,185,180,44,41,49
244,300,232,143,150,37,41,48
235,225,238,129,124,33,33,50
241,157,269,136,126,38,32,52
237,222,264,125,134,47,41,43
180,421,267,91,123,47,41,41
183,576,254,92,127,46,40,39
184,650,246,96,135,48,41,34
171,697,189,87,125,45,41,32
155,736,213,101,119,40,42,40
192,674,208,109,115,42,43,38
188,594,207,114,107,42,48,37
191,581,199,115,97,39,49,38
185,569,201,112,87,37,51,39
187,533,162,101,78,35,44,30
159,517,163,107,76,32,46,37
151,495,179,107,71,34,41,41
132,421,219,117,84,39,40,42
140,379,214,124,80,40,54,40
140,355,210,118,79,37,51,42
135,411,212,122,88,38,48,36
146,559,222,120,127,39,49,36
165,660,208,104,130,49,55,46
161,727,271,107,144,53,44,45
153,792,281,114,154,54,54,44
153,940,294,103,160,57,57,42
147,1002,274,105,143,62,56,39
126,986,255,102,133,51,52,27
137,980,203,97,130,51,52,35
143,948,240,102,126,50,41,33
156,805,227,104,111,48,38,40
153,622,214,99,90,39,37,40
158,566,244,100,92,39,32,43
160,545,263,101,76,37,31,41
161,520,255,139,67,40,32,43
158,460,252,148,73,42,32,43
163,529,252,149,82,41,40,43
178,652,230,152,122,43,47,45
166,670,197,148,130,38,47,44
185,688,152,115,128,36,47,43
181,702,212,124,135,33,58,42
180,677,272,137,141,46,57,44
159,591,283,136,119,50,55,45
161,609,284,137,114,51,55,46
154,691,284,126,118,51,54,46
168,812,254,113,109,52,60,44
172,824,185,97,96,44,56,42
169,809,165,100,84,39,53,37
189,748,188,103,80,37,54,34
173,628,216,112,78,35,56,44
158,456,216,98,78,35,44,44
165,367,221,108,77,36,46,46
181,332,254,105,83,37,47,45
169,316,245,109,84,37,48,46
201,320,244,102,100,35,44,36
198,333,228,107,125,38,37,31
203,491,256,122,165,42,48,37
185,580,228,124,177,43,47,44
192,648,247,115,174,44,48,49
164,690,224,121,164,45,52,53
170,730,278,142,143,44,54,61
160,649,261,121,95,39,46,60
183,578,274,118,60,37,42,56
168,535,271,137,68,38,42,52
166,540,308,143,77,40,39,57
164,454,278,117,74,36,65,53
169,461,285,126,74,40,64,56
150,461,297,131,82,48,65,56
172,502,280,127,81,47,64,55
203,578,293,130,132,52,70,47
203,669,296,135,141,55,48,54
193,683,299,135,149,59,49,50
195,701,280,136,151,56,49,50
183,661,297,130,164,59,49,51
174,543,298,134,133,56,39,61
183,421,324,155,143,54,33,56
188,346,341,158,143,54,36,55
198,260,347,154,139,52,38,62
192,177,335,149,129,60,47,65
176,229,318,141,131,59,48,63
174,462,343,113,121,58,48,61
181,589,367,144,144,58,47,63
175,663,398,173,145,61,45,55
185,732,420,177,139,52,36,51
181,762,428,174,128,54,40,51
186,701,402,179,123,52,39,62
226,644,381,145,85,45,37,61
258,604,364,114,82,41,34,61
322,551,351,107,79,41,37,63
324,529,337,103,73,35,31,56
322,482,334,114,62,44,31,41
298,448,307,123,56,45,33,40
289,443,302,117,56,45,37,55
218,441,291,118,54,46,36,53
223,412,286,118,53,47,36,55
222,505,266,97,76,40,36,53
210,693,361,115,108,38,36,54
184,728,385,123,121,52,39,38
191,788,388,129,151,53,41,40
176,881,390,129,157,57,44,42
171,998,392,131,159,57,43,43
231,1019,310,116,147,61,45,49
228,1105,275,113,157,47,45,50
228,1082,314,119,139,46,41,50
241,1042,306,118,140,41,37,50
260,904,296,126,136,45,39,49
231,782,346,136,136,49,42,47
250,618,328,129,111,49,36,43
242,569,293,117,99,46,37,48
229,538,286,117,93,47,36,47
230,634,280,101,91,44,36,47
198,820,209,75,89,34,30,43
187,823,222,108,96,32,30,44
230,828,238,114,111,38,31,37
236,797,261,127,120,36,31,41
219,700,269,129,117,36,32,52
230,411,269,138,120,44,36,50
224,413,313,121,124,48,39,52
187,478,303,125,125,47,40,53
187,577,276,104,128,46,41,50
196,706,263,105,143,47,39,37
205,782,260,96,155,40,39,41
198,828,205,105,152,40,37,51
224,793,202,101,142,36,37,60
224,736,231,108,139,38,38,70
232,600,235,110,118,39,38,76
235,485,267,110,94,39,37,80
259,382,283,105,123,35,42,75
233,348,271,116,121,35,43,68
238,298,279,119,127,41,43,60
218,260,293,124,135,43,43,50
214,306,308,126,158,43,40,41
227,431,289,126,140,45,32,37
235,571,343,114,155,52,35,37
230,632,333,109,148,52,48,33
241,695,321,105,140,50,51,36
257,694,283,105,113,52,53,38
227,620,271,96,103,49,54,37
221,529,224,95,78,40,52,52
228,476,206,102,70,39,39,52
248,417,261,108,66,40,37,54
215,400,262,98,64,37,34,55
214,403,269,98,64,38,31,55
197,373,255,102,68,40,28,37
179,385,251,96,61,36,26,43
146,441,183,90,68,39,26,48
141,556,168,94,82,38,25,45
134,686,216,92,141,41,26,46
137,724,197,84,145,43,31,47
154,737,213,100,154,43,33,42
148,707,215,97,151,38,34,36
159,602,236,99,151,39,32,42
176,421,258,104,103,41,36,53
204,332,316,110,106,42,33,53
195,302,352,105,91,52,37,54
201,346,477,143,116,59,39,54
233,516,506,170,138,62,43,50
251,589,477,169,143,60,41,40
245,658,477,169,144,57,41,43
272,710,446,170,148,54,39,42
312,725,350,142,132,49,35,42
295,696,326,143,104,50,33,41
272,706,337,147,98,52,38,49
273,825,317,151,110,54,39,49
285,800,341,144,145,49,38,59
234,760,327,142,155,46,39,61
233,720,338,107,155,41,40,61
321,709,342,96,156,37,35,55
427,576,355,99,149,34,35,53
414,609,338,110,114,42,34,41
413,654,323,123,118,44,33,35
456,670,329,134,127,42,33,35
462,702,326,144,146,49,40,35
389,758,318,147,147,56,43,34
397,791,317,142,155,59,46,35
405,887,322,142,152,63,45,37
362,970,276,135,154,63,47,44
288,1008,262,125,163,58,45,44
245,968,233,111,158,53,43,49
269,896,230,106,148,40,40,54
276,761,241,122,145,34,41,62
286,591,255,121,135,34,39,62
278,409,284,126,128,39,37,68
284,277,314,134,128,44,37,67
262,264,317,143,147,49,36,64
243,286,293,114,160,49,35,57
239,434,283,120,160,50,35,50
233,557,307,154,144,52,33,41
237,612,271,153,144,54,32,42
221,685,260,157,129,51,34,39
231,707,257,159,109,51,33,37
233,649,251,152,102,49,30,35
261,625,211,114,85,43,28,33
260,608,222,105,82,34,28,28
271,584,253,101,74,35,27,28
259,570,269,104,67,37,35,30
253,568,271,109,67,37,37,29
234,483,272,125,72,39,38,29
248,469,272,125,64,42,37,30
251,422,321,141,85,50,40,32
268,488,330,149,93,52,34,29
268,733,354,155,156,52,34,29
307,769,341,150,161,57,37,35
296,759,378,150,176,56,35,34
292,747,338,127,175,47,30,32
298,684,352,120,187,44,30,33
323,373,339,126,152,47,29,36
298,257,360,135,160,41,35,36
334,197,324,151,148,44,36,37
333,248,320,159,159,45,40,45
351,366,312,167,142,47,41,45
338,567,305,163,140,45,44,45
340,628,267,149,136,43,38,45
336,675,247,128,133,42,40,50
330,687,228,118,111,39,36,45
332,653,212,116,126,46,35,45
348,518,235,130,125,48,33,46
341,471,237,170,126,48,32,41
304,457,271,193,133,48,34,37
357,480,312,202,136,55,41,38
347,461,302,204,131,51,43,39
315,462,279,195,121,50,44,39
332,490,283,161,106,52,46,44
338,490,294,170,105,49,42,41
285,477,286,182,106,47,36,39
270,541,299,182,119,45,35,48
314,759,305,194,142,42,33,55
333,761,328,196,149,45,30,56
332,782,309,242,169,48,35,56
348,809,298,237,179,52,38,57
349,877,297,234,179,58,42,56
342,770,322,227,173,57,42,49
293,846,296,243,170,58,43,47
319,891,315,190,147,57,41,49
312,891,287,175,134,50,38,51
302,790,266,169,113,41,33,44
258,703,232,169,94,41,32,43
267,574,221,147,98,38,30,44
261,433,203,129,99,41,32,43
237,333,221,147,97,41,34,43
237,314,242,144,102,41,35,47
266,316,272,158,119,43,39,50
289,308,273,236,139,41,40,50
284,451,279,300,212,37,37,52
288,564,290,306,226,40,39,50
305,662,269,318,229,42,36,43
295,752,300,308,230,45,32,37
282,791,318,253,218,43,31,33
331,745,292,173,155,46,30,31
328,698,288,155,138,43,43,34
331,637,301,160,154,51,48,35
344,566,275,182,154,50,49,38
339,532,319,197,161,55,62,39
269,542,329,200,151,52,61,34
256,489,312,207,142,51,50,29
251,489,311,199,121,46,46,31
246,491,292,177,101,48,44,34
236,494,239,169,101,42,28,32
230,579,228,194,119,44,29,34
256,657,269,185,167,47,31,36
235,713,265,172,169,49,32,36
202,712,263,179,188,49,32,34
237,713,259,180,186,50,29,35
246,618,259,138,177,58,31,37
240,542,271,139,158,57,32,37
242,405,289,144,167,60,32,37
236,373,278,133,147,81,42,45
215,377,283,121,136,82,46,50
286,407,280,122,144,77,45,49
280,499,241,111,118,79,43,49
291,639,238,101,93,74,42,47
297,735,255,164,101,49,36,38
292,749,257,161,109,47,32,31
265,747,256,168,101,45,36,30
260,684,251,167,99,38,35,33
257,565,247,177,103,39,38,35
257,409,239,129,93,38,35,33
317,351,230,132,76,35,37,39
279,290,237,119,65,39,33,40
287,303,246,129,71,45,36,45
307,292,240,116,99,44,48,48
308,565,232,107,127,44,49,51
232,667,238,114,140,47,47,46
227,749,226,122,143,48,48,45
225,785,200,112,142,49,48,42
239,817,192,120,127,50,38,39
251,678,180,118,102,49,35,39
257,597,148,108,90,47,39,45
294,516,144,102,86,52,38,45
316,494,158,104,82,52,38,40
283,458,155,102,73,51,35,38
283,439,152,102,70,50,34,35
275,410,150,115,70,51,33,32
261,386,160,113,73,46,33,33
243,372,147,108,69,42,33,36
228,379,131,97,68,42,32,38
263,453,152,120,95,48,35,40
281,445,156,126,98,59,33,36
265,453,150,124,93,62,33,41
261,471,163,137,102,62,34,40
264,450,164,153,119,61,34,39
220,503,158,135,109,58,30,36
216,676,172,113,133,46,30,37
220,736,207,118,151,43,31,32
202,787,241,113,162,47,33,28
190,905,266,89,170,58,38,30
190,938,274,84,177,58,40,30
204,851,264,90,156,58,39,29
207,841,250,108,146,56,37,29
201,809,209,108,130,51,32,30
204,693,175,110,111,40,27,33
211,580,154,115,107,43,26,33
203,664,195,119,164,44,25,35
179,646,182,94,168,47,28,44
235,622,228,96,170,46,31,48
240,615,243,105,176,48,30,47
231,595,246,103,171,44,29,47
210,449,228,99,136,44,32,50
265,373,227,100,136,39,29,47
243,290,199,89,143,39,27,42
242,249,186,79,142,35,27,40
237,364,192,111,159,32,29,43
257,474,187,115,157,37,29,50
231,566,186,122,151,42,31,49
213,624,179,134,152,42,31,50
220,650,194,146,145,43,29,51
225,619,201,123,124,47,31,49
205,697,209,118,127,43,28,40
168,702,218,114,138,42,26,42
229,680,217,105,135,43,28,48
243,809,208,95,135,47,30,49
241,813,249,104,140,45,28,48
236,716,240,113,124,43,27,46
249,674,224,121,110,44,29,41
247,663,221,119,98,42,28,35
236,519,219,115,97,42,26,42
237,521,172,117,107,47,26,42
238,646,177,108,139,48,25,42
243,650,186,102,137,47,26,45
223,672,199,108,147,53,34,45
221,643,193,112,149,49,34,41
221,640,190,111,142,54,41,41
234,526,198,109,117,59,43,44
225,592,209,109,126,59,42,40
183,691,210,108,114,60,38,39
208,792,213,100,117,59,38,33
233,825,194,91,103,51,32,33
229,817,190,117,90,43,31,30
228,745,171,116,75,41,32,39
242,620,163,118,77,31,30,43
199,462,163,121,68,31,27,49
191,329,190,122,68,32,27,49
219,240,194,96,69,35,30,49
232,235,215,96,82,34,28,42
229,229,221,90,81,37,28,38
227,538,214,82,108,38,32,30
200,692,199,82,120,36,33,28
166,737,185,89,123,36,28,27
145,771,187,96,114,39,29,32
119,795,194,92,113,36,28,31
119,639,193,93,90,34,26,32
138,482,184,92,70,35,28,32
124,441,194,92,60,35,30,33
122,422,193,95,59,31,31,47
133,400,169,94,61,32,33,49
150,408,172,95,55,34,34,50
135,408,187,98,65,42,30,52
132,392,187,105,78,42,30,53
142,379,185,90,78,42,26,38
145,366,184,91,77,46,25,40
209,356,182,95,79,44,30,55
223,338,166,95,74,41,29,56
225,320,156,85,61,38,28,55
218,290,145,93,61,36,28,56
215,308,147,89,58,31,28,53
141,315,142,85,56,32,25,37
145,409,156,83,76,31,29,47
136,668,152,75,97,33,32,45
131,751,157,68,107,40,36,46
126,799,170,78,122,50,40,47
124,873,175,76,129,53,41,47
97,861,173,77,124,51,37,33
102,736,179,75,108,53,36,33
102,673,194,75,103,48,33,31
96,611,175,62,86,38,29,34
94,511,167,67,78,35,25,39
125,474,161,63,64,33,25,42
128,394,175,69,65,34,26,43
128,352,135,73,56,35,35,41
128,363,162,78,55,38,37,39
128,347,181,79,52,42,42,39
100,342,180,83,55,43,45,37
96,336,170,77,46,39,43,41
92,334,170,74,45,40,36,42
95,311,143,68,42,35,34,42
98,326,128,63,42,29,27,36
84,323,126,58,40,29,25,36
81,338,114,55,41,32,27,36
84,338,124,57,44,30,30,35
96,528,127,62,67,33,27,34
109,756,128,69,92,36,29,64
113,985,136,86,109,39,32,80
120,1052,151,96,127,37,31,80
126,1068,158,96,134,36,27,81
113,1003,163,92,131,37,28,83
114,846,170,86,114,36,26,63
111,563,159,62,101,33,22,40
112,441,143,58,83,34,26,39
105,406,137,53,68,34,28,37
109,378,137,64,55,33,32,33
102,342,132,71,56,31,31,33
114,375,151,83,49,31,33,35
98,360,160,87,44,29,30,29
100,367,150,87,46,29,29,29
102,374,143,85,39,27,26,28
100,394,136,84,39,26,26,26
105,360,116,78,41,25,25,27
122,373,87,65,35,24,27,35
118,374,92,63,35,23,27,34
118,376,97,58,38,23,25,35
140,391,100,58,36,24,25,36
132,567,99,50,55,24,24,33
127,741,120,56,94,26,24,26
131,792,131,80,105,27,28,37
130,816,122,85,117,30,31,50
100,844,114,84,125,31,31,49
94,760,117,86,124,31,31,50
92,592,96,98,102,33,30,55
88,541,81,91,97,34,26,48
96,499,106,103,94,37,27,33
105,427,112,105,91,37,27,39
106,382,116,106,83,38,27,38
100,348,120,93,78,37,24,31
105,316,118,95,74,36,28,32
108,316,114,83,60,32,28,38
95,340,113,79,52,31,28,37
103,405,120,80,53,32,28,42
106,425,116,84,54,32,32,47
99,444,137,75,55,31,28,50
91,427,132,70,52,31,26,45
93,429,135,71,49,31,26,40
87,396,126,72,46,30,26,35
87,573,159,67,61,29,23,28
91,795,175,62,110,37,29,34
83,850,179,58,125,33,28,43
87,879,179,63,138,35,31,49
87,893,190,58,143,32,31,49
80,820,168,58,140,34,32,49
81,633,149,57,102,29,31,41
85,591,152,63,86,31,30,35
96,560,149,56,66,31,29,40
100,540,139,63,56,32,28,39
103,509,139,63,49,33,29,40
100,462,117,62,53,31,24,40
96,432,93,65,44,31,24,39
132,453,95,73,48,31,26,27
159,438,93,71,54,35,30,27
245,591,95,72,69,35,32,30
251,790,115,73,91,36,34,31
257,794,122,80,100,36,35,36
236,838,132,69,118,35,32,40
218,838,136,70,121,31,31,47
138,726,146,73,120,27,30,58
200,497,158,74,113,27,30,61
202,484,171,63,112,30,29,61
203,320,182,65,102,31,28,67
227,291,189,69,105,33,29,72
227,244,198,64,112,31,27,68
174,417,202,68,125,34,29,69
166,538,193,66,121,31,30,66
167,620,174,78,118,33,29,57
124,676,163,82,109,34,28,46
101,732,144,88,95,36,27,34
92,670,112,83,64,33,24,26
96,610,126,86,63,33,25,48
91,554,132,77,52,29,25,50
96,523,140,68,53,30,25,53
119,485,133,65,51,27,25,57
117,452,131,71,49,27,27,63
134,433,122,78,55,27,27,328
137,470,138,83,53,29,29,607
146,451,129,86,56,29,28,641
138,432,154,90,59,30,35,646
137,447,156,87,64,29,33,764
119,443,149,75,56,30,34,740
146,393,127,71,60,28,33,545
159,402,139,73,59,29,37,506
165,400,110,74,59,28,30,539
164,424,127,72,56,30,29,495
164,430,125,72,55,29,27,434
144,433,132,71,53,31,30,424
131,446,128,63,50,27,23,428
114,452,124,56,44,26,26,384
115,423,109,74,47,32,27,177
135,409,130,86,49,32,31,150
128,406,119,86,46,30,29,153
155,418,123,89,45,33,30,146
152,410,124,86,43,32,29,131
161,426,120,73,46,26,30,114
143,432,105,78,50,28,27,98
144,440,105,79,51,28,27,83
101,414,120,76,56,26,26,75
99,419,122,80,60,29,28,64
94,401,127,78,54,30,27,56
91,408,124,57,47,32,26,50
90,405,131,66,50,31,25,46
93,400,100,68,46,32,27,33
97,413,99,64,40,35,25,33
96,418,94,65,36,36,25,31
103,485,104,66,56,33,31,38
100,659,107,60,82,34,32,39
97,738,115,70,90,35,33,38
96,890,142,75,113,37,34,37
99,1029,146,77,138,38,41,36
87,1052,140,83,136,41,45,30
96,1055,131,80,126,41,48,37
90,1049,124,70,130,38,47,37
129,937,94,65,111,33,45,38
127,788,96,62,81,30,39,38
138,710,108,56,75,28,29,35
132,568,114,62,64,28,22,26
140,476,112,60,42,28,24,27
109,434,116,59,43,29,26,29
98,418,117,67,42,29,29,47
96,396,119,71,40,31,29,47
104,357,115,85,40,30,28,48
104,361,116,89,41,29,30,49
111,354,118,87,41,29,28,46
122,347,111,82,41,31,28,33
130,394,99,81,43,29,29,35
135,392,114,65,45,30,30,31
132,391,118,66,51,32,28,31
134,411,123,72,55,30,27,30
128,401,120,70,58,28,29,27
130,363,114,69,58,28,28,23
125,421,99,63,72,28,26,28
133,590,121,57,101,25,32,35
128,643,147,64,125,27,33,42
139,686,168,65,134,25,31,52
129,711,174,61,144,22,31,56
125,692,197,66,144,25,35,56
127,544,198,71,136,28,31,51
138,444,189,69,126,27,28,47
134,361,176,74,117,26,25,35
133,274,176,74,115,29,28,34
166,187,165,74,113,26,23,33
160,134,177,91,111,24,21,35
145,385,182,89,119,28,27,35
140,545,184,86,125,29,27,34
143,636,196,87,118,28,28,28
98,699,187,85,112,29,28,26
114,736,159,63,98,28,29,23
127,653,134,69,73,29,24,27
133,583,136,77,58,31,26,34
137,517,112,77,51,30,24,37
142,460,125,80,52,30,26,39
130,443,125,84,51,30,28,42
113,449,137,74,46,27,29,39
110,395,126,62,45,26,28,36
92,385,121,62,41,28,28,34
110,358,106,59,46,31,25,31
104,327,99,51,50,31,24,32
114,318,87,65,48,30,24,35
112,339,107,74,50,28,23,35
115,318,109,73,51,29,22,36
134,331,104,70,46,26,24,35
144,378,140,69,42,30,24,33
149,372,145,55,44,30,27,38
154,414,146,52,54,33,28,44
154,602,161,72,104,30,27,46
117,885,165,80,123,37,28,49
107,986,151,87,136,38,31,52
101,1052,157,89,144,41,28,48
110,1076,169,84,144,39,30,43
139,1024,164,69,120,39,30,41
142,844,170,72,106,35,30,52
142,720,168,67,92,32,25,55
139,625,189,70,82,29,51,92
117,547,170,75,71,31,64,115
122,469,174,75,63,36,72,119
156,390,180,63,55,33,73,113
169,367,184,72,49,31,74,114
167,395,150,80,52,32,76,90
176,391,163,78,53,34,89,62
151,405,158,91,51,30,87,55
129,401,175,101,54,32,87,55
128,414,169,100,53,34,88,47
127,381,200,92,47,36,77,42
146,371,196,92,50,30,52,110
156,362,202,91,53,31,46,119
144,357,181,80,44,32,44,120
130,329,178,72,49,30,49,267
176,344,183,84,53,31,45,312
166,341,179,86,58,33,40,380
164,431,177,78,62,33,41,397
170,509,192,80,71,32,44,397
169,513,189,88,71,32,49,320
148,541,152,81,70,29,47,275
137,547,163,85,67,28,49,137
138,459,169,82,63,29,49,188
143,391,172,81,56,30,48,203
148,377,181,86,58,31,59,430
127,316,184,91,56,36,72,687
161,315,180,122,76,37,81,708
173,348,170,137,79,37,87,709
183,333,178,143,83,38,91,813
182,375,176,149,86,38,80,750
196,368,185,146,85,36,81,531
175,383,189,120,70,38,90,502
160,403,183,116,69,40,96,468
159,396,166,110,66,38,109,232
172,366,168,109,61,40,111,84
157,400,165,114,61,43,107,30
178,380,176,111,58,41,102,16
178,371,181,105,50,42,109,11
163,386,175,115,49,44,101,11
162,395,202,105,43,46,104,11
172,429,208,99,53,42,102,11
146,458,204,103,56,42,96,10
153,466,199,95,60,43,97,10
153,440,194,88,61,48,105,9
145,427,162,82,64,46,97,10
140,397,164,92,65,49,97,13
160,458,145,111,73,56,109,14
162,430,157,135,95,55,92,14
171,458,190,132,100,55,75,14
182,643,212,138,109,54,75,28
176,816,248,129,131,54,74,40
159,890,250,124,129,47,54,47
168,929,256,111,131,45,54,58
165,987,237,111,129,44,73,66
146,918,228,106,132,54,79,63
153,791,173,114,106,51,79,66
171,683,175,111,105,51,80,66
165,639,186,111,84,50,98,67
176,531,199,110,76,46,83,66
180,486,189,108,56,39,76,69
171,428,193,101,59,40,84,65
156,389,197,112,59,46,82,62
152,390,180,109,63,46,66,52
141,369,182,108,64,47,70,46
152,331,197,111,67,46,75,62
168,342,199,109,64,45,67,57
163,370,192,102,62,40,63,61
161,358,187,94,55,40,67,65
169,389,185,91,61,39,69,70
167,379,165,89,61,41,68,53
153,385,165,114,59,41,66,56
168,363,163,105,58,41,68,55
180,434,158,104,79,41,66,51
171,644,197,101,124,39,59,48
176,692,206,108,133,36,53,60
178,701,209,87,136,42,74,60
181,768,215,78,150,43,87,58
186,766,213,81,144,40,84,58
211,639,159,85,109,41,82,53
218,621,154,73,99,42,82,40
228,631,150,76,99,34,71,37
216,591,137,82,88,35,74,34
203,754,148,107,115,48,78,35
176,775,173,124,135,52,85,41
157,856,182,130,145,56,91,42
211,926,182,133,151,66,86,42
214,1037,193,134,161,65,68,69
219,999,213,115,152,58,58,328
258,971,220,97,138,56,52,378
253,910,204,88,133,50,40,379
200,840,236,77,127,37,36,384
200,694,230,65,107,36,34,392
184,544,209,61,88,33,32,247
118,549,193,66,75,29,27,180
152,514,201,76,61,32,42,187
148,467,160,73,54,31,43,182
133,420,177,75,52,33,48,160
138,416,181,76,50,35,48,130
153,347,175,70,54,35,56,105
153,368,171,57,51,34,46,88
162,396,180,60,52,34,47,81
172,400,171,67,57,36,42,76
173,394,162,70,59,34,40,69
160,424,160,71,57,38,35,67
148,405,169,73,53,36,47,64
148,390,174,74,51,37,47,61
166,420,203,98,50,37,52,57
168,435,197,100,49,38,52,50
169,572,196,98,68,32,46,43
150,801,201,98,104,34,33,43
165,847,208,107,128,36,34,46
149,854,192,84,145,33,29,44
142,890,197,79,152,32,31,45
142,872,204,80,152,34,44,46
162,684,199,78,131,34,47,52
147,648,202,77,113,32,48,46
141,633,187,78,93,34,47,43
157,576,185,81,80,35,48,42
169,509,187,81,66,36,45,41
158,488,177,83,67,38,44,30
151,625,145,71,68,36,41,33
157,779,145,65,76,38,46,39
150,941,194,61,106,45,56,40
133,1077,202,62,126,46,51,45
125,1189,209,59,139,43,51,44
135,1215,210,61,141,45,53,44
146,1142,216,57,138,41,48,45
160,1056,207,76,124,36,39,47
168,922,183,77,107,35,52,42
186,790,177,78,87,36,52,41
178,653,209,85,78,34,52,41
174,603,204,84,71,33,53,35
160,526,176,66,58,28,54,34
160,524,188,66,55,28,46,36
138,508,197,66,54,27,50,38
170,490,195,76,44,32,50,35
175,484,200,82,49,34,49,33
170,476,196,81,52,34,46,28
168,417,193,83,50,34,52,30
173,396,204,81,48,35,47,27
141,361,177,66,50,33,46,26
118,361,180,62,46,36,47,26
126,359,190,64,45,37,45,27
131,362,199,63,46,38,35,28
144,379,180,64,47,39,48,33
160,472,177,68,72,42,49,47
202,696,182,74,112,42,48,49
204,772,182,77,116,41,49,59
207,792,184,74,120,39,46,62
203,840,184,81,135,37,34,62
217,838,180,76,136,35,33,53
201,694,178,73,108,30,33,56
200,647,172,82,107,31,31,50
196,638,182,87,104,36,31,46
197,604,191,82,89,36,27,43
175,561,219,85,69,36,27,42
156,548,219,86,64,36,23,35
167,586,225,83,66,37,27,28
168,717,232,84,101,36,31,28
160,846,258,96,116,48,35,28
147,936,247,98,135,46,37,31
160,1018,287,116,142,52,40,33
171,1092,287,113,144,54,40,36
171,1040,295,112,125,52,38,38
189,932,272,102,113,43,36,42
195,821,263,97,96,41,33,41
190,711,228,78,95,35,31,42
169,491,256,82,89,31,29,44
171,404,245,88,90,32,28,45
171,338,250,85,104,30,28,47
183,324,254,88,115,33,29,47
181,482,242,87,122,31,28,44
191,578,244,87,138,34,28,40
181,654,224,84,135,32,25,36
180,710,222,93,121,37,29,30
168,750,215,99,105,36,29,27
158,674,211,100,88,38,29,28
144,622,166,93,61,36,33,29
153,578,169,90,57,36,34,29
133,531,167,80,53,30,31,27
128,487,166,68,57,30,31,30
143,485,167,64,65,26,30,30
141,663,169,71,99,26,25,31
166,681,166,70,108,26,25,41
174,694,147,72,118,26,30,50
181,723,219,88,126,29,32,59
164,703,238,94,129,30,31,62
175,509,253,93,123,30,31,64
147,432,256,92,123,32,30,60
144,363,301,92,137,33,26,55
155,268,251,80,132,34,27,44
173,207,241,72,128,35,31,40
172,184,236,78,114,36,33,36
169,407,222,81,118,35,34,29
166,556,164,81,110,35,33,33
148,681,200,88,107,37,29,35
157,734,195,99,114,36,28,34
151,778,185,118,122,38,25,32
159,725,194,118,111,38,28,35
160,640,192,117,90,38,29,32
178,525,156,110,90,33,30,34
165,484,165,105,78,34,31,45
157,444,168,113,69,31,32,45
152,416,161,122,74,35,33,45
182,402,167,122,74,33,39,56
167,392,173,120,71,34,51,53
158,414,154,119,67,33,52,45
158,396,138,106,62,33,52,45
173,395,139,102,91,34,51,44
140,585,176,107,134,38,47,33
174,652,171,109,138,42,43,40
193,668,175,116,142,46,46,41
228,717,180,99,148,48,46,50
217,714,194,94,133,49,48,50
219,588,160,97,115,52,52,46
238,552,187,106,119,56,47,41
221,562,200,107,125,56,45,46
219,609,205,107,119,54,48,37
222,704,202,106,114,53,45,38
243,751,202,100,91,46,55,47
212,749,184,92,83,39,57,51
218,720,180,86,70,35,54,51
187,624,172,84,61,35,51,51
227,498,167,89,65,32,54,52
217,386,165,87,61,32,40,46
206,325,173,85,73,31,34,44
232,278,170,76,71,30,35,42
242,276,200,92,82,29,35,43
262,250,192,83,93,31,32,45
263,519,204,87,125,33,33,44
280,644,193,89,136,31,41,43
264,692,180,85,138,30,40,40
316,724,163,79,133,34,43,39
316,746,160,83,124,33,42,33
320,647,154,80,92,33,48,42
333,533,151,86,71,34,42,46
349,503,152,86,63,36,44,45
326,472,128,73,62,32,41,46
341,464,131,69,65,35,41,46
363,421,129,69,63,35,36,41
346,458,140,57,54,35,50,41
391,442,146,62,56,39,49,42
379,421,145,61,50,37,50,41
330,398,164,63,51,37,51,45
307,412,154,63,61,37,62,42
351,642,163,69,92,39,52,45
289,667,175,89,112,35,53,45
292,699,185,101,125,34,55,44
354,721,182,99,123,32,56,44
343,704,201,105,132,31,43,45
322,463,191,115,126,35,48,42
334,393,218,98,117,40,47,43
321,339,234,106,139,53,47,49
294,336,230,111,145,53,47,50
291,405,220,114,137,56,46,48
266,509,221,107,130,54,51,54
291,611,180,105,125,52,52,59
323,672,177,88,85,42,54,58
286,684,164,84,78,40,53,55
300,647,174,104,89,40,51,59
347,592,167,107,95,37,46,56
321,673,206,114,173,36,44,61
305,623,203,127,197,45,40,59
321,586,224,158,203,47,41,60
322,571,222,154,214,44,55,60
312,540,229,158,221,46,94,65
321,271,194,153,179,52,149,69
321,217,187,143,154,49,168,69
316,190,213,110,148,48,173,67
314,285,216,124,157,48,172,69
288,434,222,138,144,47,154,62
329,554,230,153,133,42,105,46
345,638,213,155,147,35,79,49
349,691,171,153,143,32,71,51
360,702,153,129,107,32,89,50
370,647,154,105,106,32,91,48
327,587,150,85,104,31,95,48
336,514,156,75,79,30,89,44
336,493,199,93,82,34,87,43
319,446,203,105,83,35,87,45
309,430,194,165,97,36,89,46
288,400,203,181,101,37,91,54
349,386,210,187,110,39,90,60
340,379,165,196,114,61,145,59
356,368,165,203,118,72,180,53
350,506,166,156,108,84,192,51
365,756,176,135,140,84,192,42
263,792,182,176,142,86,194,43
311,802,193,162,152,73,162,47
288,846,199,146,169,71,154,46
289,806,216,148,178,63,148,45
287,703,201,165,168,71,161,45
288,748,185,141,171,69,158,45
226,795,180,153,172,70,180,43
273,856,167,159,162,63,144,45
307,840,149,161,154,57,133,53
294,746,143,142,136,53,119,67
312,683,155,121,128,53,120,67
331,596,168,109,112,48,77,68
313,410,191,113,111,60,75,71
301,335,217,128,110,85,69,70
316,274,227,131,129,83,57,58
316,191,227,133,126,87,53,60
310,122,221,126,127,91,58,57
290,447,201,110,129,82,55,53
275,636,164,92,133,60,53,49
294,733,147,90,110,57,53,53
282,771,145,88,110,53,49,48
263,803,125,81,104,50,34,47
258,705,116,109,83,52,50,50
298,575,113,151,90,50,49,47
274,479,124,155,93,59,49,40
264,434,119,184,105,61,50,44
264,426,128,197,111,60,53,44
329,400,128,181,108,57,41,42
282,364,125,153,92,55,46,43
307,357,104,158,94,48,44,39
325,368,97,115,80,41,43,30
328,361,91,95,72,41,37,41
277,384,97,102,75,44,37,40
290,414,105,90,72,41,36,46
281,443,108,91,65,36,36,46
263,479,114,103,64,38,37,48
250,458,106,102,62,33,38,50
266,552,111,100,70,35,39,55
245,719,135,103,85,39,47,53
215,735,160,85,99,47,53,54
235,810,185,82,130,58,59,54
240,868,200,86,143,62,60,49
214,854,201,82,144,63,62,52
238,777,183,74,143,60,59,50
223,771,165,100,136,55,56,51
208,681,137,95,104,39,50,53
234,651,159,91,85,37,51,52
255,682,152,92,87,35,47,44
250,758,190,93,111,37,46,59
285,752,205,71,114,36,45,60
289,744,237,65,130,37,50,62
269,704,223,66,136,45,51,64
314,595,234,61,137,41,49,64
300,355,218,57,128,39,40,54
309,268,210,90,137,42,46,51
302,209,181,100,130,40,41,44
344,353,176,102,134,32,37,44
291,461,193,105,130,36,38,45
304,561,176,105,114,37,45,45
279,623,168,92,100,35,39,44
283,688,152,98,96,35,38,64
247,652,154,101,86,37,38,60
247,596,129,103,85,36,37,61
263,537,142,111,79,38,30,60
240,484,136,95,72,38,30,60
276,448,160,90,70,43,48,40
301,421,158,98,71,43,49,46
363,424,142,101,65,43,50,45
341,407,129,92,62,42,49,43
343,430,143,93,63,43,50,50
316,409,120,80,56,42,46,50
278,500,117,64,84,39,46,46
240,736,123,55,140,35,46,43
264,770,138,64,143,40,48,47
278,770,125,65,147,42,46,40
269,765,128,64,150,41,35,49
293,699,131,59,142,44,44,49
271,449,132,58,96,51,45,51
249,420,133,52,103,54,45,53
237,478,140,50,108,52,46,51
231,583,146,55,108,56,48,43
214,685,149,59,102,54,40,46
173,775,172,65,93,52,49,44
163,773,160,65,87,44,47,38
164,723,150,69,72,45,49,41
173,627,143,65,64,39,50,51
160,518,144,64,59,42,50,47
187,362,106,62,58,38,45,53
177,310,123,67,52,37,47,58
191,313,146,63,54,36,49,60
194,324,146,72,79,35,47,53
186,302,132,80,87,33,46,53
207,491,148,76,104,41,49,47
210,590,150,84,116,42,49,40
221,684,140,92,125,44,49,54
216,732,139,87,114,44,46,54
233,772,145,82,105,43,59,54
188,688,130,79,88,35,54,54
204,627,113,67,72,36,54,54
176,544,129,84,62,35,50,36
180,496,123,91,62,36,50,28
164,461,116,87,63,39,41,30
215,445,147,88,60,42,46,32
202,418,147,89,62,40,47,30
196,398,128,62,54,39,47,33
207,393,138,50,49,35,48,36
200,380,138,51,46,34,44,36
166,457,103,47,62,31,31,35
164,763,108,62,102,31,42,47
194,809,106,63,110,31,41,45
224,824,124,64,113,32,44,44
225,835,123,63,118,25,41,41
210,843,132,70,120,30,42,42
206,642,132,57,96,29,32,35
209,656,131,59,89,33,34,33
156,663,104,76,95,34,31,35
161,675,110,82,101,36,31,37
173,738,129,77,108,35,31,37
182,857,128,77,111,38,32,45
153,897,127,77,127,39,41,50
207,911,161,79,124,40,42,54
267,903,164,82,121,40,42,56
298,788,151,85,109,39,42,64
339,587,169,133,114,41,42,61
346,420,176,138,107,40,34,62
323,316,164,151,110,39,31,61
279,252,158,164,132,41,33,65
344,240,169,170,135,42,38,58
312,463,160,154,134,48,41,58
314,597,156,160,137,47,38,55
342,686,168,146,131,48,39,53
351,736,177,132,107,46,39,62
262,765,179,138,101,47,35,61
306,704,189,138,91,43,40,56
345,625,195,125,72,45,41,59
327,609,186,123,70,44,41,59
337,570,199,119,61,43,41,48
331,562,214,108,58,44,45,56
297,516,232,96,55,38,47,60
266,491,233,100,58,42,51,61
279,469,258,92,60,39,52,64
307,460,245,118,63,44,52,65
325,440,245,163,87,47,53,59
331,475,218,164,92,54,46,57
353,688,230,170,107,108,52,55
336,705,204,186,114,117,51,53
344,734,225,186,132,117,50,47
352,757,205,145,134,116,48,63
340,745,227,141,140,114,53,64
313,540,220,136,139,62,43,66
313,437,204,117,135,45,52,70
271,364,191,99,120,45,55,72
256,291,187,106,102,56,64,62
245,232,172,96,112,57,59,59
234,263,166,100,101,71,59,59
239,554,168,100,125,70,57,55
221,695,163,97,138,71,54,52
241,761,176,91,137,60,50,51
320,814,168,99,121,59,48,52
331,826,156,103,119,42,50,46
349,693,163,96,91,44,46,44
371,564,156,88,67,40,55,41
352,490,137,106,72,46,48,50
280,406,117,113,76,45,48,48
288,380,131,110,84,48,50,48
276,346,127,118,87,47,63,47
246,341,126,122,85,46,62,55
234,361,144,113,79,43,61,43
247,353,151,104,73,45,66,47
236,333,147,97,64,48,76,50
217,344,144,86,57,49,64,57
264,363,160,85,61,50,59,57
263,356,139,87,60,51,61,57
271,363,131,96,57,49,68,59
254,398,191,132,66,47,54,61
247,376,194,136,71,46,54,57
195,438,180,133,82,43,55,52
203,630,196,129,134,43,54,53
172,683,197,120,137,42,41,52
241,700,150,80,137,37,41,58
239,757,153,79,143,35,42,59
236,726,159,84,148,35,47,59
231,595,148,78,110,37,61,58
232,590,150,91,109,40,60,57
153,585,148,86,105,54,61,48
180,537,143,82,94,57,75,48
193,674,134,82,110,56,71,48
184,667,127,89,113,57,67,49
186,636,131,71,120,58,67,49
212,630,145,74,125,52,72,46
200,675,155,78,132,55,65,51
230,575,166,74,111,60,67,50
230,652,176,68,117,60,62,52
243,746,176,69,117,56,65,45
215,812,164,64,111,53,59,45
205,793,151,71,103,46,51,36
151,775,144,85,95,38,49,43
152,684,129,82,78,32,48,56
118,552,118,81,58,33,47,58
123,403,124,89,60,36,46,60
141,319,122,88,58,39,48,60
213,250,130,74,59,41,51,58
221,239,145,77,68,42,48,45
228,227,159,80,75,41,48,45
240,552,168,71,101,35,53,52
246,724,187,60,113,30,50,52
192,792,182,69,114,33,48,61
182,843,173,69,108,34,57,59
242,899,200,74,105,36,53,58
232,777,181,73,77,36,48,50
216,635,161,71,53,39,48,49
209,560,154,61,50,36,50,41
219,493,168,69,51,41,50,42
143,382,133,65,50,41,49,42
135,338,132,70,54,45,56,41
127,322,132,73,52,43,56,40
121,358,131,79,59,47,62,51
104,369,109,72,60,41,54,51
108,410,146,89,73,41,54,52
137,403,141,91,70,36,48,51
172,406,156,89,70,36,64,54
171,365,176,84,63,28,55,39
173,336,178,83,57,33,59,40
187,297,149,60,40,32,58,41
165,281,164,65,41,32,59,40
137,280,161,81,47,36,54,35
135,384,145,86,69,39,54,33
162,678,178,89,95,38,53,40
143,777,185,95,120,50,64,47
173,897,191,107,147,56,65,50
170,1036,188,97,152,54,55,51
178,1039,187,93,148,51,54,52
170,913,162,91,137,52,51,46
182,856,152,85,118,44,46,54
189,752,139,69,85,34,44,53
197,573,141,73,79,36,47,52
194,503,143,71,77,38,47,51
193,449,137,76,71,38,47,58
183,401,134,94,69,38,42,47
147,358,127,96,63,40,39,48
136,342,116,93,56,38,34,48
173,361,123,102,50,37,33,45
174,386,119,106,50,33,38,36
190,399,128,93,46,27,48,34
191,449,128,85,54,28,51,33
187,459,130,85,54,33,55,40
148,445,112,76,52,33,56,43
133,395,108,61,49,35,51,41
107,380,80,52,46,37,50,36
119,337,109,61,40,35,49,37
149,441,116,65,66,30,45,37
153,656,128,80,93,35,46,49
173,728,148,85,105,34,46,58
177,777,158,88,120,36,51,65
169,768,150,79,127,36,52,73
147,831,146,80,116,39,55,72
182,747,149,95,102,36,55,64
166,752,136,94,96,39,55,56
164,720,138,94,82,35,45,50
179,727,143,103,76,37,45,36
215,575,144,101,74,35,43,35
181,514,147,86,70,37,42,32
174,428,145,98,70,36,41,31
168,405,149,103,65,38,46,31
172,417,149,99,61,36,44,29
137,496,150,101,87,38,46,37
144,686,143,92,104,39,48,45
159,904,157,83,114,39,50,46
171,1041,161,78,135,38,56,47
149,1154,149,84,144,38,56,50
149,1221,179,82,143,39,54,45
145,1144,194,81,132,38,54,39
128,1007,189,76,127,35,55,42
118,887,195,74,105,34,49,41
123,731,203,60,99,39,50,39
147,561,176,59,78,37,52,35
155,542,173,64,78,38,59,36
171,489,168,67,64,40,61,35
179,446,162,73,60,44,54,36
188,448,153,72,44,42,59,38
181,454,152,69,42,41,56,37
253,421,143,68,37,39,47,38
287,447,151,70,48,39,45,35
333,509,142,60,49,35,42,34
335,505,144,63,53,34,35,39
329,476,151,70,55,34,49,44
282,462,145,85,56,37,51,45
277,466,153,88,54,35,52,53
250,482,168,91,59,39,54,53
300,603,172,101,90,46,76,53
308,821,185,102,147,47,68,60
308,840,194,93,152,46,69,63
289,825,191,91,156,51,67,64
272,824,192,96,176,49,73,70
232,836,203,110,188,55,55,73
237,619,193,104,173,59,55,67
242,573,219,101,174,59,54,63
269,546,210,100,178,55,55,56
257,467,196,93,160,55,46,48
244,229,243,74,137,46,38,41
236,221,258,80,109,43,38,54
288,275,250,84,122,45,39,59
274,425,254,90,118,52,50,62
284,525,264,93,130,51,49,65
293,594,213,91,124,54,51,72
318,647,212,92,121,53,54,63
273,699,210,87,102,65,70,65
251,649,213,78,99,60,70,67
250,607,215,80,81,66,71,68
246,564,236,81,82,62,78,58
241,532,268,88,86,61,83,59
266,504,270,90,81,50,67,54
265,553,283,97,74,50,78,52
328,627,307,108,74,44,104,68
329,642,309,107,76,51,107,77
317,684,276,107,74,55,121,88
292,696,290,112,90,52,122,88
308,876,283,119,151,59,121,86
269,843,266,118,150,63,115,79
279,838,259,121,147,61,121,75
260,799,259,121,150,65,113,61
316,752,241,116,146,73,116,65
310,504,268,115,105,73,116,65
279,540,280,118,114,75,109,62
259,622,274,125,122,74,109,68
263,675,267,126,117,68,99,68
227,727,248,131,114,60,100,65
212,737,205,128,92,57,92,69
219,673,181,115,80,47,87,72
225,589,168,114,77,48,86,69
258,504,192,112,83,47,106,67
248,438,236,110,86,49,106,74
247,366,235,99,87,50,105,71
266,329,236,103,89,49,111,67
264,302,238,92,86,52,108,62
269,307,231,98,99,61,117,61
263,576,214,118,120,58,121,64
277,720,216,128,126,61,129,72
257,836,196,129,139,65,127,77
258,880,220,127,148,60,118,80
249,998,233,119,182,64,97,82
276,934,244,99,172,66,96,89
266,860,262,97,173,65,89,85
262,789,299,99,161,62,85,78
278,805,319,107,151,65,106,80
246,684,307,105,91,51,103,86
216,642,320,114,82,51,96,68
205,606,310,106,71,48,92,68
250,598,272,109,69,49,94,81
222,530,227,100,63,44,71,77
253,519,262,98,65,51,70,70
233,545,229,87,68,49,77,69
251,694,246,87,109,50,89,79
209,737,252,72,124,50,94,68
227,749,248,88,126,51,96,70
191,747,290,100,125,47,93,71
236,688,285,96,124,47,91,75
226,533,269,97,94,49,94,61
320,411,273,97,77,51,85,59
305,363,283,106,78,59,84,60
313,376,202,98,88,58,83,54
313,448,223,104,90,63,82,48
341,548,219,109,92,63,77,47
260,649,220,115,91,62,77,51
275,689,208,102,91,55,74,50
270,694,197,106,83,56,84,49
253,649,172,102,76,48,75,49
233,571,166,98,69,45,73,49
224,466,162,91,69,42,76,55
220,402,167,89,73,43,86,55
226,348,161,87,71,42,77,57
227,317,180,88,71,47,79,57
216,293,187,92,67,52,71,61
216,274,197,108,92,56,71,53
222,244,200,108,90,54,57,55
226,492,239,102,142,56,63,54
200,637,223,94,150,50,61,55
183,736,224,87,151,46,59,52
196,818,214,70,139,43,62,55
177,839,221,63,137,45,64,53
152,747,176,64,81,41,58,53
164,645,168,80,71,45,60,54
198,538,179,91,68,47,58,55
183,420,172,93,63,45,52,51
202,415,160,93,64,45,49,47
210,385,164,93,63,44,48,53
195,381,170,82,53,41,45,52
161,397,164,76,54,34,44,52
159,399,169,71,53,33,49,56
116,385,166,69,46,28,48,56
121,375,163,68,49,29,50,59
123,396,150,80,57,30,50,58
113,374,143,77,56,32,50,55
123,400,129,89,56,33,43,48
123,396,142,95,63,36,44,52
107,395,161,92,60,35,44,41
125,427,184,88,65,37,46,45
135,631,181,85,94,39,45,45
127,820,190,78,112,47,63,50
154,1052,188,76,135,49,64,44
158,1160,207,89,147,52,62,45
152,1150,198,85,147,49,62,41
145,1082,200,85,138,48,61,39
152,963,188,82,128,41,37,38
126,709,179,73,100,35,33,42
125,531,148,60,87,32,29,42
110,516,138,56,78,34,30,41
115,446,129,57,64,33,33,41
107,398,130,51,50,32,30,39
114,420,133,48,55,33,34,44
109,412,129,49,45,31,35,45
111,405,143,49,47,31,32,47
112,420,149,52,45,32,30,47
120,423,152,51,48,31,31,48
121,399,146,54,44,31,30,49
125,387,142,51,46,30,28,46
135,380,137,57,49,34,32,47
130,365,132,57,59,32,32,48
141,352,136,64,60,33,31,52
182,379,134,64,58,35,31,56
239,419,145,66,67,36,32,56
284,660,185,61,120,34,31,55
288,706,191,60,119,34,33,61
283,724,207,51,124,35,31,61
261,718,218,48,138,31,30,56
242,708,214,45,149,31,35,69
240,486,196,47,118,34,34,72
255,404,228,55,130,39,32,68
250,337,214,64,130,40,33,64
248,267,207,64,124,40,32,77
222,177,207,69,111,39,26,66
168,286,210,75,123,36,29,61
165,444,167,67,124,34,27,58
172,560,157,60,124,33,38,60
222,668,154,66,117,34,45,42
232,713,145,60,111,38,47,43
253,704,125,53,90,37,46,44
259,644,157,58,77,35,49,46
285,568,161,62,69,38,44,46
259,494,160,57,65,36,38,41
250,456,161,57,66,35,39,41
261,425,149,54,60,34,40,52
294,400,141,65,50,32,39,59
285,423,139,61,48,27,50,61
306,385,144,62,52,29,50,59
313,378,139,67,51,26,49,58
308,416,140,69,55,26,51,56
272,467,119,58,62,30,51,50
272,688,137,69,109,30,40,47
248,701,159,71,111,33,40,51
244,725,171,70,121,36,40,56
208,709,178,67,127,38,37,48
183,702,189,64,135,48,43,45
210,501,178,68,111,55,41,46
211,550,178,67,118,55,43,45
202,644,185,63,112,55,41,40
207,714,182,69,107,57,40,37
232,754,166,69,92,47,33,38
214,756,181,60,86,42,36,37
193,728,160,58,73,38,34,44
201,635,270,71,73,35,33,51
203,539,284,74,71,33,36,57
198,434,291,75,67,31,41,61
165,364,292,70,60,28,52,65
164,314,293,71,62,29,52,60
182,256,181,61,54,28,55,58
187,244,187,64,77,26,52,53
178,228,173,63,93,27,48,49
195,519,213,66,122,28,33,47
243,674,210,69,134,28,29,45
224,745,213,64,136,29,26,48
220,776,182,54,124,32,35,55
206,809,189,54,113,31,35,56
186,715,153,55,80,33,34,50
122,576,158,58,58,35,34,51
117,504,157,76,55,35,36,46
117,475,156,82,59,31,28,37
131,419,152,84,63,32,28,44
131,338,128,81,62,29,28,49
128,337,119,76,60,26,30,51
137,317,124,74,55,24,25,49
128,314,125,85,53,24,25,50
128,350,123,97,55,30,26,43
168,342,120,97,57,31,27,37
182,353,151,102,53,33,30,38
171,370,152,99,54,37,41,43
170,365,190,91,50,39,41,41
158,378,213,74,45,33,41,41
125,384,206,77,46,35,41,40
139,508,185,69,65,34,38,37
145,663,200,58,82,33,33,57
150,805,207,52,103,36,34,58
159,892,193,57,130,43,38,59
161,963,221,53,140,41,38,61
149,915,222,55,139,42,41,63
150,809,201,84,136,42,38,39
147,685,161,86,122,38,38,45
147,563,164,89,97,36,35,46
135,430,124,90,81,36,33,45
112,392,118,91,69,34,29,40
153,424,150,69,54,32,30,44
151,393,157,62,51,33,29,37
140,385,149,53,43,28,27,36
146,380,157,63,51,28,27,32
144,393,161,73,56,30,30,32
91,351,157,73,57,29,28,25
117,364,143,73,55,28,27,28
121,344,133,72,53,27,29,30
112,343,122,68,48,30,31,32
117,328,116,56,44,29,33,32
121,314,75,62,41,30,32,33
155,384,202,72,45,32,35,31
167,486,206,72,64,31,32,26
171,784,210,69,88,31,39,33
174,845,224,66,101,32,36,39
168,856,239,65,110,31,40,46
141,842,173,54,122,29,38,44
159,823,176,55,117,30,40,46
158,576,179,57,107,27,33,44
171,515,172,68,93,29,35,44
176,502,155,59,83,28,32,37
161,477,136,64,65,28,46,38
154,467,129,66,58,30,62,37
154,428,126,60,40,30,64,31
144,382,130,60,44,28,66,31
158,395,134,60,44,29,67,33
173,389,129,68,46,30,59,39
157,363,126,76,48,31,46,41
155,376,133,79,51,86,53,43
146,404,130,75,55,106,56,42
145,395,166,83,56,114,57,42
144,406,178,76,60,115,57,39
155,371,187,72,58,115,60,37
168,525,182,68,65,83,54,37
206,736,196,65,101,58,51,39
196,765,166,71,106,41,50,43
191,787,162,76,109,39,49,48
210,811,148,75,115,40,41,50
264,734,156,79,119,39,43,51
248,544,128,80,89,39,40,46
274,561,125,79,89,41,41,44
301,529,123,78,85,43,43,36
282,508,137,80,79,45,45,36
244,610,134,86,79,49,46,33
237,690,138,84,95,48,46,35
212,683,182,74,100,49,45,34
172,737,198,73,122,59,48,34
268,770,209,67,133,60,47,32
259,815,210,67,131,61,42,43
262,845,228,70,132,63,45,46
276,885,207,72,130,69,45,45
272,868,207,79,112,63,40,47
187,847,215,100,104,62,42,51
183,704,212,96,98,59,41,43
205,538,188,94,82,57,37,42
186,395,180,93,77,51,38,54
200,297,161,90,75,49,38,55
224,257,129,71,90,46,34,56
220,270,124,65,105,44,33,55
221,489,140,67,138,47,32,53
221,580,136,76,142,48,31,42
235,662,148,72,145,62,36,38
202,698,144,71,132,63,36,31
231,737,150,87,121,68,37,32
207,637,153,86,81,64,35,33
205,586,157,76,65,60,34,28
227,533,146,76,51,44,28,30
227,490,159,75,47,43,33,32
211,457,159,60,42,35,35,37
209,441,160,59,41,36,35,39
208,425,149,64,51,33,36,40
148,399,149,61,49,31,35,41
156,391,130,56,48,30,31,39
157,388,129,52,44,32,27,32
171,603,123,51,64,30,26,28
169,782,153,43,111,35,23,27
169,817,181,47,115,38,23,27
194,827,196,53,128,52,25,35
201,826,204,58,143,66,28,46
233,678,212,60,149,74,29,46
264,430,200,88,125,72,29,48
276,316,204,101,132,73,30,49
250,248,209,99,133,69,31,46
251,350,217,107,141,68,34,36
257,503,220,113,138,60,39,38
254,627,228,94,137,67,40,35
258,693,226,79,128,67,39,30
279,762,222,97,116,64,38,28
261,736,211,90,91,51,31,25
222,672,202,85,76,50,23,24
221,593,195,88,62,44,23,24
228,558,168,88,60,44,23,28
218,506,159,79,60,41,25,29
225,501,147,77,51,46,29,37
218,479,140,78,52,47,29,36
191,471,148,85,52,44,28,38
210,479,176,87,60,39,30,41
221,452,201,80,59,40,29,40
244,478,217,81,78,33,25,32
245,619,230,81,107,33,32,42
238,658,221,80,120,42,35,51
191,660,215,82,125,50,34,51
161,677,205,83,131,55,40,52
128,688,213,83,126,60,43,53
133,625,209,77,110,64,38,51
146,694,215,72,101,65,37,44
161,770,204,70,96,61,38,41
156,801,185,69,90,56,33,41
144,783,164,74,83,50,29,42
126,724,142,72,69,43,29,36
117,601,134,74,60,38,28,35
123,477,129,70,50,43,28,36
134,388,126,67,47,41,28,37
134,330,129,58,47,42,27,37
182,333,204,65,52,42,31,53
181,324,201,62,53,37,31,60
170,281,201,65,74,30,33,61
163,340,208,86,107,35,31,60
183,515,217,100,121,35,33,59
176,604,163,99,131,35,28,46
172,669,164,97,133,35,26,34
175,728,165,94,126,34,28,28
182,724,160,75,98,30,30,46
164,648,143,69,86,30,31,46
151,578,131,73,66,29,33,46
168,520,130,79,62,29,35,47
166,488,132,81,59,29,32,54
156,489,130,88,54,28,36,43
171,461,130,76,45,32,35,43
166,466,131,70,44,36,36,48
170,472,141,69,45,36,34,48
167,418,135,66,41,35,33,38
165,422,154,56,59,35,27,38
157,524,203,54,121,35,29,38
148,602,210,66,128,31,30,32
124,628,201,64,133,34,31,33
119,663,208,62,136,34,31,33
154,651,207,64,133,37,32,38
150,552,163,67,87,37,30,38
141,438,182,62,88,43,31,38
139,387,192,59,85,49,32,39
156,364,190,66,85,53,37,46
134,412,179,63,86,53,36,48
133,524,178,63,82,58,39,48
136,629,153,72,71,56,38,48
138,672,137,77,66,48,38,47
138,686,141,76,63,45,33,49
131,646,131,80,53,45,33,41
121,560,122,76,48,34,32,42
125,446,115,69,50,30,35,46
136,370,122,71,48,32,34,61
130,312,117,67,46,32,37,57
133,298,119,65,46,28,38,60
140,288,121,71,49,33,36,58
133,272,127,65,65,32,35,55
132,236,117,61,85,33,35,36
130,557,112,64,109,37,36,47
150,693,122,62,126,39,33,42
146,765,114,55,126,38,34,43
149,816,105,55,117,39,30,42
141,845,109,54,101,41,30,53
129,687,95,50,74,36,26,41
110,559,82,51,41,36,26,43
111,485,84,52,42,35,26,46
122,431,101,64,46,36,30,48
120,400,99,69,47,33,31,37
123,390,100,76,47,31,31,37
119,389,104,84,50,31,32,45
118,369,124,87,48,29,33,43
112,338,122,84,46,28,32,44
119,360,118,74,47,28,31,47
165,361,128,75,45,29,32,49
164,361,122,76,43,30,33,43
164,365,100,70,43,32,30,50
162,386,97,74,44,29,29,52
157,358,103,82,44,29,29,50
103,369,87,86,51,27,30,47
98,421,91,83,71,26,32,61
164,680,100,86,98,33,36,59
165,855,129,91,127,45,37,58
170,1003,190,108,156,52,42,62
182,1008,199,100,162,53,42,66
182,1016,200,103,154,53,39,52
133,890,196,112,142,51,38,44
129,726,190,105,117,40,35,42
125,512,149,90,77,32,30,47
116,496,140,87,57,32,30,45
112,446,141,78,55,33,30,46
104,395,147,85,48,31,29,46
114,365,127,95,50,35,33,45
111,386,101,99,50,38,33,43
108,385,105,102,51,39,30,38
115,381,112,106,52,41,32,40
121,356,108,92,49,40,33,40
118,393,105,81,44,37,30,41
120,366,116,72,42,32,30,33
117,364,117,73,42,35,32,49
133,353,113,74,43,32,30,48
140,375,123,82,49,34,32,47
137,373,130,103,60,36,32,46
145,459,129,104,79,35,32,52
156,738,119,104,95,33,31,42
136,753,132,102,104,33,31,48
125,767,128,94,113,29,32,53
118,808,116,68,111,26,34,54
111,813,110,66,109,24,36,48
114,610,121,70,94,27,35,48
117,603,107,70,89,27,36,48
114,585,104,70,76,29,32,44
120,522,118,72,68,29,30,45
120,422,122,74,54,30,29,43
114,348,112,78,68,29,28,41
119,354,110,76,65,32,27,34
120,357,104,78,62,33,27,41
118,331,89,72,63,35,27,38
109,342,88,65,62,34,24,38
108,362,93,55,47,30,30,39
98,333,88,53,42,31,30,41
96,331,86,55,45,28,28,32
89,342,91,67,44,29,29,36
91,345,77,76,48,29,29,39
90,491,75,74,62,31,23,39
96,738,121,75,99,32,25,39
93,751,134,75,114,32,28,48
101,763,156,82,122,31,31,56
112,804,168,74,127,31,31,54
94,774,168,73,132,29,32,54
109,611,138,70,109,27,36,55
112,597,128,67,92,27,36,49
117,597,116,53,80,29,35,43
106,537,97,59,68,30,34,43
111,438,98,60,42,30,33,47
112,348,95,66,40,32,30,45
115,339,101,74,44,36,28,44
113,290,81,66,46,33,28,44
159,311,90,61,50,36,28,52
164,320,116,63,50,39,29,48
175,302,128,58,49,37,34,47
207,310,131,50,46,36,33,50
246,315,142,50,48,37,31,45
248,287,146,60,48,35,34,45
271,293,149,67,45,30,36,57
261,309,142,71,44,34,32,58
246,296,138,67,41,31,34,59
241,319,152,71,39,32,35,65
232,459,159,75,56,32,34,61
201,686,144,68,96,35,29,50
199,721,149,76,119,32,26,48
190,753,158,78,126,34,31,45
204,758,133,77,131,38,31,39
192,710,128,65,125,38,30,39
194,547,145,70,102,37,30,35
221,526,144,67,76,39,33,51
218,497,131,67,65,39,31,54
173,476,140,64,56,34,34,53
223,464,132,66,53,32,33,53
300,420,129,64,48,30,34,56
311,384,126,56,47,29,35,47
368,376,131,60,47,27,33,46
362,372,124,68,43,27,31,45
338,529,132,73,68,29,31,44
295,759,172,83,109,31,32,49
287,788,174,88,114,29,38,55
233,789,195,87,122,39,39,52
241,792,196,83,128,44,39,52
232,675,208,77,135,42,39,56
205,363,164,66,110,41,38,51
191,263,171,59,114,42,30,37
223,193,172,70,110,32,30,48
226,340,173,74,115,32,29,49
224,480,172,78,100,32,29,45
232,577,171,79,102,32,29,48
216,655,171,80,93,32,31,53
161,711,150,70,90,33,27,50
153,655,150,71,77,29,29,48
147,571,119,75,70,32,28,50
129,497,114,73,59,31,27,46
129,479,100,78,52,31,25,51
127,414,95,74,50,29,27,46
116,417,98,68,45,27,26,51
121,416,97,69,40,29,31,49
125,430,122,72,37,30,30,53
136,340,117,74,44,34,32,50
126,331,106,72,43,33,29,48
127,441,99,74,66,36,28,44
118,660,112,63,108,35,25,44
165,692,124,59,114,36,27,40
155,711,142,59,115,37,27,45
161,722,155,71,120,41,30,72
160,661,175,69,118,46,33,73
183,473,181,77,89,54,36,74
148,461,174,77,96,56,35,80
147,542,173,79,99,59,36,73
140,635,168,72,100,57,34,46
140,676,156,81,93,55,31,46
108,695,146,73,87,46,27,44
110,659,132,76,71,42,28,36
106,572,113,66,61,34,31,42
120,442,113,69,52,36,33,44
128,370,115,61,46,31,33,45
143,290,126,63,45,33,34,45
138,289,131,59,44,33,35,43
142,288,135,67,58,31,31,36
133,287,151,68,69,31,29,33
124,394,150,69,92,34,29,32
120,507,142,67,106,35,28,30
109,637,153,73,113,37,30,45
128,685,152,68,107,37,30,46
123,717,131,82,103,37,30,47
119,695,123,87,82,35,31,45
107,633,129,91,61,34,31,46
118,510,104,87,48,31,31,40
132,468,148,89,47,32,33,41
134,449,149,74,38,34,35,43
137,410,148,67,41,30,33,42
147,433,149,67,44,30,33,42
143,435,155,69,44,31,32,35
124,413,113,76,50,29,35,33
123,416,121,78,52,27,33,30
145,563,154,78,71,30,36,42
142,774,149,81,119,37,37,561
133,828,151,84,125,38,33,820
120,869,149,91,143,41,28,839
116,912,158,90,147,40,28,996
109,876,134,90,144,40,30,1065
99,694,130,83,108,33,47,919
97,652,129,76,101,35,82,701
87,622,153,52,71,32,84,677
114,574,161,51,65,33,87,413
136,537,191,65,53,35,88,333
145,520,194,87,67,35,93,395
148,474,193,93,67,38,96,395
156,435,181,95,65,40,97,397
138,397,164,93,65,39,97,401
101,341,130,80,61,36,95,288
91,350,127,71,47,37,84,137
91,367,152,77,46,33,53,143
94,393,148,78,44,32,58,166
102,440,153,79,44,30,57,186
96,440,148,85,49,31,61,177
103,418,145,77,49,35,64,166
101,445,111,62,50,32,60,152
89,454,102,60,53,34,58,121
79,418,110,62,51,35,54,67
77,415,114,56,48,36,49,49
80,422,112,52,46,31,43,40
97,390,129,65,51,35,54,50
102,372,131,62,50,34,47,60
107,388,115,64,52,34,50,70
105,388,105,77,55,31,51,83
94,407,104,81,56,33,68,82
87,400,89,71,52,28,63,74
94,413,114,75,51,28,67,65
95,397,113,71,47,29,65,56
136,402,115,59,42,33,70,45
139,400,134,52,33,32,53,70
137,452,162,54,52,32,48,106
131,637,159,63,86,36,46,114
139,713,165,59,108,35,54,113
110,727,181,59,118,34,48,109
123,728,170,63,122,32,45,99
126,709,145,64,120,32,45,59
122,529,143,50,104,28,41,42
110,398,137,51,84,32,41,41
114,342,121,49,75,41,42,39
99,316,126,46,70,47,43,25
105,324,128,49,79,57,48,19
108,408,138,50,84,61,66,20
111,607,145,48,113,61,59,25
103,701,141,48,121,54,57,26
99,751,136,52,125,50,56,28
81,810,149,49,150,41,54,35
85,835,134,53,173,37,47,42
82,769,133,61,156,31,48,41
79,725,130,63,152,32,49,42
86,698,141,63,150,37,50,43
89,628,121,62,115,34,51,39
83,554,113,57,65,31,44,30
86,490,108,52,59,33,42,26
93,425,112,51,49,33,40,27
97,383,96,44,44,28,40,26
102,414,117,49,39,32,42,24
101,443,120,48,56,32,32,25
96,616,119,47,101,33,39,26
84,709,134,54,118,43,42,24
72,846,149,60,139,52,44,23
61,973,135,55,149,52,42,23
103,1101,146,64,150,55,43,22
104,1051,142,64,131,54,36,22
109,1069,134,65,125,48,35,24
110,1014,121,66,113,39,30,24
113,893,118,69,104,36,31,26
81,717,106,66,92,34,29,27
88,647,108,64,85,33,30,25
80,539,94,55,73,31,25,21
99,443,92,46,51,30,27,21
103,393,102,47,43,30,24,25
105,376,99,40,44,26,25,25
97,369,94,42,44,30,27,26
98,339,94,41,41,30,27,28
75,352,89,43,39,30,27,28
82,352,69,47,39,31,27,24
84,354,65,56,41,34,26,23
88,376,65,57,41,32,24,22
92,374,68,60,40,31,30,24
121,348,69,61,40,33,31,27
132,360,71,56,39,31,30,30
128,347,71,45,33,27,32,29
137,428,72,43,63,25,30,29
139,656,80,44,97,32,28,33
119,696,104,49,110,32,27,39
95,713,119,46,119,31,29,46
102,729,145,54,132,32,31,54
137,741,148,53,129,33,31,55
141,577,148,56,115,29,32,52
138,566,137,58,105,31,43,49
147,555,123,56,105,29,42,39
152,655,96,52,115,28,45,30
110,606,98,60,114,32,45,31
112,601,128,57,114,36,43,38
126,578,136,53,122,41,35,37
127,551,161,55,121,51,45,39
126,444,184,59,111,58,43,42
131,511,195,56,110,60,46,40
141,600,179,57,111,60,47,32
127,670,177,63,105,60,61,35
131,706,156,65,99,53,54,37
167,708,150,67,85,49,54,36
169,643,137,68,73,43,53,40
159,536,131,64,56,39,52,43
168,420,138,55,50,30,41,44
158,346,142,54,49,32,45,46
127,287,137,50,45,27,45,46
142,255,132,45,45,29,46,45
167,236,130,59,58,32,47,45
172,264,114,61,77,33,48,42
173,424,116,61,101,30,50,47
164,512,103,57,113,29,48,45
156,582,111,58,116,30,48,44
147,647,117,47,112,30,57,43
143,666,116,46,102,31,52,41
141,590,106,42,78,30,49,32
138,517,95,41,59,32,50,37
157,440,91,49,58,33,47,37
141,360,82,50,56,30,46,38
140,370,85,49,56,29,42,36
138,424,83,48,56,31,42,37
138,436,111,49,64,31,41,31
126,465,115,41,62,30,40,35
129,454,117,38,62,30,28,36
119,416,116,45,59,29,31,36
124,452,122,53,87,27,28,33
130,665,159,61,140,27,28,36
116,675,155,66,145,29,39,39
111,703,159,66,154,31,48,39
125,711,156,64,159,32,48,40
118,665,158,67,150,34,50,43
131,429,116,65,114,40,50,44
145,375,131,68,115,49,57,42
148,328,139,71,116,57,53,43
139,340,146,72,115,61,54,46
156,403,145,66,113,63,65,42
136,527,132,68,106,59,65,41
112,624,118,70,96,52,57,36
105,661,104,69,81,44,53,35
131,641,94,67,72,37,58,36
121,581,93,67,64,32,55,40
142,467,90,65,46,34,53,41
145,334,92,59,48,33,51,43
143,240,103,56,45,32,51,41
