179,387,325,116,548,417,81,134
226,457,322,95,664,565,81,145
231,445,255,85,569,581,84,134
260,454,261,89,569,663,86,137
280,481,304,86,560,641,88,125
289,544,364,99,604,635,90,131
249,511,381,105,513,598,85,120
234,541,400,111,514,607,92,144
250,520,427,112,508,627,86,145
252,516,417,108,506,597,78,144
268,433,339,102,496,617,78,147
285,411,317,102,490,540,83,142
278,374,324,100,519,503,71,113
303,378,326,98,534,347,73,118
296,349,341,96,547,339,77,126
278,364,341,100,543,284,83,125
283,339,341,94,501,417,79,140
288,390,339,99,523,430,79,147
232,386,304,100,505,454,74,148
278,394,276,114,534,471,72,140
316,458,265,105,521,487,63,136
303,519,263,112,526,483,68,118
316,500,236,103,454,545,75,112
327,510,235,110,515,700,73,120
295,534,263,120,460,762,78,125
274,527,267,123,439,771,79,124
287,474,271,114,429,702,77,125
291,478,322,115,461,639,74,127
278,469,343,102,406,439,74,126
292,470,336,73,439,292,64,140
284,421,336,73,439,288,63,152
269,473,350,76,459,314,85,182
277,480,312,78,448,324,80,182
330,474,291,87,440,338,79,181
316,574,291,93,458,358,83,181
324,654,317,107,519,344,83,182
337,621,307,110,524,333,59,154
337,594,310,105,521,315,60,152
293,590,327,112,572,290,74,140
298,469,318,128,568,285,76,136
319,345,286,118,544,273,78,122
306,342,272,116,551,246,79,126
298,342,287,120,561,273,83,146
281,351,255,107,482,279,74,147
276,383,239,127,510,330,70,133
257,378,242,130,498,307,74,142
309,461,245,131,542,320,72,158
297,462,174,138,554,311,66,159
314,476,170,141,599,362,65,166
313,433,152,96,562,340,66,173
302,458,175,93,547,371,65,179
245,389,165,92,474,375,62,159
245,399,193,86,428,406,65,142
245,456,237,86,380,406,66,147
235,475,306,91,362,432,69,136
222,475,300,88,374,422,63,115
267,496,311,88,402,432,67,131
264,503,313,105,426,415,74,130
248,471,302,119,458,380,78,109
245,487,245,130,456,433,91,165
256,462,240,133,449,636,93,166
222,438,257,176,496,657,97,152
218,403,239,166,494,658,93,165
232,389,220,160,465,656,96,186
223,369,236,168,481,594,87,145
210,375,259,172,485,410,94,152
221,388,224,124,456,438,88,165
230,450,222,134,550,474,91,165
218,435,218,133,548,467,89,150
237,399,188,117,547,509,81,144
270,420,265,124,562,523,80,149
292,398,285,132,531,449,81,136
291,415,315,133,460,468,82,218
287,407,327,132,480,562,82,224
280,440,340,139,454,520,82,230
280,426,295,134,506,481,80,224
257,452,342,135,529,488,85,226
266,433,351,128,516,424,84,136
267,462,357,128,512,303,80,128
263,454,389,118,532,283,80,117
250,490,435,107,439,257,80,114
244,478,405,98,391,259,75,124
270,421,378,89,338,387,79,136
273,392,359,88,335,385,79,128
293,395,320,84,315,405,78,142
278,366,236,92,329,497,74,146
264,354,237,97,371,708,73,140
210,378,237,99,402,740,65,148
199,366,247,108,438,761,71,151
159,344,239,103,431,753,71,144
200,316,217,98,440,696,80,139
190,310,187,94,429,506,79,137
200,310,194,124,454,355,82,112
216,368,253,126,489,362,87,111
220,403,282,158,623,520,106,132
187,424,304,199,659,814,102,135
239,507,386,215,693,1037,108,136
251,519,378,216,691,1268,110,162
253,498,345,253,725,1296,109,171
258,554,375,265,668,1245,99,161
290,559,386,250,658,1074,96,153
271,507,316,253,621,836,110,162
285,520,326,244,617,387,114,166
273,593,348,204,550,170,115,154
269,569,291,164,488,106,110,153
215,542,252,146,437,68,109,178
191,526,242,125,432,65,89,174
170,575,270,143,463,95,79,167
181,562,255,155,441,93,79,183
206,517,278,162,446,94,80,196
237,537,323,168,482,96,94,192
247,546,346,227,663,164,109,189
242,463,320,232,666,227,120,180
248,424,314,225,649,322,114,164
221,464,307,224,662,335,116,157
256,511,263,215,678,354,105,159
258,516,241,143,595,374,94,163
256,540,259,107,653,441,83,160
266,515,265,123,733,669,87,169
272,475,268,119,753,709,82,162
243,390,256,117,739,733,84,166
257,358,245,130,661,728,83,163
255,358,255,136,592,690,85,167
252,387,280,155,532,462,92,159
244,398,277,159,506,447,103,162
259,460,296,161,506,489,116,139
248,466,307,157,543,509,116,144
256,432,286,165,533,525,115,146
231,449,271,133,478,490,106,150
238,435,255,159,497,468,108,168
187,406,247,157,482,381,94,174
169,407,242,159,456,368,91,170
146,424,249,152,438,430,87,163
159,382,217,144,485,510,97,175
152,378,213,123,465,543,95,146
211,411,206,128,477,614,91,158
212,405,178,131,502,611,91,158
257,450,218,141,501,578,101,167
270,431,221,142,461,643,95,163
296,451,230,155,445,612,87,161
286,511,318,154,424,561,87,150
282,506,325,153,421,555,88,149
245,502,289,139,463,535,91,152
232,492,294,138,467,492,90,139
229,474,312,124,503,607,91,146
194,361,244,115,499,777,100,143
198,373,246,108,508,853,102,137
209,315,244,96,453,839,87,114
199,326,240,98,440,776,84,111
166,378,207,85,423,693,82,125
178,393,242,96,456,485,73,114
185,423,240,92,437,340,68,122
169,415,242,103,461,333,75,124
170,436,246,104,491,341,73,135
172,384,268,121,494,307,68,120
158,364,223,116,491,291,68,143
166,330,222,119,477,269,72,163
195,334,232,116,454,255,62,167
217,292,278,120,439,222,63,161
238,299,272,95,407,216,70,177
250,306,269,92,389,197,68,170
240,310,271,91,414,175,70,142
249,381,307,128,544,192,85,136
243,429,326,133,557,191,92,144
275,509,346,139,555,182,88,132
282,508,347,144,592,184,92,123
292,527,357,146,596,208,92,160
263,472,317,122,475,204,81,158
251,494,278,130,466,197,76,148
211,447,265,127,471,216,78,141
245,440,266,123,409,217,77,164
242,430,255,120,373,189,76,140
245,482,277,108,410,196,83,158
256,424,270,102,384,200,80,170
261,399,269,113,397,201,80,168
220,427,270,118,462,228,88,183
236,407,261,115,467,247,88,190
253,408,249,117,478,245,83,178
282,445,324,128,506,274,100,205
267,438,309,133,509,286,106,214
257,493,355,131,490,314,112,198
246,528,401,130,464,306,125,205
244,534,425,130,442,332,126,205
239,534,375,116,453,348,124,184
243,573,407,119,427,344,118,182
260,512,387,122,444,336,108,163
250,506,356,121,472,356,93,157
230,463,334,125,462,338,98,166
211,454,319,128,485,322,87,149
198,418,280,107,495,327,88,169
202,409,285,107,450,296,81,181
200,365,267,122,486,277,78,167
220,355,259,120,492,272,64,155
242,314,245,116,453,270,62,161
247,352,269,117,476,262,77,143
233,329,225,110,493,241,76,132
255,379,264,92,462,252,88,156
237,400,260,104,456,237,89,156
194,407,255,93,423,242,93,148
230,372,243,99,416,251,88,158
221,375,245,101,387,250,94,160
240,359,198,107,367,233,91,137
259,449,210,118,410,260,99,138
260,457,213,121,403,235,103,159
232,453,248,126,382,202,105,153
243,480,250,133,384,211,100,143
224,461,253,131,415,201,94,145
216,376,254,109,389,201,88,159
234,390,258,118,451,305,98,139
230,412,262,117,473,352,89,124
219,394,254,116,455,363,91,129
215,426,270,114,475,439,100,159
233,416,249,110,469,446,96,151
217,392,247,105,419,410,76,153
220,353,174,94,394,368,71,152
258,377,195,119,559,366,77,177
239,434,180,123,550,287,79,150
234,416,185,126,546,266,83,151
241,422,193,127,610,228,91,165
239,439,219,143,619,234,99,184
194,432,220,120,494,216,105,176
216,373,226,114,446,188,99,175
181,402,249,128,465,179,98,173
185,420,249,126,424,185,93,165
197,424,227,106,430,188,86,163
208,432,234,105,444,177,71,149
184,407,242,109,487,192,69,146
193,418,212,99,454,182,67,151
190,394,208,112,442,157,70,146
174,407,212,118,443,197,78,132
163,387,184,115,424,248,85,143
168,450,193,118,390,266,87,177
164,427,231,112,428,272,89,185
157,435,227,94,419,272,88,190
167,414,233,91,421,242,84,186
165,475,262,95,456,214,79,185
156,419,272,89,462,187,74,159
157,437,261,86,471,212,73,144
141,446,280,82,469,225,82,138
123,460,292,73,449,253,83,136
146,415,285,69,429,249,81,120
158,406,248,83,424,237,81,118
156,450,254,98,481,252,87,117
165,526,235,98,499,247,89,107
158,502,208,101,503,210,93,126
143,489,191,97,495,224,96,133
138,483,186,86,560,236,98,130
159,436,197,73,478,240,109,137
148,324,193,84,450,238,99,151
154,335,201,88,483,247,95,143
163,347,197,93,501,237,98,198
171,358,209,87,423,268,100,201
167,336,186,90,428,264,89,199
177,369,190,107,494,311,100,194
171,357,180,102,447,320,102,218
158,357,182,99,451,330,99,164
149,349,177,100,456,310,91,170
135,347,180,94,455,277,84,169
117,326,178,77,410,255,98,163
117,326,178,86,434,288,103,126
129,301,169,86,404,272,99,123
119,320,177,93,415,273,107,108
122,328,152,94,467,286,108,99
146,392,186,83,448,273,86,110
152,419,185,72,478,265,87,124
141,417,182,85,505,290,93,132
147,400,175,83,527,307,96,137
152,404,168,81,484,296,94,138
134,345,151,87,503,276,99,131
135,312,156,93,489,284,87,118
135,334,169,83,466,258,82,125
142,358,160,87,446,278,79,127
129,358,172,91,452,307,84,132
140,341,160,85,419,312,75,140
129,347,144,79,411,273,73,136
125,330,136,80,433,268,103,138
115,290,135,68,424,204,98,147
119,302,131,66,442,165,99,152
96,278,112,66,445,218,109,148
107,299,128,79,430,229,118,175
123,290,131,84,437,226,97,175
120,292,127,86,421,238,97,169
117,327,208,83,394,229,92,171
124,353,246,84,423,187,78,172
151,369,271,74,406,163,76,148
155,399,267,69,406,215,85,152
162,434,281,85,445,266,94,142
216,401,231,101,465,301,97,138
268,429,201,106,505,295,109,149
303,409,175,120,516,337,112,159
316,402,177,142,565,358,105,164
317,423,168,149,611,345,107,169
283,419,192,141,653,521,109,161
248,414,202,143,625,617,102,150
193,410,217,146,639,651,92,131
162,414,220,126,581,644,87,113
162,387,242,115,501,631,84,143
175,397,228,114,464,485,79,149
153,374,235,110,441,350,74,149
151,360,207,85,441,228,74,161
163,343,210,84,451,163,79,171
156,388,198,82,455,188,69,154
138,386,202,105,449,202,66,146
135,421,176,109,477,214,71,146
124,428,172,112,465,267,75,137
178,533,242,127,462,275,81,135
181,490,222,122,453,258,77,124
206,528,245,121,440,241,80,135
220,498,248,117,447,257,88,154
235,559,277,139,485,203,80,158
207,541,262,134,515,240,70,142
210,537,264,148,591,252,76,138
205,517,235,138,577,248,83,146
215,579,257,136,547,223,73,135
197,512,228,115,511,229,76,158
181,438,195,115,540,191,89,170
203,435,193,141,565,219,99,176
258,423,188,175,652,249,97,170
278,359,158,221,729,286,102,158
388,489,200,314,848,388,108,135
408,476,201,369,1041,677,114,131
419,532,221,370,1074,831,108,174
414,552,225,362,1079,874,105,170
395,546,238,346,1116,874,104,179
297,448,215,273,1050,844,105,199
309,476,226,187,831,744,84,204
278,457,240,200,797,577,81,176
229,453,247,188,731,534,80,179
229,446,241,173,638,626,104,199
222,488,274,161,584,770,95,177
164,460,251,159,570,854,98,164
165,418,233,109,528,1009,104,176
248,388,218,115,510,1132,116,182
246,372,217,116,463,1079,88,155
258,312,177,133,529,989,91,155
272,356,192,147,591,834,99,179
300,407,170,137,522,615,93,161
306,458,182,129,526,289,84,158
323,459,179,124,537,326,96,153
342,528,292,106,469,273,97,166
331,504,281,103,399,257,88,147
354,580,372,138,460,273,106,174
302,534,368,153,496,313,113,173
360,561,384,158,488,279,105,181
366,541,343,166,574,292,111,181
382,546,352,168,574,350,111,199
361,465,273,144,559,348,99,184
390,519,286,136,539,300,83,191
344,485,262,132,539,305,90,186
327,436,232,125,519,337,86,184
328,455,238,109,496,291,89,169
307,435,248,113,472,270,80,161
305,383,256,120,451,268,86,144
304,425,261,122,431,267,82,171
290,444,253,111,373,252,73,171
264,433,232,121,418,269,73,170
262,430,208,131,424,293,80,173
216,419,176,121,467,303,74,176
183,422,171,119,464,295,83,162
170,411,149,132,474,257,88,144
205,405,180,122,462,232,88,142
198,386,175,108,461,211,83,152
212,397,175,123,453,201,95,161
207,367,168,121,465,203,99,167
247,377,168,108,451,204,101,169
303,432,141,109,440,201,102,185
323,439,172,106,428,274,117,190
321,404,171,99,406,305,109,179
375,401,180,102,428,325,100,166
408,383,180,118,440,322,98,170
354,293,170,125,425,334,105,147
352,282,133,132,440,268,89,134
352,311,138,119,495,229,94,132
304,323,131,117,488,197,101,145
286,312,119,107,462,204,98,142
284,331,123,107,501,175,86,145
273,328,121,116,510,192,85,137
260,345,134,116,431,181,79,143
271,335,127,114,414,183,78,125
196,385,144,111,458,178,78,128
199,379,152,105,490,178,82,122
208,403,164,108,536,220,89,129
231,374,148,118,562,223,91,122
211,399,181,141,624,223,84,125
232,379,176,153,630,233,88,116
243,382,174,151,573,236,95,171
270,346,166,145,544,199,92,175
255,360,170,144,545,225,99,189
253,369,182,130,486,229,99,192
256,342,169,117,482,237,95,193
261,401,192,124,524,234,92,156
222,412,207,115,479,219,88,161
226,452,221,108,457,192,87,145
245,430,191,117,473,174,84,155
246,450,195,124,450,152,94,189
334,447,176,114,425,154,93,188
365,463,170,112,456,171,92,188
359,440,161,110,455,166,82,188
353,441,158,105,451,177,89,189
355,435,158,102,452,204,86,175
266,367,166,112,439,198,79,174
236,350,152,113,422,191,82,173
235,326,157,116,432,190,84,175
215,285,154,100,398,169,72,160
189,340,177,111,439,144,68,144
188,370,160,112,471,181,85,174
196,376,170,129,512,188,84,162
208,396,162,137,521,190,84,161
218,406,189,139,535,196,85,160
211,331,167,121,492,193,88,169
229,362,172,112,442,163,69,133
235,362,172,87,377,138,67,133
243,380,178,68,358,143,73,139
252,418,164,60,318,157,74,144
256,435,164,62,335,151,67,135
230,395,160,62,370,149,71,135
218,410,162,82,414,182,77,185
209,414,155,109,480,188,76,188
214,408,147,117,509,187,87,195
210,435,143,120,515,189,97,208
216,457,174,134,506,207,96,217
220,473,164,132,530,237,98,187
215,432,161,124,516,237,96,182
211,399,155,124,498,225,86,180
224,363,169,128,518,226,73,158
225,338,153,119,513,243,76,159
224,352,157,111,468,194,65,148
225,353,162,103,417,183,61,145
232,376,157,99,435,183,68,135
220,370,142,94,383,182,70,150
214,386,136,98,425,157,72,148
202,336,147,97,446,212,76,148
188,318,133,99,466,238,76,141
249,331,148,96,457,244,70,162
282,330,155,88,458,250,72,161
299,346,159,77,420,241,64,147
293,335,162,73,381,188,58,145
297,403,175,63,355,153,55,146
226,381,166,74,379,188,59,119
187,408,197,83,369,174,57,110
154,391,210,95,399,174,63,121
139,386,195,100,406,182,64,126
155,360,212,101,433,188,72,146
140,347,206,91,403,139,68,147
142,360,175,97,444,153,76,176
133,355,155,86,405,152,75,167
132,355,154,85,427,146,80,167
110,317,109,94,426,143,80,170
127,331,120,92,399,140,79,180
161,332,125,99,428,156,82,156
169,343,127,100,471,149,84,156
171,402,147,110,476,150,79,164
170,424,153,112,489,169,93,155
188,457,164,112,512,182,94,142
188,472,165,102,487,154,85,135
218,483,169,98,474,163,85,147
306,485,178,84,471,193,108,140
314,468,186,90,469,199,98,140
310,433,179,102,531,211,100,140
320,408,190,113,551,251,106,143
297,363,187,131,556,273,115,142
229,324,198,172,631,291,110,156
235,386,219,180,657,302,104,154
258,424,219,186,641,326,115,173
258,483,226,181,643,680,110,165
271,513,243,168,636,693,99,168
257,499,226,136,550,700,84,152
268,488,225,123,559,696,95,176
237,477,245,106,518,684,78,160
220,434,242,107,483,313,76,162
237,438,226,116,507,291,81,154
250,458,231,121,566,303,82,159
234,448,243,165,583,312,70,121
245,458,275,187,685,339,86,118
245,425,265,182,687,339,94,134
229,415,270,177,651,317,99,133
245,483,340,177,634,259,94,123
257,530,355,146,576,245,97,147
244,510,324,124,461,196,85,157
241,504,322,126,447,190,81,153
249,499,315,131,448,180,77,170
241,424,234,123,421,173,83,178
226,349,170,101,411,162,86,175
239,358,166,92,431,157,88,170
226,410,189,102,458,169,89,160
223,415,204,99,501,199,83,154
222,399,198,103,518,195,79,156
226,429,213,112,526,177,70,139
249,472,240,120,516,175,75,138
262,432,229,185,626,165,80,154
248,428,215,198,640,164,88,167
248,456,215,223,688,217,95,156
288,412,211,223,688,225,106,172
270,353,185,237,729,247,100,196
266,361,183,204,677,242,101,237
276,370,200,233,772,254,105,219
258,384,222,253,845,792,116,228
224,463,224,335,957,930,121,232
249,489,229,330,1059,1096,124,231
254,506,236,343,1112,1321,124,191
247,513,218,329,1108,1336,121,187
241,511,215,321,1013,1173,107,173
227,469,213,258,960,1270,99,156
198,459,202,255,842,1177,100,165
193,437,214,224,727,1017,95,154
227,445,236,207,660,1298,87,159
235,432,225,162,702,1304,86,166
245,445,219,106,658,1429,97,169
274,454,252,154,643,1493,93,133
292,522,246,167,686,1505,93,131
270,528,255,180,700,1252,97,145
299,517,256,187,668,1178,94,144
290,499,258,192,686,757,75,142
269,535,223,149,715,519,74,139
232,489,232,169,749,202,70,132
225,462,243,166,715,174,69,111
182,475,236,157,720,166,76,106
170,444,251,160,696,179,75,99
178,356,256,168,676,215,76,130
203,310,234,152,607,234,72,132
215,285,208,141,565,258,79,154
228,287,213,139,532,248,78,172
274,338,184,137,508,223,86,184
263,329,187,123,510,189,92,168
288,382,222,97,495,165,93,174
288,449,214,105,583,164,87,160
303,473,224,119,587,164,84,147
284,511,244,140,621,187,83,136
290,618,234,146,582,240,71,135
262,592,190,163,663,302,89,150
277,552,190,158,641,319,96,157
289,531,185,164,664,322,93,165
278,514,186,158,693,325,90,174
280,443,205,158,671,287,93,193
274,461,224,148,590,219,74,185
275,496,220,148,556,169,69,182
243,543,243,133,519,178,76,182
272,589,243,111,452,142,80,177
254,551,236,111,469,179,81,151
249,540,241,114,480,181,84,151
223,514,241,120,523,202,82,153
214,477,210,118,530,199,77,144
212,482,223,120,555,211,74,145
209,519,212,124,636,179,74,154
228,530,187,111,638,172,78,143
223,511,200,124,691,227,79,129
239,513,192,133,744,243,79,127
216,428,164,133,693,254,78,133
217,390,173,130,624,272,77,148
200,367,179,143,643,302,80,153
193,389,164,128,554,255,80,160
198,369,187,119,506,240,81,168
230,380,174,118,523,223,76,164
229,399,162,144,557,208,87,164
236,464,165,138,567,186,92,158
237,485,160,133,592,188,90,161
256,511,155,132,563,181,88,164
216,490,164,141,610,191,93,166
215,479,168,123,603,189,85,143
203,419,171,111,551,184,74,140
222,389,192,112,545,264,89,138
184,364,203,117,578,275,101,131
207,386,198,101,532,265,99,125
204,399,192,80,506,258,101,141
220,438,202,113,520,260,105,148
201,468,193,126,495,196,90,140
194,467,165,123,449,185,78,128
161,451,162,124,444,207,78,138
184,511,163,123,454,211,78,158
187,507,140,108,486,281,81,183
196,474,114,106,485,264,92,184
194,461,125,142,627,279,94,228
240,498,115,150,656,285,98,227
233,499,154,154,668,295,103,213
247,461,150,152,660,219,99,197
250,469,170,146,628,213,90,213
260,492,177,118,499,213,98,174
234,516,230,113,440,190,96,162
232,463,246,119,438,171,87,152
210,517,256,118,441,180,86,172
209,515,264,109,457,194,101,160
211,519,294,99,454,178,92,153
192,491,298,117,471,190,94,156
194,479,286,117,488,202,111,201
191,432,280,124,499,200,111,173
182,454,288,127,511,195,98,180
167,449,277,135,510,189,98,183
177,456,247,118,506,176,91,196
182,437,234,112,457,167,84,166
205,463,246,103,413,259,85,173
206,487,243,109,403,263,103,172
235,503,229,103,416,265,105,184
232,480,218,115,513,305,112,171
226,499,211,116,512,306,110,156
212,478,213,109,484,230,111,157
210,407,190,101,464,223,91,148
175,378,159,96,455,221,90,136
182,373,156,82,357,161,81,134
207,358,160,69,362,183,76,132
196,339,133,63,362,175,70,130
194,411,117,85,421,173,72,140
208,393,114,84,436,164,77,135
238,392,120,82,445,245,97,151
212,410,135,81,451,221,109,228
211,420,143,103,528,235,108,227
213,390,190,101,503,253,110,231
214,419,198,107,492,260,110,242
201,438,207,104,460,188,94,234
214,437,202,102,495,197,72,157
226,452,209,106,490,179,72,150
245,465,177,94,511,185,65,135
225,444,177,88,512,199,57,141
194,414,166,91,524,198,53,136
204,422,166,109,487,187,62,143
195,464,159,90,457,200,80,177
172,435,165,88,420,195,87,192
187,484,177,96,453,181,91,187
204,498,192,106,445,170,92,188
215,483,178,91,460,189,86,201
231,467,185,89,440,186,85,206
236,499,223,89,463,160,82,207
269,436,216,81,409,151,78,194
260,454,202,70,462,158,81,194
227,448,212,82,494,178,98,183
222,474,228,82,511,186,86,145
241,449,185,97,518,188,88,121
212,498,192,106,565,187,92,139
222,537,195,102,526,199,93,166
232,531,230,99,486,176,85,166
225,490,226,112,520,169,85,167
199,493,242,109,510,183,88,178
182,468,246,110,481,204,86,161
174,460,247,114,502,189,86,155
165,459,205,109,477,191,81,145
159,441,191,103,419,191,89,178
157,435,166,101,438,175,79,168
241,410,153,102,432,185,93,170
244,325,163,102,413,201,90,147
270,407,208,108,532,198,97,211
271,427,203,120,538,206,98,194
278,445,201,114,563,221,104,189
257,467,223,109,560,209,98,200
251,486,209,104,556,196,100,206
224,429,170,98,469,193,91,147
223,435,178,75,442,205,86,134
221,439,204,76,381,201,80,138
208,436,188,73,368,190,72,132
202,419,194,92,377,187,71,139
229,433,204,103,443,187,92,149
225,422,203,101,429,189,96,148
229,449,217,115,459,240,102,156
192,422,202,117,466,248,99,142
231,458,198,107,466,254,101,134
203,537,181,95,472,278,84,139
232,794,164,95,682,273,81,175
229,772,123,70,693,219,77,186
239,797,129,64,710,249,87,197
239,794,135,58,727,293,94,195
248,736,142,54,680,272,95,199
235,467,156,55,482,256,96,186
232,698,149,58,685,292,99,173
238,715,148,61,672,273,94,168
251,756,139,66,678,232,87,180
265,767,154,81,677,247,88,162
296,780,170,88,723,254,96,180
297,565,167,90,485,221,110,179
295,529,190,91,468,234,114,194
271,453,208,95,452,238,115,189
279,446,213,85,476,211,110,200
259,399,220,85,428,216,99,176
269,462,263,92,600,207,93,177
282,659,270,89,741,179,88,164
308,748,284,85,823,171,85,161
290,782,277,92,833,193,93,157
290,814,291,97,837,236,100,160
282,783,260,95,724,246,91,173
288,640,267,99,631,239,90,189
255,579,245,125,704,256,96,219
261,617,298,129,766,310,100,215
291,602,276,126,749,275,92,225
314,616,292,126,789,256,84,224
307,594,272,133,775,274,107,233
344,598,319,107,596,277,106,228
344,569,276,97,542,218,102,252
330,577,299,88,574,210,104,239
315,575,309,84,543,214,103,233
308,613,313,94,572,240,92,220
249,641,285,106,602,227,91,193
292,633,282,122,590,209,84,147
261,606,254,124,566,205,86,166
261,615,216,127,584,224,94,164
246,586,201,108,533,197,95,146
258,504,163,105,547,195,96,144
293,472,245,113,538,208,101,160
298,500,248,123,596,218,101,150
292,552,289,123,601,200,109,145
302,559,296,129,631,191,102,167
299,575,314,128,627,217,105,184
197,594,249,124,655,211,101,174
193,645,263,138,679,220,114,174
197,604,221,165,735,238,107,168
219,613,216,167,748,260,107,162
266,654,219,162,739,227,103,150
300,616,215,160,707,225,102,158
312,565,203,173,789,256,92,159
303,562,193,160,813,347,94,165
300,576,186,156,790,577,99,156
267,524,171,154,803,600,94,160
234,544,190,144,831,615,96,172
259,543,187,105,709,615,97,178
291,529,187,76,566,570,89,172
297,505,212,115,625,335,82,164
293,509,190,121,643,310,88,165
291,518,171,123,661,294,93,167
293,475,146,124,647,276,87,150
275,485,151,135,681,262,84,152
253,489,135,129,705,284,97,205
250,477,150,164,737,442,99,199
271,453,156,173,683,862,100,183
230,450,167,173,708,1065,102,175
243,528,166,166,755,1133,111,190
266,554,163,151,807,1189,102,153
279,625,247,107,759,1203,97,157
267,621,247,134,781,970,94,167
275,642,272,162,766,741,93,174
244,681,303,177,795,635,85,167
258,704,315,176,742,502,83,152
285,644,258,182,765,318,92,181
288,704,281,157,735,251,93,183
291,718,279,172,777,268,92,182
339,611,275,244,759,312,91,182
378,579,279,259,719,604,108,200
355,552,281,274,735,966,99,175
442,507,268,293,864,1118,105,183
494,449,247,281,946,1223,123,211
476,460,218,221,937,1335,134,222
459,410,190,238,959,1442,129,205
455,443,222,238,970,1491,147,225
379,392,231,219,871,1405,152,214
311,429,226,213,760,1311,139,214
324,413,237,209,701,1282,131,207
261,419,264,175,624,1255,126,207
275,412,240,148,537,1156,105,182
261,430,226,162,658,1392,95,181
277,403,246,153,641,1423,95,169
270,402,234,153,661,1485,95,162
282,472,225,164,961,1404,95,159
269,615,229,180,1061,1263,98,164
296,669,240,168,969,1048,90,163
264,678,231,174,947,1051,92,143
244,691,225,173,929,828,92,175
244,640,223,153,610,676,95,189
270,482,213,131,425,603,91,192
234,425,249,136,569,448,96,198
230,452,254,152,703,344,91,206
227,503,255,149,847,399,90,197
244,596,246,162,1004,345,85,188
266,701,285,170,1055,336,81,204
280,704,242,154,1003,354,98,204
291,697,244,138,916,325,99,192
296,645,253,135,796,269,99,177
281,576,246,120,605,301,99,176
312,443,190,122,509,300,104,163
330,479,192,124,501,274,86,156
332,465,176,111,519,289,97,165
331,515,162,113,488,282,93,160
335,493,189,118,486,266,94,180
268,496,192,120,467,271,89,186
303,526,182,125,445,236,99,183
315,687,174,120,681,217,88,204
322,719,188,117,720,218,92,209
323,733,155,117,715,203,91,191
327,746,147,101,712,175,96,168
337,712,161,97,748,173,99,171
321,566,174,111,676,196,95,146
306,709,168,108,802,177,90,136
294,779,192,113,932,160,85,156
285,786,211,110,918,155,83,195
192,774,223,108,913,159,68,188
194,791,216,100,810,143,69,186
191,607,216,108,662,137,72,188
240,539,195,89,520,154,73,173
244,545,190,97,577,157,72,160
253,547,164,88,551,154,72,193
256,521,188,96,571,155,87,202
257,513,176,91,561,154,83,196
220,571,239,97,563,141,85,208
219,573,235,90,529,145,98,198
216,610,238,94,530,135,95,165
195,613,222,102,561,139,89,148
204,646,228,113,608,257,98,173
214,633,164,110,545,264,103,170
214,614,153,107,544,269,92,167
222,587,145,109,562,293,95,167
287,561,145,110,606,329,92,182
294,524,142,97,560,283,85,172
288,448,153,103,586,362,86,167
309,513,213,113,591,364,88,194
354,527,217,120,583,345,94,207
316,516,211,109,521,340,95,194
332,510,220,113,551,336,97,195
389,544,218,108,548,248,101,209
399,497,163,101,555,256,104,175
354,484,195,150,599,272,107,159
352,504,229,188,621,234,113,178
338,538,221,187,597,209,118,175
341,607,257,190,608,277,118,156
341,582,259,195,666,271,119,161
349,596,259,158,615,269,113,176
353,631,241,127,631,282,110,163
363,663,260,134,649,294,109,180
317,585,241,136,627,229,100,182
299,599,251,138,578,232,91,180
278,583,230,130,618,228,96,180
316,596,227,126,583,234,96,192
312,631,284,118,561,277,95,167
290,625,273,178,671,283,110,197
265,615,261,190,738,369,112,198
267,591,269,199,720,396,113,202
234,554,278,191,703,377,120,186
256,417,207,196,682,338,117,203
266,464,221,177,713,348,111,175
275,562,238,175,727,266,133,197
300,564,218,173,766,270,127,191
298,623,258,183,811,286,119,215
263,633,251,187,892,283,117,208
245,637,241,152,805,266,117,230
233,578,236,136,745,336,96,217
228,581,240,131,753,294,95,206
216,562,179,120,745,294,90,180
203,567,173,132,728,306,100,177
249,555,157,152,838,316,92,161
265,543,136,155,834,239,85,175
240,546,143,170,808,240,84,176
232,503,135,185,824,232,88,196
240,550,139,185,829,251,79,187
216,534,162,173,698,252,80,198
202,530,164,169,669,255,81,174
273,557,190,156,644,263,96,183
269,560,190,134,610,254,91,158
277,559,207,115,582,281,96,191
255,555,212,117,581,294,95,194
247,639,228,115,593,281,98,198
167,616,207,118,632,281,101,201
180,630,225,123,631,284,106,218
185,596,207,115,628,226,102,205
218,600,201,107,627,220,105,177
231,514,177,107,623,219,101,169
237,530,213,106,558,216,91,154
287,529,194,95,522,212,89,129
277,571,232,110,519,224,87,110
259,670,230,129,666,249,91,105
261,710,264,143,676,294,95,111
299,689,231,140,691,327,96,113
256,670,241,144,678,349,109,128
273,681,216,133,648,342,114,123
266,607,201,119,607,361,110,120
263,615,160,105,582,333,106,122
244,668,204,115,597,327,102,128
240,673,238,116,642,307,100,126
264,654,233,112,656,305,92,133
305,657,262,107,622,297,93,137
300,634,267,120,670,298,97,144
291,605,292,111,687,264,94,169
298,614,261,106,634,278,79,167
275,587,263,108,618,273,79,183
248,525,245,105,564,211,71,194
261,525,240,95,590,201,81,201
265,598,175,91,594,226,88,190
247,572,172,83,640,249,94,200
249,604,177,93,657,251,105,192
242,623,222,93,697,251,106,187
225,599,226,104,669,258,100,170
210,539,240,127,673,271,104,207
200,538,242,141,676,290,116,193
198,524,261,150,672,308,123,212
180,517,211,165,635,308,127,208
182,483,210,150,593,294,121,208
173,472,198,141,619,307,115,160
185,478,201,133,569,285,105,165
154,496,209,131,561,305,93,143
162,512,211,113,564,306,94,141
183,579,226,119,623,325,93,143
186,530,226,109,598,287,86,144
181,527,223,105,610,260,77,164
196,525,179,96,674,242,67,156
189,485,183,98,674,241,61,151
196,472,204,100,644,249,80,183
193,490,197,100,655,242,83,179
229,500,189,105,662,237,90,161
212,506,190,102,704,251,94,152
230,556,210,102,708,246,99,166
198,504,159,92,680,207,84,127
246,529,165,89,650,212,91,157
255,552,165,81,673,230,88,161
278,504,156,78,540,206,96,172
270,441,112,74,504,206,92,154
301,549,184,83,520,222,94,173
266,541,177,80,545,212,81,144
243,542,268,88,485,184,85,161
216,519,272,88,469,151,68,147
291,601,310,106,519,187,93,199
260,533,276,99,493,166,91,180
263,508,278,106,416,174,102,196
247,444,198,102,428,204,100,176
256,501,202,108,430,206,101,188
172,452,158,89,373,201,79,149
170,433,150,97,439,208,82,158
165,454,197,89,426,199,70,145
169,475,212,89,423,170,60,140
227,483,296,110,486,186,70,130
221,435,287,110,478,145,67,115
252,479,326,105,421,139,76,130
243,460,294,105,427,149,77,120
253,473,276,105,432,145,89,137
192,457,181,67,348,121,93,143
198,527,242,67,343,125,94,145
158,474,192,62,352,120,89,127
160,463,209,74,379,115,102,136
188,611,316,88,403,145,101,154
190,600,318,91,406,145,96,155
229,576,280,88,423,139,104,164
250,580,281,94,432,140,100,181
262,635,280,92,441,150,91,189
241,515,158,91,420,133,81,168
238,498,156,87,441,125,93,178
193,479,151,103,435,128,85,188
188,538,199,102,459,146,86,170
176,521,218,100,429,126,86,164
170,488,223,93,445,123,89,161
176,499,224,94,499,125,76,148
179,498,230,78,481,181,77,142
148,443,198,76,439,169,77,146
164,455,191,73,452,170,82,148
170,438,184,66,435,199,77,146
179,504,175,65,387,199,76,141
173,497,161,68,399,149,76,144
177,491,145,66,410,142,78,145
160,477,115,72,407,142,75,145
143,527,108,78,435,100,79,149
122,473,134,84,411,94,76,149
134,505,169,86,397,94,70,133
156,514,178,86,392,105,80,147
148,506,175,84,446,114,80,135
152,504,181,89,462,110,80,138
164,511,162,88,510,120,87,142
153,495,138,87,547,127,96,143
133,541,143,85,563,116,89,118
150,573,215,89,552,132,85,133
142,573,226,78,548,131,96,131
127,574,247,85,523,128,91,134
156,630,267,81,533,123,80,131
168,593,263,92,564,161,84,144
164,639,232,85,572,144,94,144
176,656,251,86,562,145,86,149
185,673,277,82,557,136,86,144
186,604,261,99,533,143,85,145
179,608,256,97,485,109,81,133
180,546,245,97,471,99,73,134
170,538,228,104,494,96,67,120
165,558,192,105,551,122,69,137
137,581,184,95,557,130,79,137
194,591,234,103,596,144,90,149
206,577,228,111,596,157,91,138
210,543,215,122,572,169,99,150
207,541,219,162,697,173,121,154
209,534,226,184,752,174,120,167
205,521,191,187,804,161,111,175
202,525,222,388,966,337,129,188
285,540,251,540,1041,914,165,188
317,549,268,603,1204,1030,171,184
381,543,291,616,1273,1146,205,186
382,548,346,622,1246,1167,214,173
407,536,346,533,1192,1132,226,176
443,543,373,461,1372,748,209,180
486,474,380,417,1232,598,208,192
491,548,370,404,1127,920,181,194
506,565,323,406,1186,920,174,231
511,617,314,392,1104,1028,143,227
453,661,303,304,821,1270,132,234
409,690,292,231,791,1530,119,237
364,665,306,243,961,1560,120,224
366,633,345,227,908,1688,114,189
367,677,339,220,934,1632,119,198
385,631,302,196,935,1548,120,217
386,626,279,195,866,1294,109,237
390,596,256,154,672,921,96,241
366,647,210,200,760,654,106,246
353,678,255,207,818,649,110,258
318,704,246,200,807,539,108,231
310,740,259,182,837,540,122,187
291,776,267,190,845,630,123,186
265,750,279,151,817,648,119,178
221,622,263,157,736,699,111,153
234,575,291,164,747,599,110,152
214,544,276,163,677,580,89,143
241,576,283,138,649,551,82,143
257,584,272,111,532,622,81,156
260,596,266,99,564,656,82,150
244,578,248,97,526,648,79,153
248,529,246,108,579,652,78,168
213,522,230,124,734,588,80,174
222,626,205,126,902,459,80,178
218,742,187,119,939,282,79,176
213,748,184,118,934,258,79,169
189,786,183,115,928,214,80,164
228,728,164,103,821,206,81,168
207,630,168,101,633,179,84,157
234,515,148,125,583,160,82,146
240,603,134,119,584,156,85,155
245,600,138,119,639,154,83,158
203,646,177,119,675,146,84,139
200,677,179,110,663,138,72,130
213,667,205,87,639,118,70,133
215,586,248,103,619,119,72,132
231,550,284,100,557,119,79,143
243,509,266,95,521,134,92,166
261,487,281,108,523,131,100,199
238,523,259,105,539,137,98,196
283,635,254,83,652,140,95,207
277,655,209,80,723,198,105,198
277,696,218,85,776,225,111,193
262,669,188,67,782,238,110,164
254,703,220,82,796,239,119,183
197,638,190,119,781,245,121,170
188,617,210,132,728,207,119,175
167,602,198,138,721,177,105,179
162,661,214,147,721,163,101,177
158,633,202,144,690,154,97,164
160,673,234,121,625,132,94,175
149,700,229,109,601,132,78,181
166,719,233,102,546,121,78,181
168,710,226,90,542,118,82,176
159,692,242,89,586,122,78,174
166,630,224,95,560,120,76,157
192,602,231,90,516,113,82,157
200,549,251,83,499,112,82,147
213,612,284,101,550,117,80,149
235,604,267,103,498,137,87,164
231,651,297,98,512,161,92,173
220,673,301,101,583,171,98,177
204,659,281,110,602,170,100,174
191,618,243,111,600,172,101,174
180,610,255,113,618,165,107,182
184,618,202,109,621,182,102,196
185,669,185,115,600,188,107,177
186,676,188,136,612,192,104,188
189,629,223,164,655,206,110,195
189,619,241,164,884,217,110,182
183,588,258,172,950,188,124,168
182,512,255,175,992,175,112,175
183,535,265,178,1083,217,114,179
174,540,243,147,1087,520,105,181
175,579,221,159,976,859,96,182
206,532,215,167,927,1015,88,181
210,505,210,178,924,1054,94,180
213,468,219,224,853,1059,97,160
222,443,225,223,791,1042,105,163
231,395,213,214,697,841,104,160
203,446,218,201,728,786,96,160
189,475,236,189,663,755,113,184
227,593,285,131,654,760,113,191
215,599,281,139,683,670,104,176
239,692,335,149,717,776,120,190
242,671,329,195,826,700,127,184
286,761,333,209,993,679,115,185
262,737,275,194,972,670,120,178
275,851,281,211,1050,629,132,183
250,796,241,216,1074,405,127,167
260,868,233,199,1097,332,124,162
296,797,236,196,1044,346,125,163
300,784,245,200,1099,344,123,190
308,705,296,227,1013,446,120,209
320,736,284,250,1127,456,116,220
337,719,283,257,1043,416,116,248
307,729,327,315,1006,426,118,231
377,712,329,330,1025,466,117,215
380,710,286,316,1046,404,124,207
377,672,279,301,911,609,129,198
368,644,285,288,890,626,127,172
335,619,213,216,863,728,125,186
250,666,294,190,745,700,119,179
233,625,294,165,720,688,106,163
296,606,299,161,727,638,99,195
297,538,303,161,751,698,105,195
299,531,319,172,750,611,109,201
359,562,261,198,874,601,112,224
392,592,264,208,987,614,111,240
351,660,258,231,999,542,111,214
368,744,255,230,973,733,113,217
405,779,228,219,942,891,102,223
376,739,219,202,901,1256,102,205
361,724,217,236,877,1341,130,195
364,663,241,218,858,1410,129,229
362,578,243,224,856,1397,132,230
375,506,246,226,856,1362,143,207
357,453,235,220,768,1214,142,217
356,472,236,169,626,1116,137,222
349,588,251,169,635,1088,135,194
332,682,268,150,726,1138,127,183
324,819,273,138,789,1080,117,190
313,857,270,135,837,949,131,186
306,885,291,124,884,1016,107,192
311,841,308,138,894,1173,113,186
300,847,306,143,843,1037,113,196
257,808,305,154,893,1000,118,193
277,780,302,153,884,957,110,198
266,795,290,153,850,882,112,185
246,853,243,120,787,483,103,175
250,846,229,145,835,352,106,172
258,800,217,146,738,378,105,183
293,816,236,145,780,352,91,194
289,835,247,143,848,352,91,212
305,763,244,137,870,358,95,226
337,752,229,106,797,378,94,219
345,739,252,91,802,354,88,223
329,701,242,94,708,314,97,204
349,619,248,161,669,328,100,190
358,592,242,164,672,336,116,194
349,515,250,169,646,300,114,196
371,514,255,172,595,298,111,170
384,552,259,184,663,278,118,178
408,499,217,136,639,287,133,177
407,547,227,135,580,260,118,157
398,701,216,124,664,277,112,153
383,732,182,116,753,294,119,152
338,725,151,94,701,306,118,160
282,752,140,81,680,256,113,149
266,720,115,62,892,740,121,150
287,615,133,65,884,767,130,153
259,576,177,95,987,882,125,158
279,673,199,99,1083,953,120,137
328,735,246,101,1106,950,111,145
355,820,253,105,985,653,114,161
358,821,305,121,955,630,114,173
373,868,323,116,888,475,121,172
391,832,342,140,873,327,123,187
359,755,324,163,869,340,136,208
358,674,340,169,833,350,136,201
357,635,306,161,859,347,136,194
355,570,309,189,831,573,135,212
346,457,303,218,746,588,130,208
350,469,297,210,687,715,124,206
352,406,271,207,729,973,114,213
334,380,246,217,703,1021,110,214
317,326,187,194,586,906,106,197
326,350,174,139,577,890,108,238
361,352,162,145,594,796,106,244
363,405,182,148,616,514,112,258
362,452,211,139,581,386,106,253
380,461,214,132,678,383,121,296
355,453,220,137,662,408,123,257
335,452,249,133,687,449,113,244
327,438,263,161,749,480,114,247
352,384,244,153,716,514,124,271
358,387,276,174,667,529,131,241
369,508,372,222,761,525,156,257
363,500,362,230,814,511,167,252
347,508,350,206,676,391,164,223
327,526,361,204,677,342,162,214
302,519,352,185,642,323,155,199
311,404,226,121,522,359,130,169
313,411,227,89,347,370,120,161
299,480,223,116,561,521,132,180
310,675,216,131,761,603,130,164
305,733,191,131,919,687,117,156
287,818,197,137,980,678,110,157
315,895,225,140,1015,651,130,170
330,866,222,118,964,535,127,178
320,799,210,100,885,437,126,163
334,787,250,106,716,254,126,166
322,749,279,103,656,215,132,183
277,660,320,108,702,193,112,180
259,661,320,110,635,194,97,164
256,581,356,114,563,194,98,168
274,548,342,105,547,192,103,201
326,467,316,96,489,231,132,200
325,492,272,78,373,246,133,225
342,471,314,130,464,248,139,218
390,465,312,258,727,290,170,244
453,463,316,326,828,392,234,279
497,497,334,378,1098,799,244,273
558,477,327,397,1177,1079,247,246
566,561,332,399,1259,1294,252,251
564,560,311,376,1239,1354,241,235
503,584,318,351,1244,1372,183,163
437,603,309,295,1041,1214,148,159
365,621,319,274,942,995,140,166
361,555,268,261,804,701,139,180
316,572,291,212,680,605,125,175
322,545,298,163,606,581,120,197
314,508,293,161,573,500,128,204
324,507,268,151,570,461,129,208
295,523,289,131,537,485,112,200
288,520,283,100,461,496,109,223
279,503,267,99,513,449,111,206
287,495,278,106,558,436,97,212
251,459,278,140,648,421,106,222
265,438,269,181,723,401,118,252
275,401,240,175,747,355,124,221
283,390,215,181,684,300,125,212
311,416,224,207,730,331,135,240
363,460,220,196,744,339,124,237
397,540,214,172,784,324,117,197
494,733,210,191,885,275,129,239
492,764,208,184,916,297,124,244
531,827,173,182,989,381,115,205
518,832,179,183,944,379,128,209
502,824,206,194,924,379,136,244
413,708,272,206,852,398,143,239
411,754,278,204,844,607,145,235
384,715,309,182,709,643,162,258
368,684,307,229,831,648,164,237
366,678,301,250,828,678,165,211
372,647,245,234,817,685,145,187
394,618,262,238,821,497,140,210
368,595,229,234,839,434,134,179
406,614,251,192,771,471,136,191
418,576,229,142,725,477,126,181
409,579,224,127,681,447,129,180
407,589,250,125,667,440,138,159
414,625,329,139,662,406,127,165
398,636,317,146,648,399,112,165
386,653,330,140,668,343,111,158
376,686,365,138,664,396,107,149
379,728,349,129,630,401,94,186
344,682,292,112,599,341,99,205
301,663,283,84,511,304,99,199
278,664,290,107,498,435,108,207
273,640,242,110,521,437,105,216
262,610,224,110,553,437,106,205
273,636,201,112,566,463,98,195
284,651,242,106,589,486,96,206
294,626,212,82,563,377,83,204
302,592,229,80,579,378,96,217
286,512,228,110,581,392,100,200
284,527,285,123,582,371,99,189
299,573,259,143,613,318,97,203
274,613,268,147,644,294,99,214
265,661,275,151,615,237,99,202
249,650,270,132,601,221,97,200
239,628,222,114,558,189,91,209
232,583,238,89,516,184,96,190
230,598,246,84,541,188,102,191
219,598,219,105,579,160,91,183
217,678,233,122,615,125,97,182
224,678,217,127,647,131,107,192
211,679,192,139,695,149,107,184
262,666,184,151,714,217,111,168
259,672,184,134,680,221,112,176
285,672,176,119,654,218,104,172
265,647,178,133,657,233,102,157
266,683,208,166,732,238,102,166
251,670,195,172,686,227,94,163
284,637,223,181,680,216,99,180
271,618,232,261,846,234,108,183
285,662,257,301,894,239,111,182
289,668,241,308,821,252,112,177
320,710,253,308,853,226,119,272
328,768,238,319,921,279,115,255
342,746,278,291,847,280,116,262
349,756,264,289,876,280,113,273
357,732,282,274,913,264,119,276
331,780,301,287,970,305,122,200
318,803,315,274,956,262,128,215
333,822,287,310,963,300,133,213
337,840,322,354,985,312,142,198
356,871,334,425,1091,345,148,186
383,847,328,461,1094,313,147,187
411,806,327,469,1093,317,148,209
446,869,367,464,1044,302,150,230
449,837,380,460,968,303,145,240
450,862,402,450,935,291,153,251
502,858,418,475,963,384,153,247
493,819,424,484,1015,439,153,218
475,716,493,564,1113,506,177,200
507,723,473,615,1288,578,193,216
495,678,454,605,1264,573,202,230
434,701,479,582,1189,542,208,224
425,735,472,573,1138,494,203,215
389,721,392,471,1060,417,181,210
337,705,431,362,916,317,163,179
324,662,415,316,816,301,134,173
341,590,369,252,772,254,113,173
344,550,356,260,758,270,125,184
369,580,313,271,773,253,139,193
389,559,261,243,644,208,134,195
417,592,278,227,634,201,134,200
396,567,264,231,649,648,132,207
511,580,409,392,734,792,387,289
685,589,591,618,1022,986,723,373
854,667,691,722,1127,1145,943,410
918,685,742,772,1185,1173,1171,409
986,821,794,789,1232,997,1182,410
950,849,739,723,1229,885,1127,367
837,877,620,544,981,657,948,269
652,833,490,449,977,302,734,202
563,818,470,378,996,151,249,195
423,696,382,338,909,96,193,191
385,653,407,343,877,58,179,170
373,699,423,367,909,37,165,199
376,768,459,312,892,29,151,214
355,749,392,311,863,563,131,201
383,741,400,316,918,765,131,194
400,734,368,313,934,841,129,209
412,620,335,260,866,861,129,213
408,571,408,272,845,891,132,203
402,551,412,275,815,723,146,206
364,524,422,399,987,558,192,212
312,510,439,406,986,472,191,210
336,592,452,403,1004,452,181,171
388,583,359,382,936,428,172,165
420,633,398,361,885,396,170,176
444,650,435,218,667,340,115,161
510,808,475,186,582,402,113,139
487,845,508,183,569,462,142,159
459,874,566,182,587,466,160,186
523,889,596,180,602,474,161,221
504,911,570,158,584,486,159,229
445,808,527,147,568,424,157,234
440,731,491,153,543,468,149,241
441,742,444,169,505,535,141,231
408,754,421,168,478,569,129,193
425,752,413,175,450,569,127,210
415,809,476,167,481,554,117,202
419,873,509,164,478,462,105,195
426,872,524,168,521,368,116,232
381,833,500,176,558,380,122,236
411,898,568,172,537,413,122,219
465,907,586,171,554,454,126,224
503,882,600,162,563,460,122,220
519,899,642,144,569,460,104,170
523,907,618,146,710,495,97,174
488,841,575,150,784,530,98,173
442,753,512,186,799,518,113,184
394,754,459,200,829,545,116,175
368,706,427,204,834,554,116,169
333,751,536,205,732,472,117,171
332,729,524,199,691,387,126,195
361,785,557,178,671,378,112,183
365,736,601,201,702,370,115,190
351,724,596,225,728,396,113,209
375,714,568,254,800,470,128,214
386,725,553,257,796,527,115,197
365,705,584,247,756,544,114,189
342,686,568,224,741,522,108,187
350,671,528,217,667,483,106,181
315,624,474,202,675,472,81,147
290,599,476,208,671,457,79,138
269,572,397,208,666,461,87,170
307,722,404,198,605,458,83,172
281,708,405,164,607,454,80,176
271,700,408,145,610,395,82,183
301,760,414,142,610,333,90,218
314,753,416,166,624,309,91,217
303,680,389,165,616,325,102,213
385,763,421,182,679,362,102,219
392,779,441,198,623,375,110,221
422,824,478,223,638,393,106,191
456,875,475,215,651,391,111,183
480,952,520,228,671,388,109,182
448,944,531,221,657,373,108,173
471,931,511,203,630,363,100,172
443,842,521,189,593,351,106,174
410,853,542,198,608,343,105,167
355,765,504,184,605,333,99,162
318,702,469,200,610,327,102,164
324,804,567,188,544,338,107,172
308,822,545,170,579,358,104,165
312,777,549,155,549,359,100,167
306,748,540,152,543,363,102,168
303,715,514,126,482,395,97,151
228,550,394,115,469,371,84,133
225,495,362,101,404,352,75,148
225,498,312,103,393,369,71,134
257,497,337,154,528,442,76,134
253,505,349,184,578,473,87,142
266,551,346,193,625,531,91,159
258,584,342,199,647,544,99,161
239,550,346,190,645,543,94,170
201,503,269,164,557,502,89,187
249,566,345,163,587,473,91,194
255,557,355,172,567,423,94,185
323,597,401,183,574,427,90,180
341,658,420,183,583,412,93,194
375,797,448,180,573,384,92,183
381,879,458,149,498,403,92,170
383,905,503,137,463,402,93,177
355,877,514,128,426,382,102,168
351,887,587,150,440,397,102,146
322,791,607,156,414,410,104,146
278,703,588,154,392,402,97,143
287,710,607,147,380,404,92,125
273,773,603,172,493,455,106,125
270,757,538,167,458,479,117,145
278,785,551,163,521,522,120,132
296,799,532,165,552,511,120,139
283,824,490,164,582,515,116,148
263,798,476,139,497,473,100,163
246,739,465,145,578,437,85,144
261,700,404,147,566,442,76,153
247,655,414,145,544,481,76,168
260,561,388,145,521,491,90,187
258,499,359,138,542,544,85,215
274,517,325,113,461,553,84,212
256,502,325,94,409,519,83,217
272,525,308,100,379,476,83,211
332,666,329,101,408,474,75,211
369,652,307,96,364,446,78,180
400,700,316,101,392,476,86,191
393,679,300,98,393,515,81,178
386,679,307,87,381,564,82,190
324,516,247,73,335,573,77,166
302,513,266,73,346,555,71,161
281,518,306,89,361,560,62,145
288,545,326,93,335,559,81,159
289,506,349,99,352,557,82,143
299,567,361,108,394,579,82,142
284,622,367,113,438,633,93,148
257,556,344,94,408,625,93,156
254,558,336,95,428,604,82,152
245,533,266,87,409,576,81,131
239,518,317,86,378,541,85,144
242,444,298,79,319,494,74,143
287,475,357,94,313,481,71,151
292,467,379,96,302,495,69,145
326,528,402,112,315,514,85,158
318,489,361,111,323,541,84,147
311,485,358,108,307,568,80,126
286,473,324,99,377,634,87,140
276,460,295,96,369,649,83,138
219,371,270,79,376,657,64,130
251,423,353,97,394,665,74,160
254,438,349,113,459,664,77,164
296,460,339,135,487,620,72,152
308,500,340,152,566,592,80,170
323,559,341,156,586,571,82,184
321,637,309,142,567,543,74,169
321,649,356,136,537,525,74,166
272,695,376,116,475,509,75,161
275,686,396,121,443,532,79,146
285,728,455,155,553,567,99,146
289,686,444,201,608,587,103,161
360,727,426,220,614,612,113,200
423,687,387,222,615,640,125,207
419,688,360,211,586,634,122,208
445,618,353,204,554,607,127,238
481,574,323,163,527,571,124,230
438,568,315,136,556,564,116,209
407,609,405,133,534,543,112,207
431,621,443,131,563,570,111,216
404,676,417,103,481,586,85,172
372,700,407,106,455,626,93,183
383,720,423,127,400,647,94,184
371,701,351,158,548,650,102,189
371,722,318,230,628,623,105,183
446,820,377,273,705,626,117,196
455,835,400,296,800,623,115,201
461,820,397,305,851,580,117,193
475,820,402,306,805,563,114,190
451,831,436,313,787,551,120,183
433,744,388,304,773,521,121,214
467,738,383,293,687,513,122,205
519,730,359,282,665,519,123,212
530,698,364,288,701,561,114,217
542,686,328,239,699,591,105,230
510,639,293,231,741,618,97,197
483,600,374,232,765,642,94,187
454,628,443,232,767,638,87,190
404,617,416,249,743,620,81,184
393,583,407,294,682,588,92,180
397,666,481,330,698,552,90,188
392,657,406,323,727,516,87,182
373,638,337,327,699,522,92,208
399,637,346,307,685,519,95,198
408,637,339,261,789,551,86,194
422,567,256,210,689,596,95,189
420,585,280,286,760,595,98,190
392,576,321,285,780,594,100,140
396,577,364,280,763,595,103,147
409,566,379,288,730,632,105,137
384,559,423,315,834,611,97,130
346,549,442,328,841,631,104,132
341,527,429,371,847,632,106,146
332,524,411,427,961,624,112,162
323,513,401,425,905,576,109,176
314,482,339,404,822,559,107,172
338,501,299,354,728,527,101,172
351,479,324,301,696,515,92,165
340,511,328,220,568,523,87,176
315,536,322,244,730,543,92,161
311,592,332,273,767,567,95,165
278,554,337,269,784,583,106,179
272,593,325,270,793,588,113,195
255,574,300,253,746,552,113,172
265,589,303,218,611,494,111,175
259,573,329,168,596,453,109,180
258,580,318,175,593,430,99,161
286,545,283,186,582,402,92,135
282,555,284,203,621,434,93,137
270,561,291,201,666,469,93,137
295,580,259,212,681,489,96,126
375,641,298,185,655,489,94,128
354,671,305,173,653,501,99,152
367,684,302,169,720,494,93,158
381,687,294,169,696,504,98,166
351,639,262,151,656,516,107,199
262,638,211,140,635,512,105,204
289,607,194,140,656,505,98,190
285,567,209,123,576,516,95,185
272,532,211,154,604,497,89,194
314,521,238,166,579,455,91,158
321,447,235,170,563,478,95,148
292,511,236,173,561,476,93,153
279,516,215,176,547,457,96,176
273,546,219,164,506,452,98,184
231,610,228,163,615,470,105,182
255,622,242,174,619,450,104,196
237,543,229,193,637,487,110,193
229,551,210,191,630,509,110,179
238,587,218,170,601,537,114,161
223,532,196,149,485,556,100,166
176,547,182,143,508,583,98,154
232,618,242,100,443,583,91,154
237,613,263,92,435,596,95,133
227,533,250,90,411,582,84,122
278,551,254,82,410,578,75,152
287,556,277,60,399,578,73,150
256,485,221,57,406,546,75,158
247,458,188,51,404,502,83,159
248,456,179,62,448,478,85,169
211,395,154,91,456,452,83,133
201,323,120,104,422,418,81,140
195,449,135,113,456,437,82,134
188,450,153,123,444,440,76,146
221,481,157,121,395,447,71,144
222,529,163,105,378,455,69,148
231,596,172,97,374,455,71,147
222,519,158,86,347,455,71,143
244,552,154,72,354,487,64,138
213,526,163,71,387,510,66,136
198,521,152,77,397,520,66,137
179,472,131,102,472,552,84,149
182,461,134,116,546,580,85,178
156,467,135,139,604,585,93,172
149,510,149,148,613,602,91,157
168,522,170,163,658,609,98,160
246,513,164,167,664,585,88,151
302,591,198,222,715,551,95,173
317,556,203,237,767,541,94,171
347,519,214,241,764,513,104,194
341,459,209,235,776,527,102,193
329,478,245,234,729,518,118,237
329,405,235,184,614,527,116,203
351,538,272,176,552,521,107,205
335,560,257,176,548,515,100,194
340,579,255,188,578,497,103,207
319,585,238,183,646,516,78,155
282,592,231,178,648,500,73,154
253,464,184,152,594,500,74,151
245,468,198,148,623,498,73,145
253,465,191,125,530,505,72,145
263,466,190,144,491,501,75,160
255,445,212,222,642,538,80,164
294,465,241,280,779,551,82,179
286,460,257,285,772,563,85,206
313,512,287,294,817,583,82,206
328,536,290,290,819,571,78,188
342,589,308,263,774,553,74,189
309,594,337,300,839,543,99,183
349,598,333,380,885,527,109,155
381,655,352,402,956,488,120,148
409,684,355,414,1015,475,125,155
451,636,333,402,980,460,131,171
473,647,272,348,890,444,119,182
464,676,251,255,837,432,110,197
407,631,235,283,809,498,106,191
357,632,257,259,728,569,113,209
327,642,258,266,788,583,111,216
288,652,265,245,704,577,113,221
256,608,277,335,819,562,131,221
269,565,248,286,757,487,132,224
279,491,218,282,767,419,120,207
275,499,219,302,741,393,115,177
279,513,230,326,773,398,113,190
299,547,215,229,669,472,104,178
315,573,242,218,684,507,98,192
319,571,228,239,779,513,103,186
323,536,219,211,810,533,111,189
345,492,205,177,805,549,128,183
332,457,228,174,771,504,121,175
350,414,197,165,716,458,122,171
358,385,213,140,711,445,122,170
323,400,201,122,748,414,121,179
284,396,204,128,861,391,106,162
280,381,175,119,911,383,104,169
312,447,175,123,929,393,105,153
285,477,156,120,840,375,110,176
277,469,160,126,774,367,105,186
280,445,172,125,639,356,100,176
285,464,184,132,612,378,95,180
186,369,170,133,631,392,86,174
298,412,223,140,670,445,96,247
309,413,225,124,620,446,94,237
315,447,209,139,684,470,90,240
336,451,213,152,746,439,108,268
344,477,220,148,703,425,111,271
260,412,175,154,640,358,97,195
251,427,187,156,621,335,99,194
255,459,206,142,548,280,114,189
234,462,191,142,474,301,110,145
224,453,185,151,497,310,127,144
198,440,173,135,511,367,129,144
252,538,173,142,582,434,129,170
248,515,151,137,556,467,116,162
272,529,153,137,560,462,110,157
275,517,144,137,596,495,88,158
276,520,171,154,608,463,84,153
223,420,153,148,581,454,83,115
218,421,156,154,631,474,87,119
171,357,166,159,581,501,79,107
160,353,168,161,579,472,88,97
182,356,173,168,614,518,100,137
173,316,170,161,574,492,96,138
166,246,173,190,597,469,97,135
168,243,155,176,603,489,94,157
159,249,159,180,581,476,107,184
141,336,162,191,543,428,104,156
160,364,168,203,575,460,107,171
157,389,162,163,483,444,102,194
139,401,174,156,473,427,108,174
163,419,171,138,417,431,86,145
176,367,146,108,415,462,82,159
161,364,153,89,395,439,75,138
151,377,157,90,406,489,76,107
150,387,169,88,373,462,69,122
127,384,183,88,412,513,72,136
103,450,237,66,412,535,62,123
128,465,229,62,391,559,72,130
137,461,227,103,469,537,80,141
174,498,209,120,507,568,83,155
178,490,203,129,513,513,84,150
172,406,132,124,513,465,87,150
168,389,143,126,507,440,83,160
186,391,136,110,411,405,74,155
168,340,139,104,439,390,85,153
158,330,126,94,405,418,81,147
201,390,160,104,414,455,89,174
196,386,159,105,445,465,84,161
188,353,179,97,487,485,82,177
213,346,177,83,419,490,70,162
217,351,179,84,411,497,74,168
184,300,183,73,374,498,60,134
179,282,173,71,336,496,71,133
166,346,179,67,273,520,84,104
141,336,178,68,293,528,78,103
141,363,180,65,306,567,76,109
146,353,141,62,309,566,78,120
152,372,148,56,307,596,84,129
149,343,126,81,360,596,77,133
138,361,143,84,397,612,85,133
141,364,147,89,405,599,92,120
139,393,161,91,418,614,90,126
147,384,155,99,437,604,86,124
162,417,158,81,404,588,87,126
150,413,143,98,392,566,96,128
153,379,141,98,380,545,87,128
146,388,138,95,354,504,89,120
154,377,140,86,342,489,87,132
148,342,149,82,334,494,80,126
153,368,147,58,282,488,64,135
154,382,150,55,284,524,64,139
168,387,148,61,297,557,73,138
159,410,158,73,388,603,85,140
160,423,142,84,406,675,90,148
191,409,160,85,435,700,90,147
184,410,167,84,436,698,90,144
182,414,164,88,455,692,84,151
200,464,169,120,492,651,77,151
201,450,179,116,527,588,78,159
194,433,165,121,524,570,78,149
213,431,166,122,523,533,76,150
211,463,181,121,522,514,83,148
188,412,192,89,439,525,83,142
183,390,184,87,382,500,82,132
175,480,200,91,402,486,87,137
158,480,200,90,392,521,94,145
170,483,213,92,416,537,89,147
178,507,194,85,378,526,80,141
185,530,191,82,368,531,78,148
171,452,178,73,322,528,70,140
177,487,168,72,318,515,65,133
155,416,135,64,236,522,64,128
148,421,127,62,241,527,66,138
134,408,133,62,270,563,78,129
165,443,129,58,287,573,90,140
181,457,152,63,345,589,94,157
195,488,147,64,368,587,94,149
218,533,155,78,410,598,93,159
220,538,144,78,399,584,83,178
198,532,151,79,405,576,83,178
215,560,143,89,363,534,77,165
210,547,167,100,383,522,79,169
187,513,170,95,359,496,78,163
199,553,187,93,343,473,72,145
194,555,186,92,331,486,61,150
150,474,188,78,342,508,62,153
142,473,171,66,304,525,59,148
139,415,159,57,301,538,67,170
127,376,143,84,347,565,70,171
191,380,166,89,375,590,70,174
198,430,161,92,395,627,67,170
204,412,162,89,390,620,67,167
233,455,184,102,399,631,76,196
239,442,183,83,365,630,78,200
220,430,202,98,395,613,74,202
220,397,202,99,383,563,75,205
220,403,197,102,392,552,75,212
197,371,177,88,367,533,57,152
202,371,189,92,378,517,64,175
176,329,141,70,319,515,87,177
170,365,139,86,338,523,90,179
171,404,161,98,351,545,90,178
162,391,158,99,347,546,89,171
172,442,169,119,373,559,84,159
172,473,159,118,364,547,66,144
180,491,164,111,356,558,71,143
172,452,144,114,365,544,70,135
188,479,174,131,425,538,79,158
157,421,158,117,414,540,76,130
155,402,158,119,455,559,71,116
151,348,142,121,466,563,61,115
163,378,136,108,452,579,57,117
169,382,121,86,410,597,51,123
169,420,123,78,390,593,54,138
180,433,144,72,372,578,54,148
170,438,144,54,335,591,60,140
226,437,148,52,330,576,62,159
213,418,136,53,337,558,72,164
219,410,137,69,345,560,70,167
227,437,138,80,393,592,78,163
247,425,141,92,405,570,77,168
226,423,146,99,428,575,82,158
219,429,147,102,416,589,78,133
225,432,140,109,428,574,84,125
216,372,125,113,364,556,79,134
199,382,127,103,373,553,78,136
154,416,127,97,353,539,81,153
160,417,128,94,382,551,76,154
150,397,124,72,366,542,66,155
143,434,123,49,359,527,65,146
145,440,126,57,400,545,66,153
158,383,118,63,403,529,71,134
157,364,109,64,392,486,71,146
173,383,107,72,384,487,74,141
175,360,108,77,396,476,73,138
172,360,107,75,335,426,70,126
166,395,108,71,320,472,63,146
159,389,107,70,302,476,62,142
144,399,126,67,316,474,65,150
153,396,119,59,294,473,79,165
154,422,128,56,297,500,83,176
144,412,136,56,335,483,78,167
152,430,136,53,330,510,73,151
154,392,115,46,324,517,66,138
151,386,121,53,336,514,54,129
155,319,101,57,345,523,58,113
167,290,103,64,302,509,60,104
173,262,122,69,312,485,73,119
172,274,128,69,339,506,83,148
158,315,124,65,345,514,80,150
148,336,132,66,357,489,76,147
138,362,132,65,407,501,84,140
124,356,124,67,405,490,79,140
149,373,142,75,386,446,71,117
158,352,146,77,368,437,70,103
162,390,141,75,330,420,65,102
159,375,133,69,273,384,52,121
183,394,126,66,284,397,52,126
172,426,119,59,332,487,50,133
174,468,136,69,378,512,56,143
175,458,156,70,392,560,55,148
172,506,161,73,473,602,61,135
149,499,160,72,486,613,72,124
129,488,168,71,464,579,71,113
121,458,172,64,453,582,68,102
109,428,155,69,465,572,70,95
124,460,208,75,437,573,68,106
119,454,207,96,420,574,70,115
125,444,219,176,633,597,86,112
140,464,230,190,652,603,90,130
151,523,243,186,647,598,91,133
147,477,198,184,636,577,90,125
150,516,244,175,638,561,77,117
182,534,254,100,432,515,67,133
270,617,262,79,382,483,65,122
283,645,362,96,452,484,65,125
292,667,477,118,480,494,67,148
315,687,481,123,541,511,69,152
334,794,531,125,547,506,70,145
319,743,560,127,576,519,66,167
342,705,600,120,611,551,68,175
354,743,530,108,622,554,78,167
352,758,630,111,614,548,83,194
364,756,640,119,620,556,81,196
323,757,682,109,630,555,84,179
305,766,634,112,583,531,83,178
330,811,674,114,658,591,76,188
344,797,595,110,647,608,68,165
326,735,573,108,635,631,70,163
393,752,502,122,663,644,76,179
443,781,495,138,656,629,83,201
429,720,439,133,537,559,82,201
424,738,506,131,521,518,82,204
416,665,472,121,532,488,78,217
357,630,453,118,453,455,72,208
303,618,430,89,401,441,62,185
295,553,466,100,443,476,61,173
289,535,392,108,491,526,74,187
310,556,388,121,492,543,75,178
303,558,386,111,516,608,74,168
310,575,378,124,568,640,78,169
314,593,341,110,529,611,77,160
303,601,332,108,534,597,69,134
316,654,347,114,527,583,73,152
317,651,370,120,515,500,71,152
306,613,371,115,479,454,71,169
288,583,398,118,466,443,74,187
278,551,391,112,399,424,72,193
216,485,368,92,406,432,63,165
215,472,351,85,402,460,76,187
180,440,325,74,405,513,71,163
186,457,251,66,422,525,68,156
179,423,205,59,421,511,63,143
173,410,260,66,442,503,67,145
156,385,240,60,416,482,50,112
138,377,241,59,406,433,48,107
127,370,243,61,402,406,48,108
132,369,248,68,395,408,48,117
128,412,173,55,329,388,48,116
126,416,181,55,329,380,50,116
133,406,176,52,298,366,53,124
126,424,175,52,306,393,57,118
154,464,190,57,278,416,61,114
183,461,209,67,327,443,58,118
189,455,211,66,330,444,57,123
196,464,223,74,344,478,57,120
194,458,212,75,353,482,57,122
184,427,229,83,388,449,60,133
167,369,232,79,362,435,58,133
165,384,229,79,354,433,62,126
165,361,220,77,346,385,61,132
193,340,242,86,331,366,57,141
177,290,190,72,291,376,51,131
217,397,304,94,314,380,53,127
226,380,304,99,328,407,48,127
219,403,319,95,337,426,48,116
216,483,327,88,328,438,54,96
217,496,332,87,318,462,51,85
242,483,238,80,348,456,53,109
240,503,259,76,351,445,60,125
239,496,241,75,344,465,58,126
225,439,254,77,357,449,57,117
228,423,251,78,350,430,57,114
219,475,261,105,377,474,53,101
226,518,341,107,372,462,55,110
226,499,346,108,380,458,55,110
221,488,329,104,363,485,52,119
217,549,346,104,375,481,53,131
139,454,326,57,280,447,53,127
132,409,240,50,276,467,50,105
125,410,229,48,245,445,52,106
127,438,238,46,233,420,48,93
126,360,222,45,229,432,51,112
123,344,212,44,214,403,50,110
125,390,222,57,263,388,47,113
134,401,225,61,284,416,47,120
134,386,188,64,293,408,43,120
144,395,178,64,299,414,37,99
145,389,167,62,317,460,51,151
122,306,106,53,305,477,55,148
124,308,99,50,298,490,55,147
114,287,128,48,310,541,58,149
96,278,121,48,293,541,62,146
100,330,147,53,299,514,52,100
100,328,147,49,288,510,46,100
97,325,157,52,281,497,42,92
147,409,201,79,383,462,55,115
155,415,203,80,387,443,50,111
180,396,204,113,412,474,54,120
184,416,204,118,408,481,54,125
202,512,214,134,477,502,65,135
169,438,169,121,387,516,54,130
186,471,189,129,447,586,59,133
173,455,179,98,425,583,66,136
180,482,202,100,426,605,68,146
176,408,217,83,381,592,66,149
203,472,264,81,396,586,68,143
203,459,291,67,342,549,75,174
214,484,291,66,355,567,72,167
221,453,284,61,378,565,71,156
223,494,282,63,349,588,66,146
243,476,243,66,337,610,68,153
251,492,208,70,337,611,57,133
232,487,218,73,353,634,51,125
238,492,227,72,348,629,57,131
237,468,232,63,356,606,54,132
196,434,227,60,350,595,50,116
187,424,231,65,352,590,56,102
200,414,213,62,315,545,57,117
198,512,239,66,280,533,54,113
181,509,203,64,265,520,53,105
190,506,201,64,276,518,57,126
175,516,190,57,263,547,50,121
167,522,201,68,269,549,66,122
150,464,173,70,349,595,67,125
179,477,182,78,376,639,70,142
171,484,204,80,429,668,68,127
188,451,198,77,427,666,75,132
258,503,231,95,504,724,63,135
289,493,230,116,525,709,64,135
345,459,274,339,645,722,77,137
420,504,313,478,870,750,110,150
533,563,314,544,949,806,129,172
592,595,357,558,1006,762,140,177
605,608,417,582,1029,742,152,186
585,615,413,572,1122,687,162,202
554,581,409,539,1161,645,152,197
441,633,467,502,1160,547,138,179
339,595,463,489,1119,537,134,183
336,579,460,473,1139,571,130,185
322,643,469,425,1039,607,121,198
305,695,501,368,862,584,115,217
316,613,459,342,789,579,112,247
320,615,455,342,815,568,115,254
311,635,411,352,845,654,114,253
336,631,422,355,1016,768,117,233
360,702,351,330,983,870,121,222
365,782,339,323,1015,918,121,200
357,825,316,322,984,945,117,172
330,814,315,298,983,862,115,163
295,771,256,212,782,783,99,165
282,732,342,229,825,705,97,152
296,674,364,229,797,630,101,139
319,600,341,222,767,592,95,140
328,586,347,263,843,589,103,133
347,611,369,281,820,508,116,134
326,570,283,247,827,570,116,141
367,582,263,242,866,592,116,170
344,575,270,253,909,597,114,169
350,666,247,220,830,653,119,186
329,640,205,181,804,719,105,172
334,752,227,205,929,734,106,164
293,711,235,219,959,762,109,172
269,710,214,213,1009,760,110,171
267,685,210,221,993,750,98,196
296,710,211,224,1002,711,100,199
308,543,178,198,852,598,88,201
296,622,211,181,894,653,77,203
324,633,213,170,865,654,77,207
328,627,235,118,859,657,74,187
302,587,249,116,837,650,66,183
272,588,255,115,835,667,64,178
291,595,294,121,790,648,68,153
271,590,297,110,722,668,67,154
245,616,286,107,675,661,59,136
232,613,275,113,686,644,62,130
231,644,278,123,665,627,65,126
210,581,202,132,625,585,70,103
202,599,188,137,692,639,67,89
218,535,214,157,722,607,80,118
228,569,218,152,720,620,80,135
232,531,224,139,699,609,84,152
230,561,216,125,678,596,80,151
315,559,246,139,640,550,81,158
388,575,226,121,592,574,73,159
402,561,222,138,627,594,79,174
415,545,211,138,629,577,78,171
403,557,230,135,592,548,77,168
372,603,229,117,567,612,75,165
317,604,237,112,554,601,67,166
297,603,234,86,512,582,56,138
272,619,233,88,522,600,71,136
269,587,209,93,503,616,71,139
232,528,189,106,579,599,80,162
212,485,189,103,676,599,83,131
212,498,203,106,695,647,86,132
236,507,206,100,669,640,79,146
255,500,210,98,695,628,78,157
256,506,220,105,697,615,72,136
261,571,230,118,646,680,78,150
265,548,225,113,617,629,75,150
259,573,232,142,670,633,71,143
244,575,229,139,658,614,70,140
267,578,235,150,601,560,80,165
289,526,202,145,572,546,70,154
285,544,196,156,577,563,74,158
276,504,185,144,558,560,70,147
274,508,182,150,578,577,74,141
246,473,170,132,525,570,77,126
179,444,156,121,497,530,76,123
223,472,159,110,534,609,77,132
243,532,165,131,533,679,84,186
240,505,162,127,503,707,81,194
251,511,184,129,619,718,71,197
257,600,207,139,654,710,78,204
211,574,202,139,638,695,74,194
193,527,193,107,628,675,64,142
249,593,215,117,678,676,74,167
242,618,179,103,600,682,72,154
229,532,165,88,546,644,65,148
284,609,191,96,565,580,83,174
279,646,194,107,575,607,87,175
229,610,162,95,530,621,78,131
249,677,186,105,535,641,92,154
279,696,177,107,559,692,92,153
242,625,169,96,513,696,80,126
241,627,171,79,497,691,75,128
259,614,174,68,496,671,72,148
275,519,172,57,474,650,51,124
256,503,176,56,447,627,50,129
265,505,180,56,437,610,52,139
264,462,182,51,434,600,50,145
282,531,178,51,436,656,57,133
260,542,168,71,452,667,59,133
265,541,168,71,443,660,62,130
247,549,143,71,458,673,57,118
255,525,146,72,412,620,64,122
222,485,170,74,410,615,79,133
238,490,153,61,367,599,77,127
219,490,158,78,424,596,80,124
216,471,152,81,445,619,81,125
214,495,145,85,475,614,81,158
215,557,124,91,474,546,65,158
212,550,126,92,524,591,68,172
242,575,110,85,516,630,68,172
240,579,113,84,539,643,67,168
269,611,114,83,533,677,77,138
317,641,171,80,512,677,77,121
336,710,178,74,501,694,78,121
328,705,184,66,470,662,72,132
332,696,196,65,434,646,76,160
338,690,219,65,464,644,69,160
282,577,170,58,448,622,67,160
227,501,169,56,396,519,63,155
219,500,162,54,434,676,66,145
298,578,161,86,497,729,71,166
264,554,127,87,493,716,62,159
266,534,125,89,492,705,61,161
310,551,138,97,518,743,63,162
303,508,135,99,461,576,60,158
227,445,127,70,361,519,52,116
219,406,121,64,302,506,51,111
225,462,129,70,361,610,49,115
152,401,106,59,332,584,45,99
141,409,105,56,349,600,43,99
147,402,102,70,378,574,39,106
156,450,108,88,413,573,40,123
165,400,99,83,363,471,37,114
186,400,121,87,341,490,39,122
199,419,130,89,362,467,46,131
187,420,125,77,360,508,47,120
189,433,140,74,343,538,54,107
184,492,157,73,352,548,58,108
182,496,143,72,360,515,60,102
173,497,155,77,356,532,59,102
164,468,158,82,361,515,68,130
154,486,155,69,351,580,64,129
152,460,142,71,353,597,65,134
130,449,134,65,373,585,62,130
130,442,174,71,362,590,64,132
138,487,173,70,347,632,52,96
138,467,174,74,378,581,52,129
123,476,170,74,382,573,51,138
125,469,172,75,345,565,52,149
135,469,116,62,353,553,51,155
131,469,116,61,369,547,51,157
130,436,96,59,360,519,52,135
124,412,98,62,357,510,54,139
124,422,101,61,377,554,54,133
139,478,119,67,409,582,56,132
145,440,115,64,391,519,56,131
154,449,122,68,379,518,58,132
153,452,120,64,367,522,52,108
165,448,116,67,387,540,54,125
162,418,143,75,424,617,48,119
152,400,142,80,421,616,47,116
166,464,198,90,429,600,54,125
167,454,208,89,432,593,57,128
155,490,223,87,410,565,64,164
154,499,215,80,329,447,66,169
166,605,224,84,333,442,72,175
167,547,180,71,338,480,65,180
173,636,176,70,377,542,69,182
177,616,163,76,375,532,59,137
164,628,140,75,389,540,58,128
166,535,153,68,383,563,56,129
146,522,145,67,365,561,52,107
138,434,160,67,326,511,44,105
135,459,148,60,363,548,58,140
131,433,169,58,342,528,58,141
118,429,145,58,370,495,57,147
106,460,147,50,400,547,58,146
102,470,122,51,398,552,63,154
101,426,159,50,361,509,52,130
123,391,146,51,368,533,50,124
123,385,145,50,333,524,48,121
129,447,158,52,305,498,52,122
141,431,166,55,296,500,49,109
137,491,162,63,345,517,52,100
115,486,153,61,347,515,54,107
197,607,185,65,363,531,60,123
195,572,172,65,368,520,55,123
189,583,198,62,371,485,58,127
207,560,189,65,351,507,56,131
211,606,198,72,347,589,56,132
142,519,173,68,357,598,62,120
149,502,175,70,336,563,62,122
159,507,147,83,363,593,61,119
142,526,131,76,370,597,69,159
153,520,133,73,408,594,66,154
151,512,129,73,411,591,53,142
178,525,132,83,392,576,54,146
164,478,116,73,378,561,54,140
188,520,148,76,369,524,44,97
175,542,133,82,346,495,45,93
190,533,150,97,384,499,56,116
158,498,148,89,393,499,57,107
186,536,189,91,474,584,58,124
154,483,167,90,471,597,56,116
158,425,169,82,466,550,52,115
155,491,170,79,438,564,45,109
154,548,184,86,501,657,52,117
119,560,148,83,436,619,50,103
128,585,162,88,447,638,51,132
123,614,166,89,469,680,54,134
91,572,157,76,464,698,58,124
96,525,150,67,428,633,58,118
112,488,169,65,414,608,67,128
107,444,160,56,405,591,75,116
113,409,170,55,370,554,75,133
137,414,166,55,368,506,72,139
133,439,159,69,378,517,69,139
140,451,152,71,406,519,61,132
164,465,170,79,417,497,53,113
160,438,153,84,423,468,53,98
147,409,175,86,421,477,55,93
198,384,180,88,449,450,54,94
192,396,170,116,512,421,57,109
179,392,159,125,536,432,63,123
186,430,171,122,559,462,65,131
189,451,178,122,577,479,63,134
144,512,185,120,714,557,74,171
145,497,182,95,657,588,73,173
142,497,173,77,642,624,67,167
135,494,160,79,619,621,65,158
128,478,130,84,621,610,64,158
130,423,104,81,421,538,48,114
117,407,108,79,419,545,45,107
110,413,113,81,452,608,44,108
110,408,135,83,478,609,43,119
103,446,131,80,450,595,43,114
85,428,129,72,440,618,44,124
120,511,135,70,490,685,48,141
128,481,135,68,452,608,49,134
135,485,125,67,426,606,47,128
144,491,128,61,440,603,48,127
147,529,142,64,435,592,50,127
135,511,136,76,428,581,44,99
133,522,139,76,411,556,45,104
126,528,125,88,417,527,54,101
131,523,171,93,396,559,59,109
132,517,170,97,424,600,60,103
120,462,168,89,367,506,61,101
124,485,178,91,396,535,59,102
139,457,176,75,371,554,53,96
140,439,173,71,361,534,60,99
137,438,165,63,365,535,61,105
191,528,205,78,399,539,62,115
196,493,189,82,367,518,60,109
212,539,232,104,429,522,66,125
207,557,211,107,481,605,55,112
210,561,212,110,477,564,52,142
161,499,171,100,454,554,48,133
144,493,171,99,473,589,49,133
94,456,107,72,453,631,46,131
110,428,93,65,391,559,43,133
100,385,93,57,371,569,40,89
110,370,99,54,371,579,43,89
123,397,96,45,354,568,45,91
125,383,112,53,323,509,43,112
107,390,108,52,368,581,43,111
132,411,104,68,380,544,59,138
128,398,100,72,378,558,62,150
115,405,101,71,417,635,60,150
136,403,108,74,406,649,58,134
137,382,113,79,408,597,65,148
122,355,113,72,408,620,58,127
114,383,114,68,395,618,54,113
132,442,125,72,377,596,55,114
108,458,104,66,401,580,70,127
104,459,114,59,383,571,66,111
107,470,112,52,340,553,60,102
110,488,107,51,377,568,65,116
115,424,123,59,377,498,64,122
118,401,121,59,346,501,50,99
119,412,133,60,384,557,54,100
107,437,133,59,402,613,57,102
120,439,180,65,408,616,53,81
93,445,165,51,394,643,53,78
92,478,175,59,459,722,61,102
91,491,161,58,461,712,56,98
100,493,162,61,446,680,52,108
91,495,120,58,444,699,51,121
94,495,124,59,444,681,54,118
96,473,123,53,385,600,43,98
94,506,119,52,370,597,43,99
89,484,115,47,384,608,51,91
99,453,110,45,371,563,52,78
99,421,100,43,345,525,50,77
151,463,106,67,375,512,52,112
157,424,98,70,366,524,52,112
163,432,123,71,357,482,48,119
155,434,142,72,352,484,53,123
159,450,173,157,451,482,67,127
108,411,176,154,486,536,69,154
159,439,189,160,475,471,73,159
208,555,199,167,577,523,74,173
224,556,199,169,589,553,72,190
232,570,192,105,545,636,65,191
261,602,192,133,570,640,66,156
284,588,199,152,591,648,74,172
258,544,218,171,602,643,80,185
258,570,235,181,648,686,86,164
256,580,232,195,654,622,99,182
267,591,230,181,646,572,102,186
219,593,231,185,761,548,102,174
224,585,285,175,708,564,103,155
235,573,266,180,776,491,99,187
235,569,277,191,896,523,101,186
209,521,277,183,867,539,94,183
210,543,289,165,754,589,92,178
201,524,220,155,730,554,97,180
179,493,217,137,600,538,96,153
188,542,217,91,424,528,81,150
191,594,239,94,438,549,82,150
190,578,212,84,454,589,82,160
195,550,210,79,450,574,68,154
204,615,236,82,482,602,80,167
201,580,226,90,534,646,78,155
192,553,228,90,511,635,78,152
194,582,270,88,557,631,78,163
185,582,286,93,566,684,85,152
181,571,310,87,611,694,74,131
173,610,352,94,611,741,77,125
167,583,343,94,693,762,92,138
165,643,326,96,648,732,91,114
165,662,306,90,656,700,84,111
167,679,290,102,685,688,91,139
188,663,244,92,643,636,89,166
209,683,238,90,585,591,74,165
220,622,264,102,594,544,71,173
229,634,290,112,662,596,72,178
228,597,309,128,594,566,77,231
218,558,325,133,604,532,85,216
198,569,365,313,722,535,105,209
187,528,363,348,774,529,123,228
171,507,340,373,783,524,128,240
193,555,301,381,778,551,121,170
202,575,295,383,779,543,123,190
204,599,262,279,775,610,107,199
208,624,237,260,868,665,94,176
237,625,257,225,831,632,99,163
225,565,252,197,826,624,105,175
207,567,270,199,834,605,98,157
195,496,257,170,716,554,98,143
204,485,276,136,534,515,89,159
189,442,265,136,489,477,74,164
184,434,272,138,494,506,64,165
195,436,243,129,497,537,58,163
210,444,230,123,494,545,59,169
201,425,185,108,487,517,68,157
189,442,186,98,498,596,68,147
170,485,178,87,471,582,74,139
200,549,163,91,511,674,78,132
204,590,183,113,627,741,91,176
197,568,181,108,641,748,87,164
204,610,185,111,636,684,90,169
243,670,251,125,665,695,92,186
216,643,274,143,667,633,98,188
207,633,269,136,615,582,84,143
230,655,290,149,640,592,105,153
240,630,325,162,657,617,103,171
198,535,294,174,648,586,97,151
201,482,269,156,598,537,99,171
205,471,288,152,559,502,102,183
199,477,279,137,493,479,80,185
175,458,231,121,465,467,83,170
178,447,208,88,459,467,85,184
170,459,216,82,391,449,73,161
254,476,188,81,386,421,92,179
246,498,177,78,477,506,96,166
266,607,215,85,504,581,101,199
272,655,210,93,568,644,99,182
294,711,269,100,653,685,100,194
227,717,277,98,662,746,82,167
233,715,281,109,645,748,75,166
257,653,261,132,683,706,71,128
267,661,263,176,794,720,73,132
249,593,222,199,782,712,74,125
259,595,226,219,841,746,78,133
247,617,226,219,852,751,83,169
206,599,225,203,820,732,78,171
187,539,222,170,699,719,85,169
200,577,201,134,661,734,87,172
189,601,202,110,620,705,86,160
192,585,222,108,588,675,81,144
188,582,239,122,611,694,79,147
217,626,283,129,667,665,76,182
204,610,311,161,704,621,74,182
187,550,298,172,717,610,71,188
197,534,288,178,726,621,75,185
208,592,301,180,734,608,75,240
173,547,318,192,772,596,75,217
167,588,312,181,813,659,82,216
213,601,347,167,756,599,80,217
229,580,358,160,742,592,81,221
299,527,339,155,706,607,80,177
311,531,285,128,624,566,72,186
324,436,261,114,547,523,78,189
323,464,226,115,554,560,73,184
307,504,210,113,547,569,76,180
236,583,219,100,536,590,80,170
253,599,220,127,460,632,80,155
247,628,235,124,447,643,63,145
234,604,231,123,447,636,67,163
265,579,258,122,557,668,68,163
254,520,276,134,623,667,70,151
238,559,279,120,690,713,75,157
243,614,279,121,677,702,75,156
233,614,260,119,679,675,80,137
253,640,223,115,609,626,81,134
315,616,162,95,555,621,74,129
314,601,174,81,491,593,81,165
313,553,171,75,523,609,87,178
315,548,210,85,563,624,96,215
283,495,218,100,603,623,91,207
223,461,223,109,621,583,109,230
244,485,227,103,592,516,105,221
244,511,241,102,564,511,103,227
229,496,223,160,642,487,100,205
210,517,213,161,582,499,109,210
243,613,207,157,528,537,97,182
293,680,211,161,572,627,95,200
296,712,179,161,595,617,94,207
299,717,165,102,484,668,88,217
326,737,175,93,524,682,81,215
308,696,179,101,576,673,81,214
229,602,175,100,554,611,83,177
274,573,181,96,535,598,78,157
285,629,199,96,539,573,72,150
279,585,190,89,494,546,68,144
276,674,218,75,454,624,62,169
302,700,244,73,480,613,69,193
253,637,237,81,441,592,72,185
255,594,231,73,428,580,70,167
246,641,232,72,446,574,72,173
248,575,246,78,490,550,78,178
225,549,197,76,475,583,71,163
228,572,206,81,535,609,74,160
264,577,242,93,522,619,80,175
258,561,242,98,501,629,86,194
255,540,209,98,472,592,81,171
266,556,212,99,493,633,78,164
297,568,211,104,442,620,75,163
279,603,216,115,487,598,80,156
289,644,227,120,555,582,74,141
299,630,226,119,569,573,75,160
295,664,220,117,574,570,77,163
273,695,224,108,567,585,79,166
271,676,188,82,553,602,71,155
280,617,182,79,492,615,66,144
269,638,177,103,541,630,63,118
255,580,184,104,506,594,74,120
242,589,174,99,518,605,72,133
268,562,151,98,526,635,75,136
251,556,142,98,522,642,73,137
249,571,140,82,478,590,77,134
252,548,134,93,483,580,83,162
261,504,129,97,508,628,87,160
200,497,128,101,454,619,81,163
226,590,169,95,486,611,89,167
251,542,162,82,437,633,82,172
282,560,178,67,443,652,83,208
277,555,174,59,433,635,78,201
289,556,194,61,481,713,87,203
278,541,173,76,493,729,84,200
260,542,174,79,510,716,93,213
335,535,171,79,499,710,77,148
345,547,183,95,551,679,91,192
351,620,219,117,534,560,86,187
384,580,206,117,594,637,84,185
389,598,209,127,634,698,85,175
333,626,203,137,647,683,94,188
338,618,217,140,620,660,83,155
322,551,163,125,662,688,81,151
265,585,167,122,634,663,83,173
268,642,182,118,630,651,78,176
219,617,201,106,609,671,78,167
202,596,199,91,566,682,72,174
244,578,210,85,493,664,76,182
321,512,212,79,451,628,89,162
304,437,214,72,405,632,85,151
316,503,206,79,418,602,79,154
305,541,214,89,442,613,83,136
288,571,214,84,449,596,79,123
213,598,211,83,456,581,75,147
276,653,219,88,506,605,79,168
277,594,209,97,589,639,76,156
289,600,198,89,608,634,74,157
319,608,201,89,599,620,76,164
342,581,195,86,585,629,63,179
299,566,184,92,560,607,61,163
306,599,180,85,436,545,60,166
303,574,160,80,402,530,58,159
290,576,152,82,442,572,59,161
257,584,161,83,419,525,67,136
262,535,162,69,418,520,68,143
252,558,167,54,433,522,66,138
258,645,212,65,525,606,72,143
227,642,209,66,531,616,69,134
229,691,200,83,556,632,68,151
214,725,184,91,555,634,62,132
216,724,178,104,556,683,72,144
188,648,133,100,480,642,63,140
176,654,124,98,501,690,64,145
161,621,125,86,490,705,69,131
170,599,123,77,465,719,70,138
152,582,140,64,498,719,64,132
228,569,156,60,488,688,69,173
248,550,152,57,422,606,71,169
268,537,164,57,386,570,75,173
267,546,173,60,385,540,74,172
276,539,168,58,407,538,73,165
224,540,161,59,436,601,70,121
204,533,186,67,449,636,69,129
188,527,188,66,453,633,61,129
200,556,189,61,509,686,68,129
195,577,198,65,527,725,66,146
193,659,191,68,608,793,70,150
200,686,173,69,611,816,70,156
226,682,177,66,636,841,66,144
207,649,173,65,588,778,57,141
197,602,157,58,521,716,58,124
201,520,151,59,386,572,53,128
194,497,149,49,376,495,56,147
162,494,147,53,342,490,65,175
170,452,185,57,306,482,77,189
181,450,181,54,298,469,76,197
170,419,184,48,290,473,76,204
167,418,183,49,289,493,76,182
165,434,176,45,283,474,68,147
208,475,138,39,303,467,64,149
208,468,137,45,319,469,69,155
217,485,128,48,384,508,71,151
213,457,138,56,400,508,73,151
213,416,141,57,404,518,74,178
168,344,137,59,415,518,67,161
217,352,145,54,408,508,65,154
250,371,155,58,329,473,60,146
257,394,201,105,378,454,63,150
263,421,213,129,404,434,63,124
313,446,240,150,434,452,65,126
312,418,235,161,516,466,68,120
287,402,230,161,544,451,71,129
343,419,207,133,509,460,68,132
352,412,240,118,489,457,65,125
341,393,209,97,473,431,62,119
320,416,243,106,495,457,63,116
356,506,278,116,487,471,81,132
345,552,299,155,490,477,89,160
337,594,268,175,622,497,96,173
320,651,335,176,654,503,100,186
373,668,314,168,594,467,96,198
356,612,288,179,687,476,95,209
327,584,276,149,700,473,90,183
339,534,280,123,603,449,81,172
333,454,205,141,650,457,82,179
283,425,206,155,709,451,91,166
287,430,231,141,630,430,79,145
299,371,198,144,638,409,77,156
287,368,204,148,664,403,85,153
281,376,229,146,626,385,80,132
277,405,232,130,548,460,69,135
297,499,224,133,592,522,72,140
270,516,227,126,580,543,72,127
266,553,227,136,584,581,89,168
258,562,193,119,539,608,88,169
276,560,212,128,555,576,88,170
234,463,188,114,503,547,81,149
254,581,200,127,513,534,91,170
246,559,184,112,531,512,72,137
245,568,182,109,526,483,74,154
241,566,163,94,512,459,78,152
228,560,161,94,492,437,78,154
214,521,150,82,517,516,70,137
212,602,140,80,487,578,65,128
230,735,140,83,696,785,65,126
211,857,146,92,755,917,70,130
208,866,147,98,757,950,69,129
199,859,141,97,760,922,63,125
203,833,147,101,731,888,70,140
179,717,152,96,549,744,67,122
200,593,133,89,459,630,60,154
203,595,131,82,475,642,62,158
194,532,140,78,413,672,64,160
190,555,154,66,452,699,61,155
186,554,152,83,512,681,61,152
140,537,199,136,675,705,82,132
132,515,197,150,685,652,86,139
131,544,191,151,683,634,83,134
120,475,185,150,671,626,78,124
136,527,188,144,655,627,81,133
139,525,139,93,515,629,58,116
157,542,138,66,494,643,51,122
172,505,152,65,528,662,54,129
177,504,136,65,525,678,57,161
164,481,182,69,484,674,53,162
153,532,196,89,529,671,72,163
135,520,253,93,563,686,75,151
152,523,245,96,543,652,73,168
155,564,250,96,561,649,77,168
173,526,228,92,582,649,82,165
176,458,219,77,513,622,66,163
182,488,160,81,490,625,65,179
159,490,157,154,549,632,80,192
153,447,157,165,571,624,80,179
168,485,171,161,561,625,80,194
165,510,194,159,551,657,79,207
162,532,208,156,575,645,83,203
154,532,238,108,556,621,77,179
151,551,236,93,512,582,71,168
116,584,237,94,496,651,67,162
117,596,214,93,575,624,70,160
147,600,226,101,525,623,66,156
149,622,208,93,546,639,63,150
157,630,215,97,540,647,68,162
186,593,191,97,539,568,67,168
185,579,190,96,493,591,77,182
185,543,167,91,526,597,74,176
186,511,156,69,444,611,69,176
185,512,152,54,458,626,67,186
157,504,182,57,456,677,76,175
153,496,245,71,425,645,72,146
130,474,244,93,448,616,74,158
125,549,274,101,473,599,74,161
133,567,283,102,483,591,73,146
126,572,279,101,504,560,66,143
164,588,237,93,517,591,60,146
165,599,252,72,499,630,55,133
179,521,223,60,471,643,51,119
192,526,224,57,450,637,65,139
204,541,211,55,439,624,62,131
174,500,194,57,488,591,59,124
187,580,192,69,500,605,74,140
172,602,180,72,504,608,74,143
150,564,162,76,524,641,64,115
166,590,162,82,540,697,65,152
174,621,164,81,505,693,65,155
155,586,129,74,508,663,61,152
157,581,127,76,501,629,66,154
159,589,148,71,478,606,63,151
140,551,233,67,487,564,64,127
173,512,236,66,470,531,65,126
175,533,252,59,448,606,55,103
193,558,253,56,485,641,49,99
188,567,243,56,493,629,49,102
186,614,157,53,484,684,44,102
148,645,157,59,492,695,53,112
189,630,193,87,502,640,55,129
173,600,210,87,487,639,55,138
181,604,253,96,477,649,56,151
178,542,253,95,442,573,55,144
187,593,296,95,475,610,44,145
145,545,275,78,467,615,42,136
179,612,283,87,460,612,42,133
194,567,284,86,462,606,47,141
194,561,280,93,481,620,53,150
214,625,256,102,512,664,56,154
222,634,246,98,490,638,65,179
211,610,344,102,547,629,68,178
198,610,320,102,555,615,75,169
207,645,344,98,591,635,72,159
191,552,340,91,568,602,75,157
182,607,370,101,584,596,72,125
171,565,266,101,583,607,79,141
168,619,303,109,619,642,75,144
184,600,303,128,581,585,83,154
188,572,297,135,574,557,79,151
203,522,273,142,598,562,79,158
240,564,289,148,583,576,70,162
260,573,273,149,564,588,75,154
266,596,262,137,616,641,70,166
298,620,282,137,616,621,72,167
303,636,298,122,585,647,70,179
283,616,302,121,599,626,72,170
283,594,299,125,557,583,67,175
307,601,313,127,511,562,61,181
283,567,320,118,455,521,60,183
279,587,348,118,481,517,67,189
291,654,402,119,459,542,69,205
322,693,398,112,499,570,67,200
354,709,400,107,517,575,78,184
345,732,412,115,527,616,80,191
335,751,422,117,526,595,70,169
317,721,464,104,494,558,69,151
292,762,515,102,504,550,72,164
250,750,513,111,475,500,69,163
266,757,520,114,469,454,70,155
284,721,486,113,429,484,72,162
305,730,397,114,449,528,72,150
290,679,352,111,416,563,81,155
302,678,354,112,447,570,76,148
327,670,333,109,465,578,74,147
358,690,351,113,467,557,76,143
347,685,342,110,444,523,74,151
354,679,313,109,515,563,71,142
329,674,306,94,515,590,71,145
324,699,314,89,511,598,74,175
292,648,302,79,559,605,74,172
293,619,307,93,566,642,78,172
310,554,328,96,509,557,76,187
317,555,307,114,512,527,86,188
293,530,258,117,514,530,80,154
284,575,242,123,506,525,81,187
285,610,222,112,527,548,87,213
258,615,169,109,520,541,88,198
250,605,176,90,484,561,85,227
265,553,194,79,453,548,90,247
262,615,196,81,486,603,85,224
284,609,215,79,439,530,83,221
278,596,214,71,420,526,73,251
248,585,234,69,413,538,64,227
224,588,228,68,434,531,53,207
214,491,201,52,383,503,51,219
161,526,211,64,408,506,47,211
165,534,206,60,402,500,52,187
166,523,182,58,396,522,54,183
165,576,229,100,531,571,60,182
160,561,248,106,499,539,68,173
160,463,239,101,464,518,59,151
187,546,260,114,544,572,57,129
196,528,274,117,559,528,57,133
197,521,251,91,457,508,63,155
218,569,301,95,468,488,59,146
218,609,336,105,516,505,64,141
214,547,329,96,438,443,66,155
230,579,335,98,431,458,73,161
223,580,327,109,551,507,74,142
235,591,329,115,555,508,75,151
245,576,314,107,539,496,75,170
231,583,322,121,576,543,78,236
236,531,308,118,581,595,81,245
274,501,302,101,448,564,70,252
269,442,250,89,420,557,69,250
262,410,242,90,428,606,73,272
264,542,237,73,377,601,69,217
244,590,254,76,366,573,57,204
252,621,291,82,368,552,65,222
243,633,320,88,367,551,68,230
265,691,327,93,353,552,65,190
328,674,324,89,386,546,70,184
336,684,352,108,388,508,85,204
303,661,355,118,368,499,82,169
330,740,393,126,443,565,82,164
346,733,415,137,456,526,81,179
281,687,424,137,425,499,78,189
308,768,461,129,413,512,64,177
313,754,450,120,449,533,64,179
298,712,408,107,393,459,64,206
254,664,370,85,353,455,60,188
250,678,367,78,411,505,57,171
195,522,273,64,422,496,57,170
177,542,252,55,397,489,55,175
167,474,225,50,391,494,50,137
175,471,211,56,452,520,53,147
231,476,238,71,405,457,82,203
232,525,227,69,385,449,81,188
249,523,234,72,366,466,81,183
248,575,231,75,356,450,81,183
262,603,240,75,335,466,82,191
230,593,229,67,325,481,55,141
235,601,243,72,348,503,55,157
226,649,273,72,368,487,52,152
197,596,288,70,371,534,52,161
193,569,280,65,349,493,55,156
198,502,256,67,369,498,54,149
203,486,298,61,368,531,54,133
202,394,257,61,372,533,56,135
207,404,256,57,361,508,58,132
194,417,249,56,360,582,48,110
217,545,268,64,355,580,53,138
215,557,211,79,383,559,52,135
230,581,228,87,371,548,66,162
223,570,202,85,408,613,65,149
279,659,236,118,473,562,74,171
260,593,200,114,470,550,72,150
281,614,209,114,484,526,72,166
265,603,190,108,491,584,62,148
272,639,252,111,467,500,64,161
211,553,222,90,426,484,53,138
215,584,248,96,513,555,63,170
179,537,248,97,481,567,68,158
208,552,285,107,479,555,66,150
223,586,304,111,501,563,71,142
256,633,333,106,464,571,73,143
254,717,327,102,437,578,67,103
276,784,332,99,509,619,71,108
311,845,394,101,516,569,76,125
329,819,381,95,510,576,71,125
319,820,373,90,564,621,71,132
328,747,389,96,510,559,73,138
333,765,392,106,461,559,68,140
288,728,323,97,457,555,64,139
269,730,340,101,449,560,69,148
300,736,426,103,511,511,69,155
285,702,422,93,507,501,62,159
299,589,416,72,545,471,57,158
339,616,476,83,562,503,57,146
345,622,484,92,573,492,62,159
347,636,420,106,467,465,69,174
348,674,410,108,482,490,71,172
324,746,444,111,402,476,73,169
273,675,369,103,408,440,72,198
287,697,317,99,467,526,66,191
243,646,334,88,462,549,58,172
254,614,342,84,467,560,57,165
306,595,312,78,470,553,54,163
314,628,338,75,474,568,62,152
285,606,337,62,394,491,60,135
280,599,291,57,410,511,58,126
280,655,274,63,424,528,64,143
217,668,283,74,453,559,70,142
217,691,265,74,440,592,66,114
239,700,265,76,484,615,75,136
264,736,292,81,487,625,77,141
280,729,302,88,487,588,82,156
283,717,326,84,455,548,81,160
311,711,316,94,442,524,79,163
313,710,354,106,505,519,72,160
335,729,378,114,495,550,76,167
321,680,380,109,512,554,77,138
320,641,352,106,553,532,76,141
281,584,348,100,577,520,75,137
266,568,357,95,493,573,86,138
220,510,340,88,493,490,92,157
218,651,390,119,595,490,93,166
245,690,395,139,622,565,100,157
265,708,408,139,586,594,99,160
310,765,379,140,619,610,91,181
318,737,350,139,639,637,84,160
315,691,321,117,546,713,78,152
298,707,298,92,502,719,73,155
307,700,321,98,537,702,82,156
258,634,296,91,543,685,82,115
243,676,302,88,532,728,86,137
245,627,265,82,488,661,85,136
247,698,339,90,520,695,86,149
221,718,303,83,523,734,83,148
219,740,319,85,497,734,84,146
238,711,326,85,494,712,76,132
227,685,330,108,670,731,76,139
212,587,248,113,658,714,78,136
243,605,252,136,679,654,77,136
234,640,232,131,689,705,81,158
208,653,277,140,760,713,88,152
206,743,301,189,779,718,102,156
199,708,355,338,895,676,123,159
171,682,373,450,1163,799,143,166
215,619,403,460,1215,849,145,149
249,677,370,465,1269,901,142,149
251,626,368,475,1221,923,134,154
263,635,363,422,1211,981,119,147
254,598,361,327,1052,883,95,156
298,591,352,320,1022,788,96,156
315,612,373,326,983,706,101,176
355,628,363,286,983,677,101,168
369,635,328,241,918,573,97,170
372,690,295,246,883,585,105,163
321,679,286,245,852,565,103,161
302,614,281,228,786,584,103,147
308,590,259,225,763,577,101,159
301,567,268,216,819,554,95,147
301,586,271,161,743,651,82,134
321,636,267,150,730,637,80,163
332,656,239,177,852,593,89,162
282,673,273,199,995,559,98,148
286,708,262,191,961,600,98,151
282,723,282,187,971,586,101,176
270,703,258,188,997,595,98,157
237,685,262,157,919,619,92,152
241,649,233,122,769,613,80,145
228,671,224,129,706,626,83,146
231,622,227,174,798,572,89,124
212,612,254,181,758,562,92,121
207,601,238,181,701,540,87,140
255,578,227,180,656,571,88,152
246,565,216,169,692,632,85,144
255,563,182,116,539,646,74,151
298,650,153,113,604,686,70,167
330,646,148,122,578,682,69,173
301,673,168,126,630,671,69,174
301,660,186,134,595,629,68,175
298,664,215,126,565,598,68,180
253,608,205,127,578,580,63,157
213,601,235,132,629,584,61,138
219,597,232,125,564,598,62,122
272,673,242,130,580,547,77,126
286,687,220,142,634,556,77,106
281,669,224,138,568,532,78,106
280,663,195,122,544,534,79,92
281,662,209,120,567,527,86,115
224,538,180,116,542,526,74,111
207,540,206,104,531,508,70,134
210,501,214,103,521,485,76,138
217,530,223,104,492,453,82,166
196,521,198,110,563,460,75,149
208,549,226,120,628,477,86,154
192,514,198,128,645,498,86,135
217,571,206,130,656,484,89,153
199,526,197,130,711,518,79,137
212,589,220,135,719,490,83,143
189,558,198,120,699,474,73,139
251,599,237,121,730,463,84,174
240,572,220,117,721,479,77,159
242,573,225,120,711,457,80,155
221,479,199,98,647,459,70,154
227,516,223,92,620,466,69,162
173,546,191,96,611,514,62,127
165,564,193,96,682,535,70,141
173,593,185,87,647,543,83,191
175,598,182,103,679,529,88,197
174,632,172,121,691,588,95,205
155,574,184,133,666,514,100,209
158,530,187,140,667,471,95,212
148,513,188,140,678,476,83,172
162,524,190,135,638,473,82,185
164,445,155,125,673,428,76,170
175,397,129,98,625,437,69,169
173,400,126,97,601,463,74,200
173,440,151,117,667,472,85,197
176,471,140,113,663,553,83,177
256,487,201,124,596,517,91,255
254,493,197,127,624,563,90,253
256,641,244,131,633,636,92,229
254,618,234,118,595,667,83,227
289,629,280,140,599,643,97,282
225,649,250,130,609,649,88,222
231,662,254,122,610,659,87,248
257,582,231,132,587,603,94,272
256,589,223,131,552,582,93,271
217,580,198,104,524,565,84,217
210,551,187,104,535,589,93,220
213,578,240,112,522,554,91,185
184,571,249,88,476,553,74,130
196,644,258,87,510,674,79,145
175,664,231,91,572,723,73,145
187,689,233,87,558,733,62,127
179,679,188,78,555,773,70,175
162,657,138,79,556,773,71,171
158,580,164,97,534,650,73,168
159,513,164,99,479,600,69,162
170,518,201,105,525,572,82,174
165,498,205,139,515,536,75,129
177,482,267,186,614,528,95,154
169,479,252,297,859,542,97,142
202,499,265,322,919,535,107,145
268,558,267,328,956,578,117,141
273,614,277,331,1001,586,122,151
285,608,224,344,995,635,119,147
287,623,221,258,834,646,116,151
268,626,208,223,793,689,114,157
186,597,200,212,725,645,93,156
181,545,182,186,647,612,86,157
186,593,206,122,577,524,71,136
183,565,210,105,507,485,68,160
196,559,225,112,491,448,62,160
240,554,263,115,470,458,69,163
244,566,260,114,488,445,67,166
233,592,271,101,486,528,75,189
254,603,285,93,448,520,76,172
275,653,338,98,407,502,73,162
266,759,320,120,465,577,68,163
316,759,318,128,504,591,76,164
322,789,330,131,543,634,71,147
335,803,340,181,558,675,77,146
331,845,350,186,623,680,84,151
320,781,342,174,608,652,86,154
291,801,348,169,565,672,94,181
310,782,328,165,526,673,95,193
288,809,317,129,562,679,92,196
280,760,255,121,538,690,94,199
279,716,253,120,516,661,94,217
290,738,316,125,520,660,85,191
255,699,313,153,576,584,86,181
282,665,297,144,597,613,81,197
265,632,297,136,557,592,71,192
255,709,345,140,614,650,69,166
233,662,281,131,603,628,68,169
242,676,279,89,571,642,66,171
217,674,288,84,524,602,63,141
243,700,304,86,520,591,63,159
241,573,267,99,501,527,80,170
257,672,287,110,513,521,92,166
254,623,285,108,484,536,91,171
269,674,283,101,489,554,92,183
249,634,249,97,502,578,95,184
258,665,240,83,429,563,83,197
220,601,240,67,404,555,61,189
210,625,256,91,424,558,72,188
177,574,261,92,408,500,77,198
212,619,336,101,384,465,77,188
282,626,319,100,457,474,74,155
283,603,320,155,677,487,81,164
309,661,312,153,660,448,79,178
312,647,306,153,674,460,73,155
291,611,238,155,693,476,71,156
213,664,257,165,739,560,81,183
229,697,233,124,591,590,76,196
192,629,223,117,602,615,64,169
184,660,217,115,631,628,70,168
180,671,210,106,615,629,74,173
177,660,188,80,590,650,63,163
160,613,199,68,548,602,63,135
158,656,266,62,511,550,68,145
157,646,270,69,486,567,68,186
172,678,277,74,492,568,65,185
183,623,279,80,428,509,66,176
175,631,285,79,444,553,64,185
178,611,212,78,488,608,64,179
211,610,221,90,453,602,71,147
194,568,196,85,452,603,68,132
209,568,189,86,435,568,71,161
221,571,161,84,454,611,69,151
271,671,225,106,525,610,71,166
243,663,215,104,609,630,63,160
288,671,223,112,633,639,61,184
280,752,251,111,633,675,52,158
281,728,262,113,628,634,54,161
237,615,218,92,606,677,56,156
240,621,206,75,514,678,54,170
188,639,201,60,464,669,53,152
188,528,153,60,508,622,53,142
182,544,162,70,487,618,72,164
210,541,144,77,413,538,73,161
207,539,161,96,480,501,72,143
210,513,190,99,507,490,83,140
198,527,194,95,448,516,86,154
206,609,228,95,535,594,74,205
168,663,236,89,578,633,68,200
171,717,230,82,557,644,66,199
219,782,240,107,567,661,59,211
228,819,271,111,570,667,55,211
208,785,240,102,522,678,56,133
221,772,254,107,561,650,58,127
276,827,270,110,577,687,62,131
234,749,245,88,548,684,61,104
223,737,211,84,546,683,63,102
231,706,193,86,510,594,58,123
228,679,187,83,412,582,67,150
178,529,175,69,369,522,65,153
198,612,178,64,427,570,67,159
200,591,204,65,423,554,72,176
201,618,210,61,421,542,78,170
190,596,196,54,401,524,72,150
164,617,206,54,419,545,71,153
140,564,238,65,433,491,72,153
133,544,221,64,418,477,72,146
119,522,256,71,441,514,65,148
114,514,250,72,489,538,60,141
120,477,237,76,455,518,62,146
153,436,202,75,400,533,61,182
188,461,213,78,412,557,53,172
202,486,184,86,430,538,53,166
207,529,199,90,434,507,60,184
221,525,207,95,446,501,61,179
210,596,221,89,444,482,55,136
190,570,207,92,439,549,55,132
178,534,203,83,438,568,63,143
177,471,191,81,406,581,59,124
203,590,194,89,477,591,63,117
195,539,172,94,513,676,62,113
213,552,165,93,526,610,68,112
211,543,148,89,507,591,58,93
208,585,230,150,684,595,75,109
178,463,219,150,648,580,77,123
173,421,219,151,622,481,77,130
131,379,216,147,612,476,71,128
139,492,225,150,614,527,75,132
136,452,139,97,433,525,65,120
114,452,130,75,410,538,53,100
124,485,130,69,394,513,52,99
140,540,137,69,393,484,58,130
133,498,116,74,401,449,56,135
134,496,121,65,396,494,46,137
126,515,126,71,369,555,48,137
135,502,133,77,367,576,53,161
121,496,130,78,367,604,50,131
125,431,148,67,349,599,46,131
127,448,145,66,352,610,54,141
154,412,144,60,364,544,65,141
163,454,139,60,381,526,61,105
162,421,141,57,401,581,58,103
160,448,124,56,405,582,61,93
169,496,126,59,352,525,60,118
150,532,113,60,371,559,49,122
118,503,105,54,414,652,49,129
140,525,150,62,412,584,52,135
132,515,154,63,406,590,52,152
132,501,154,58,418,598,51,129
131,503,160,57,415,617,49,127
136,537,164,52,380,557,48,123
116,529,130,45,367,554,49,127
126,539,125,44,375,544,44,110
107,527,117,42,385,563,38,96
122,593,138,52,368,515,49,126
117,552,129,53,361,478,50,134
121,606,160,54,349,519,52,138
135,650,157,49,327,497,61,158
140,639,163,50,323,475,70,181
134,595,149,65,371,483,71,173
136,623,167,77,388,499,72,166
164,547,128,79,383,449,69,159
165,514,139,83,412,478,66,139
226,570,159,87,420,506,60,136
225,518,163,71,420,524,54,118
226,509,152,59,421,561,61,129
207,524,155,53,431,593,63,143
197,519,156,56,417,592,59,176
145,542,143,67,517,661,61,167
138,589,166,77,539,689,66,171
134,577,164,79,551,693,66,174
137,558,161,88,550,677,72,176
152,542,188,90,622,705,79,147
128,469,183,80,535,656,79,141
156,465,198,74,548,697,75,143
155,494,217,75,541,666,68,134
199,624,231,87,643,786,58,121
289,633,226,83,604,767,52,116
308,700,258,89,629,782,51,138
365,751,284,99,638,751,51,143
376,773,299,101,627,769,52,146
413,712,318,107,615,671,67,173
397,724,379,130,601,695,73,191
420,761,391,171,755,668,87,187
383,759,382,204,772,688,93,202
394,729,376,223,874,742,102,199
368,751,380,242,997,905,102,202
347,744,348,258,1119,1118,105,233
356,715,335,254,1141,1263,95,231
352,726,323,249,1171,1226,99,233
347,798,317,240,1138,1200,106,251
351,776,337,227,1024,1082,102,234
350,796,297,216,966,881,101,196
317,821,285,192,837,666,107,204
306,754,268,166,766,653,103,187
296,695,288,160,792,647,87,157
291,698,257,136,754,672,81,152
266,672,257,103,656,610,79,142
246,553,249,93,619,590,70,122
248,543,263,98,675,589,66,138
241,574,233,106,658,600,75,157
175,565,203,108,644,587,78,158
192,579,203,104,614,557,75,155
186,590,197,114,643,565,80,153
220,634,199,130,624,604,94,147
222,563,189,124,625,615,98,131
229,527,216,124,647,570,96,136
222,522,219,126,648,571,94,145
220,496,213,121,649,546,89,138
175,487,199,115,682,527,80,123
181,556,243,114,627,514,68,120
191,587,220,113,615,568,89,122
191,563,229,114,632,594,90,125
192,592,230,121,663,596,97,135
209,633,220,105,563,604,89,165
204,597,166,93,560,601,86,167
209,624,166,98,546,572,66,161
183,634,137,91,547,587,61,146
281,709,172,95,557,584,81,167
274,654,172,97,599,579,89,131
269,634,174,96,560,507,92,131
262,600,162,92,575,486,91,126
280,651,256,111,582,438,99,140
245,546,233,98,468,422,74,124
238,533,240,86,382,382,61,134
240,579,250,95,453,411,66,133
249,630,256,105,467,418,71,143
266,676,225,113,522,530,74,142
250,675,221,118,550,546,81,133
246,690,213,118,619,663,83,125
242,671,203,120,690,672,78,126
237,625,212,122,705,671,76,157
203,548,173,109,738,635,63,152
150,526,170,103,745,622,56,148
149,539,164,112,780,582,52,147
167,574,226,108,678,561,57,154
152,611,228,97,691,604,66,116
146,570,208,91,607,565,66,118
165,602,210,90,585,596,65,114
199,594,234,100,512,534,88,203
206,544,178,103,540,574,86,200
217,509,160,104,481,548,77,209
219,532,166,102,474,544,80,207
208,502,186,107,481,512,84,217
184,561,153,85,447,510,69,149
159,569,145,78,468,510,67,143
163,527,144,76,443,464,67,132
164,509,173,77,449,441,61,128
181,514,150,66,454,471,59,143
176,425,170,72,423,443,54,153
172,406,171,73,389,416,58,153
184,435,178,73,419,460,62,157
211,465,198,67,419,513,71,183
204,476,201,107,545,502,71,164
268,562,227,121,570,517,71,152
343,581,250,133,620,495,74,157
334,568,253,207,744,539,80,175
328,556,231,229,895,544,79,169
368,560,253,223,885,562,77,177
345,471,224,226,928,562,76,174
290,567,207,227,986,653,77,189
313,626,213,174,980,610,71,164
309,650,205,160,866,590,68,142
276,707,179,155,811,568,73,147
259,713,187,143,774,580,75,165
250,695,202,130,672,528,70,163
237,697,201,128,591,544,70,161
236,650,199,117,563,527,77,175
238,577,217,109,549,507,77,173
251,638,226,105,579,528,72,147
258,620,210,113,626,565,76,123
254,567,198,110,611,562,90,167
296,597,217,106,614,575,84,156
275,628,205,115,622,584,78,148
274,536,179,115,569,573,80,174
288,520,171,110,522,547,88,197
295,532,172,103,525,589,73,171
261,532,171,133,597,606,73,185
276,521,170,152,692,609,78,180
272,545,185,161,754,603,80,162
274,605,202,162,744,569,74,157
274,622,215,157,721,552,77,148
270,612,194,136,659,543,76,123
287,605,196,110,584,532,74,123
277,622,180,95,499,528,74,134
260,487,190,95,512,511,66,115
235,434,174,118,551,440,60,111
283,477,180,116,534,433,72,146
266,462,164,107,510,478,68,143
285,474,237,122,535,465,73,151
282,550,220,120,526,491,78,141
298,555,221,100,465,502,83,147
275,484,207,91,444,478,74,125
310,531,222,121,484,519,75,141
304,509,163,106,443,518,76,146
292,439,156,108,445,509,73,145
278,449,177,107,437,528,69,153
263,481,180,113,470,521,74,153
225,441,206,101,438,434,79,141
209,395,192,112,523,420,72,111
244,387,198,115,496,392,71,118
251,382,191,113,492,376,72,103
269,356,189,107,481,383,70,94
251,405,167,92,489,404,70,100
261,487,170,102,502,428,68,95
256,522,157,96,546,489,75,106
252,557,152,98,562,484,74,122
234,564,153,99,566,475,69,122
256,600,150,96,583,516,64,123
247,531,139,70,491,488,62,125
219,539,157,77,445,481,53,145
214,502,140,74,439,483,47,127
196,536,175,88,462,503,51,139
162,441,159,89,385,448,51,135
163,443,171,98,381,442,52,171
222,502,158,89,420,454,50,158
244,523,184,86,427,460,55,172
268,499,148,77,412,457,51,163
275,508,143,84,477,462,58,178
283,523,146,75,490,464,58,162
242,446,139,71,469,457,59,150
253,407,108,78,485,464,58,138
231,454,134,73,466,497,68,147
234,438,161,62,415,526,70,142
214,443,158,78,475,569,72,125
207,448,160,85,483,543,73,124
188,530,159,83,486,555,86,139
182,476,141,78,485,511,79,133
163,479,118,81,536,524,73,146
162,489,104,66,487,504,72,138
157,489,129,64,455,482,71,139
139,478,145,62,499,503,61,139
120,497,140,67,505,542,63,135
121,545,132,65,439,521,60,122
129,519,153,68,423,498,61,136
140,586,143,89,522,558,61,145
127,530,132,90,484,565,57,133
123,523,135,87,484,583,58,164
116,472,134,85,488,571,57,152
160,497,133,85,504,583,59,148
160,412,121,58,424,541,56,141
168,449,153,68,389,493,60,162
175,503,163,70,424,550,58,136
180,511,170,71,415,535,57,133
142,509,153,71,423,546,52,137
144,484,152,69,376,526,53,141
132,505,112,54,396,552,53,146
134,428,109,52,345,429,60,159
131,435,98,54,357,437,61,163
129,437,95,45,367,442,61,163
139,471,107,49,369,448,69,170
136,421,134,56,361,463,64,147
126,454,135,63,370,487,58,126
127,446,132,61,363,490,57,121
129,436,142,60,313,484,58,129
129,439,135,58,334,546,52,118
125,432,111,57,302,498,51,129
128,417,99,54,319,486,48,130
137,421,109,49,329,504,48,136
148,413,110,52,328,489,45,132
132,413,110,55,340,456,42,138
130,395,106,62,356,462,43,120
192,391,151,68,368,466,59,140
185,359,145,68,362,445,62,133
193,486,261,96,407,488,63,131
193,489,277,104,378,461,64,118
193,498,281,99,383,461,63,128
136,491,261,94,349,474,49,105
166,557,335,107,404,523,63,108
140,503,251,81,391,559,59,99
143,501,243,72,411,562,61,114
143,486,240,69,389,559,59,102
154,516,268,76,397,553,65,135
130,475,172,57,386,557,48,131
139,452,182,59,360,486,66,160
132,463,176,54,370,497,65,156
131,479,172,55,369,499,69,157
132,503,172,55,372,545,70,145
121,482,170,56,320,502,71,145
105,457,157,52,302,491,55,106
116,421,155,54,284,473,51,113
128,449,174,62,338,479,54,112
111,373,122,50,311,396,49,96
115,435,119,48,325,418,50,105
119,459,131,52,363,449,53,107
121,474,129,51,407,551,60,92
121,472,118,40,393,597,64,123
116,512,125,55,434,640,66,130
123,468,126,61,466,637,72,130
146,463,119,62,450,628,77,132
138,461,108,64,447,599,74,135
137,444,94,64,424,557,71,132
154,468,97,59,413,564,69,127
154,477,104,60,385,538,65,141
134,456,94,59,444,542,56,144
136,518,104,55,452,544,56,139
149,560,133,57,486,569,59,137
129,499,123,53,469,527,58,131
118,515,118,46,502,573,63,112
116,543,120,45,456,579,64,105
119,462,112,49,412,512,61,112
86,440,76,45,393,557,54,92
92,509,76,44,411,553,62,96
95,465,78,44,340,507,54,95
92,439,82,50,365,551,60,107
76,452,102,48,371,575,60,104
81,439,117,52,382,534,64,100
70,378,116,47,390,544,52,94
92,406,146,53,401,548,59,129
91,376,148,48,361,486,54,141
98,384,135,47,365,497,65,139
120,415,170,48,327,462,63,148
133,422,174,49,302,470,66,158
132,453,197,55,317,528,64,136
135,481,198,58,352,548,64,110
139,521,215,74,371,517,58,117
120,472,189,73,372,505,55,103
121,458,192,74,382,525,58,102
105,422,145,65,372,477,57,116
104,433,144,64,380,533,58,119
94,364,116,43,347,531,53,108
110,375,125,64,432,618,59,113
97,404,117,63,430,619,53,101
109,425,122,65,434,627,52,100
104,413,117,63,416,574,48,104
111,456,126,65,420,590,55,115
94,448,105,43,324,516,48,109
94,461,101,49,336,533,64,141
78,436,86,51,335,524,63,122
100,516,144,58,360,518,66,132
91,495,140,57,379,545,63,126
90,491,136,57,375,535,70,165
88,460,135,54,364,487,57,141
112,475,157,60,386,561,60,145
99,440,107,53,380,618,56,137
111,493,108,60,443,695,58,154
108,495,107,57,446,698,50,114
114,544,114,56,482,758,61,121
95,532,81,45,456,694,58,119
95,498,84,49,474,687,58,115
106,490,91,42,415,618,55,96
110,534,91,42,448,670,58,94
116,507,94,40,425,640,53,83
113,520,91,41,442,675,50,75
113,570,106,41,462,701,55,74
107,613,113,46,471,707,57,120
105,599,119,70,533,691,56,120
97,590,117,85,536,678,51,125
121,645,167,113,595,693,53,133
208,580,163,141,596,614,62,141
254,507,159,176,661,568,62,102
269,527,181,190,760,597,66,147
359,573,184,186,782,640,75,161
361,531,156,176,770,606,84,157
325,563,151,159,774,616,79,171
294,629,146,123,787,672,79,174
288,629,131,90,666,647,77,166
203,621,131,88,674,581,67,155
206,624,129,86,647,553,57,158
197,605,137,77,615,536,50,140
217,524,140,75,553,481,53,152
236,499,139,95,527,443,59,143
205,478,142,104,563,463,59,135
218,472,129,102,561,519,62,164
244,497,132,104,548,551,70,169
234,506,134,119,545,565,88,190
211,494,125,104,546,571,81,175
215,460,113,95,442,554,84,182
196,484,135,89,420,533,85,164
167,468,156,107,464,567,79,164
142,471,166,89,427,523,56,122
136,460,168,86,410,511,62,138
134,515,179,85,460,582,69,134
126,500,181,92,478,583,63,119
118,490,164,67,448,531,63,130
122,478,149,64,440,531,61,140
129,504,161,63,428,533,58,126
133,491,150,65,426,532,44,125
125,451,142,54,407,515,52,165
150,479,126,53,394,505,49,165
151,456,122,50,366,509,48,165
160,473,120,63,374,520,45,166
156,439,120,61,348,440,44,163
155,442,111,60,333,454,42,145
132,468,139,61,307,447,43,125
127,485,166,64,310,454,44,111
107,472,158,49,320,445,47,112
96,451,157,50,277,436,51,117
95,440,152,52,288,428,49,101
88,380,144,52,315,440,47,98
96,401,145,58,330,464,50,119
91,356,134,55,308,444,49,119
90,358,134,57,293,437,49,122
89,418,151,54,329,454,45,113
96,436,140,51,351,518,52,130
98,396,125,57,336,502,53,114
95,428,142,64,377,537,55,119
99,461,166,65,386,578,52,114
103,435,166,67,391,595,54,120
102,418,164,68,354,541,60,104
90,421,163,59,373,553,61,113
103,451,165,81,414,559,63,107
117,436,153,92,427,507,66,111
106,422,140,93,440,467,66,106
106,443,139,93,477,541,62,109
108,459,129,91,495,547,60,95
100,424,108,70,429,532,57,91
106,403,86,51,427,529,54,103
126,407,89,59,394,544,60,159
130,392,105,62,371,462,54,161
136,419,106,68,400,468,56,175
142,401,112,72,427,436,59,189
188,436,115,110,573,453,64,177
257,449,124,146,704,418,66,129
360,454,113,151,708,462,70,136
375,399,112,149,704,455,68,127
383,420,119,149,738,474,65,121
363,519,127,140,668,560,65,142
316,538,133,104,579,611,59,148
196,527,128,95,583,573,54,153
206,572,156,97,605,582,61,153
203,624,156,99,583,656,64,162
236,542,150,109,614,629,65,153
237,496,148,103,593,605,66,152
237,604,176,110,591,678,67,138
203,573,151,107,533,644,69,153
200,561,144,112,548,645,69,142
170,654,152,77,494,630,65,145
164,693,140,74,494,656,62,143
172,683,153,83,546,642,71,152
173,684,159,84,548,643,60,127
170,683,165,82,516,599,63,145
146,695,174,98,625,644,63,139
157,682,178,102,610,687,66,142
134,595,144,85,556,658,55,128
130,581,136,83,562,655,56,129
113,589,126,74,576,632,47,110
107,476,99,66,501,612,47,109
87,445,93,61,488,511,44,104
84,488,107,59,504,562,42,115
81,538,107,61,526,660,55,166
89,511,108,63,489,697,60,161
90,494,111,50,440,674,58,165
91,501,111,57,438,680,61,169
97,508,86,63,418,646,63,159
113,480,92,63,365,568,60,140
132,468,94,61,379,511,58,140
135,498,87,59,393,526,60,129
144,488,98,53,403,527,66,152
141,445,99,50,398,533,65,154
144,444,106,48,401,517,56,125
154,419,111,43,378,507,55,114
153,375,115,48,331,461,67,146
146,389,103,48,324,493,58,128
147,375,102,49,391,472,58,134
134,377,87,52,396,495,60,137
138,372,74,55,414,529,64,150
140,372,79,58,431,571,55,124
138,370,81,56,426,546,56,125
134,423,82,55,392,570,57,120
137,482,89,53,439,627,57,130
98,502,91,52,470,630,55,138
89,501,81,43,454,606,53,139
95,509,82,43,451,628,53,129
106,500,79,45,427,603,55,143
99,435,77,42,393,550,53,132
98,435,77,48,332,513,54,113
99,437,85,48,322,533,50,110
104,445,95,57,370,581,61,112
95,429,113,59,373,563,58,114
93,414,106,61,385,532,63,133
86,409,116,57,400,546,61,134
133,409,120,59,393,504,63,157
142,410,115,53,391,388,51,157
196,374,113,74,405,386,51,152
229,456,120,112,561,424,64,158
266,454,118,117,609,451,64,158
361,548,115,118,622,498,66,143
361,577,124,122,600,522,72,150
339,635,110,108,611,605,70,147
340,627,108,79,561,671,57,123
321,608,107,78,526,660,58,120
187,514,98,77,541,628,55,110
191,494,81,69,565,642,48,95
202,463,85,68,561,595,49,89
175,435,90,75,512,593,50,88
162,468,78,80,520,617,50,91
160,506,90,83,529,633,48,99
153,498,99,99,548,659,58,115
124,505,97,103,544,697,57,107
110,502,90,91,507,659,56,103
130,529,101,86,521,647,67,101
128,512,100,83,498,655,71,98
109,480,89,59,457,625,62,75
123,465,91,55,472,622,65,80
119,462,96,51,468,610,62,103
111,402,91,50,415,599,55,108
111,389,95,57,401,576,52,104
113,410,93,57,388,571,51,104
105,401,90,55,354,504,50,117
128,476,84,55,338,493,53,131
111,513,79,55,427,542,44,126
124,564,80,53,452,565,45,125
147,608,82,54,472,673,54,130
149,587,82,54,457,670,51,120
144,510,81,54,482,652,55,85
150,506,81,56,430,635,58,102
141,443,63,55,411,647,59,105
130,394,78,55,377,519,52,124
123,416,80,56,397,512,50,118
111,405,88,66,357,501,51,132
99,358,90,63,358,486,46,120
132,418,89,60,390,511,46,121
121,377,74,59,377,500,46,93
127,392,88,62,376,483,49,95
138,405,83,53,380,497,47,83
142,461,79,55,347,504,51,94
154,424,82,57,309,447,54,105
195,445,79,59,321,456,54,105
225,419,66,55,294,476,53,111
222,452,64,53,336,550,51,122
232,441,63,46,361,550,54,117
210,424,61,45,343,551,52,102
177,432,73,45,349,544,50,100
143,432,68,41,348,552,48,92
136,388,65,43,301,454,52,71
128,416,62,48,383,476,51,71
119,430,62,50,388,472,48,70
114,428,52,59,445,515,57,75
101,434,52,64,458,492,63,73
102,450,61,61,459,497,59,69
126,403,59,59,362,416,58,68
134,398,62,57,356,401,58,72
141,367,64,47,286,404,49,73
146,364,63,43,306,472,40,84
148,361,53,42,317,486,46,87
117,326,58,39,314,485,46,87
123,314,57,39,332,499,48,93
109,362,51,37,320,496,47,90
118,357,53,37,320,456,48,82
118,346,50,38,301,436,44,80
136,356,47,37,313,457,37,86
129,353,44,38,295,467,37,78
128,354,49,40,399,526,39,77
112,351,53,48,368,514,42,88
107,364,54,47,387,558,40,92
82,390,57,51,440,610,46,88
75,425,57,50,466,668,45,96
81,445,52,50,421,662,44,99
84,463,47,43,457,685,45,99
83,476,51,48,465,665,53,106
84,461,54,45,413,623,49,98
86,463,60,46,390,542,49,92
82,447,62,46,352,461,52,106
77,423,63,43,330,439,55,100
78,425,82,41,309,441,45,95
82,430,83,40,314,468,48,105
111,398,85,38,330,499,60,110
143,366,85,31,316,480,58,98
157,383,98,36,300,504,59,95
171,367,102,42,312,516,64,101
198,386,108,59,338,486,68,130
212,413,129,76,339,485,63,138
193,413,130,88,354,487,66,143
191,406,121,96,365,463,66,150
233,470,110,94,365,471,68,160
233,430,107,86,386,485,63,136
223,461,111,77,415,537,59,129
224,460,122,71,430,580,58,130
232,465,121,61,422,587,56,123
183,408,122,61,410,584,51,103
153,442,127,60,387,587,53,104
131,370,99,54,359,527,52,101
131,412,87,46,401,562,52,104
101,412,94,41,392,546,44,97
108,392,99,40,390,537,47,104
104,376,85,38,383,572,49,96
110,426,82,41,355,547,52,95
114,373,85,45,278,476,52,81
119,347,90,46,267,458,54,97
126,354,79,46,289,486,59,109
125,388,81,49,299,525,55,111
118,334,91,52,319,535,56,112
105,339,82,45,336,544,58,118
99,348,67,46,340,550,67,115
78,410,73,46,358,569,60,88
78,367,72,43,335,492,58,86
84,408,73,44,331,502,56,82
83,408,76,44,312,507,51,68
87,425,79,44,323,508,40,68
75,395,78,41,309,509,40,75
78,402,85,45,311,491,43,76
69,358,75,39,284,473,42,84
70,393,79,41,275,458,48,104
66,399,79,39,270,473,46,97
73,405,91,49,226,411,54,108
66,392,80,45,230,404,56,112
83,423,82,43,241,437,58,118
99,416,102,49,298,494,59,105
110,418,98,58,322,490,62,107
120,382,83,50,341,484,57,100
153,371,87,49,326,486,59,108
160,360,91,52,350,502,56,99
151,390,69,49,374,528,51,109
151,399,74,39,353,532,46,107
145,419,80,50,357,528,56,113
129,425,93,64,373,525,53,105
116,442,91,75,393,558,54,106
135,432,92,74,370,494,58,98
130,417,100,74,378,519,68,130
144,398,107,68,380,532,60,131
140,417,96,57,385,548,61,134
152,455,107,51,402,513,63,145
160,434,115,60,415,512,65,150
164,456,123,67,398,478,56,125
164,461,126,69,387,481,57,115
166,486,139,71,394,512,60,124
153,444,131,66,357,497,64,110
127,417,123,64,340,498,64,114
122,422,109,66,372,531,64,115
102,444,101,68,394,558,63,120
80,413,81,62,365,534,58,103
81,407,83,60,358,530,58,108
109,431,102,57,327,517,49,96
109,437,100,50,368,538,51,93
110,435,99,43,341,531,50,98
110,435,123,52,370,517,52,117
127,443,129,55,357,538,45,111
109,535,115,50,457,609,49,114
109,562,126,54,421,628,49,122
108,561,122,55,430,621,53,110
113,566,104,54,463,659,55,103
95,541,92,52,465,627,58,99
92,515,91,53,423,580,57,97
109,458,72,47,446,531,53,82
113,569,72,51,526,605,57,92
133,583,86,54,506,606,53,86
136,661,101,54,568,676,53,95
147,689,119,59,591,704,58,111
158,694,128,84,585,732,63,115
168,634,142,98,630,757,64,117
190,642,148,97,629,732,78,186
226,574,157,131,647,675,83,191
241,517,167,141,677,690,82,188
258,539,171,142,744,682,83,211
280,502,198,151,752,592,88,212
315,525,237,170,799,632,78,158
329,539,256,157,852,665,80,169
329,516,251,152,827,696,87,173
355,508,333,139,753,820,89,158
336,523,331,128,678,808,85,155
290,525,340,111,668,895,87,183
258,532,336,109,582,888,81,174
259,601,355,111,606,827,84,187
214,593,299,119,766,696,84,194
220,635,351,113,758,679,83,197
215,633,372,112,756,500,82,173
202,697,391,106,846,514,88,199
185,633,376,104,813,494,78,185
161,620,389,105,729,452,82,171
178,646,359,111,867,605,83,180
192,642,322,103,901,652,90,199
211,575,363,114,796,628,86,176
236,613,411,121,829,632,97,179
251,639,408,123,806,647,89,183
241,584,394,116,681,545,88,173
247,600,424,118,614,514,81,167
250,637,412,106,670,532,77,156
239,678,395,102,681,583,77,152
244,697,415,88,667,624,89,171
248,719,434,84,637,606,92,168
244,779,394,81,634,596,90,149
254,768,349,95,587,563,99,152
265,721,325,110,545,551,112,175
254,751,329,124,585,549,114,156
259,721,350,125,580,599,114,168
262,680,369,129,609,618,113,171
239,636,372,113,581,615,104,170
206,613,364,90,545,563,92,179
205,518,316,71,501,526,82,168
192,617,248,73,650,659,80,158
179,640,205,60,681,727,79,151
175,707,181,62,731,779,84,155
180,740,189,60,764,832,77,143
167,785,198,59,766,851,71,149
179,697,202,56,631,715,76,144
169,599,196,56,521,619,80,158
196,573,218,77,470,567,80,175
194,546,215,86,424,499,74,155
195,491,199,87,393,476,76,166
213,534,193,85,402,466,69,172
216,560,214,87,442,510,63,157
191,516,187,76,456,564,59,135
199,525,189,65,468,587,62,136
207,533,188,61,481,548,70,137
169,523,202,62,482,552,65,132
184,537,187,61,475,531,64,138
190,536,196,49,430,472,67,138
182,511,217,47,369,420,62,137
190,480,217,48,345,408,54,120
202,461,209,52,337,391,53,121
189,497,233,56,302,353,56,136
185,500,253,57,289,334,56,136
215,520,226,59,320,380,61,140
196,573,227,58,351,430,68,136
190,537,241,57,370,434,69,136
186,441,214,54,383,436,68,119
202,490,229,56,399,442,66,121
178,463,238,54,373,421,63,117
176,404,240,54,337,382,55,145
164,406,238,54,293,384,61,145
183,413,251,50,264,369,61,141
159,357,227,47,266,360,67,164
140,330,222,47,285,347,64,165
143,345,217,47,289,341,63,146
145,356,196,46,312,341,57,146
133,381,217,51,322,388,60,155
144,385,235,61,306,404,51,124
154,407,244,74,327,414,52,120
164,398,244,83,309,414,65,145
185,413,257,88,311,412,68,147
179,410,244,89,292,372,64,141
199,453,253,96,313,361,64,143
199,450,243,86,280,348,70,137
201,479,309,87,295,362,60,111
188,456,297,83,277,354,60,131
200,453,283,81,291,364,62,128
205,370,279,66,264,364,65,130
196,353,276,65,362,401,59,128
221,347,209,54,363,422,61,145
272,404,235,66,432,445,71,150
308,423,237,91,556,450,75,161
320,453,239,271,754,494,88,157
386,487,284,365,834,511,111,194
460,544,312,401,932,500,116,197
549,566,307,410,958,475,112,189
559,551,331,420,929,457,110,183
562,546,305,344,797,388,98,199
543,533,297,249,723,347,84,179
488,537,294,197,616,340,82,170
379,543,308,184,577,354,83,173
386,527,286,157,548,385,85,193
379,545,293,138,527,394,88,180
369,531,258,142,542,390,78,167
349,486,247,143,550,391,74,191
335,450,216,153,539,375,86,196
297,497,207,157,532,340,81,174
289,495,227,155,534,360,83,170
269,512,229,137,447,330,86,184
255,548,224,133,442,338,86,154
254,533,216,107,408,383,72,133
228,535,220,94,412,396,73,133
255,544,203,96,408,420,68,134
264,565,261,99,419,463,72,117
273,516,237,80,378,445,69,115
257,531,270,72,381,436,69,135
272,516,262,67,351,463,69,133
226,482,248,68,356,420,69,128
276,436,201,71,366,397,62,130
285,408,198,70,369,400,57,120
290,355,193,76,347,371,58,120
280,396,203,73,372,458,61,139
298,415,205,59,350,475,62,151
254,450,199,59,327,469,58,146
260,545,261,67,360,495,60,144
267,570,237,62,357,537,54,131
254,520,240,90,402,449,56,137
254,528,247,98,488,535,57,127
247,513,237,98,493,563,58,125
249,421,170,93,463,564,56,128
231,394,158,90,476,551,55,118
241,419,155,69,421,564,62,127
217,384,143,61,319,487,59,125
207,386,142,56,331,473,58,124
216,413,145,58,363,451,72,150
214,430,146,57,354,453,70,152
211,444,154,57,375,484,62,129
209,436,143,55,396,481,65,136
223,467,161,58,392,486,66,145
236,458,160,55,364,490,49,171
250,494,197,63,360,477,66,203
245,547,192,58,343,433,67,211
253,597,218,74,322,440,69,213
301,583,230,76,319,445,69,219
263,587,256,82,333,499,75,199
270,562,249,90,371,523,64,196
295,510,250,107,403,569,63,188
312,496,243,122,421,611,63,190
285,534,242,134,441,627,64,200
317,512,238,133,436,591,64,194
322,549,247,127,403,590,63,168
319,560,268,116,348,551,62,170
301,549,302,91,319,497,57,159
299,541,293,71,279,460,50,128
271,539,274,67,269,455,47,121
247,511,276,68,288,428,45,129
215,489,255,60,297,440,45,117
216,484,210,68,303,433,49,127
175,448,213,64,290,440,52,142
206,474,223,65,322,467,58,146
199,485,202,61,283,480,61,137
252,502,221,70,306,495,64,138
241,568,263,65,325,545,64,128
254,570,258,71,346,560,70,154
310,561,248,77,336,549,62,142
313,546,258,100,392,546,60,138
306,537,258,99,385,522,64,165
342,487,221,98,365,487,65,173
377,496,248,107,400,483,62,148
333,496,252,110,395,478,68,148
383,501,239,103,378,470,76,158
404,514,225,146,507,493,78,175
425,542,230,234,612,518,97,185
474,566,216,310,672,525,109,189
474,616,263,371,806,537,118,217
458,629,325,379,833,545,115,221
476,700,358,367,759,528,111,196
476,668,378,322,692,489,99,195
391,647,376,257,716,472,94,198
388,612,351,195,661,498,87,180
371,600,295,180,612,481,86,169
291,471,247,188,665,474,91,162
253,495,243,185,665,477,94,170
308,514,249,173,574,475,83,159
358,532,258,132,466,451,72,148
356,511,256,142,528,486,75,149
361,538,255,128,466,502,63,144
364,493,214,124,468,527,59,115
330,491,217,118,454,518,63,107
303,486,211,116,468,490,66,116
325,542,238,102,444,489,72,128
328,565,251,99,446,494,80,127
310,579,247,97,424,496,75,131
327,537,224,96,436,528,71,136
292,542,212,89,422,536,70,125
260,492,180,85,416,541,67,119
275,508,192,95,429,553,71,146
278,498,191,104,433,543,73,148
321,533,246,109,418,540,79,173
311,553,257,105,402,560,83,178
309,556,276,121,397,538,80,173
307,523,304,114,391,506,74,168
332,520,309,106,406,523,72,173
359,524,292,105,385,499,73,148
363,494,322,105,403,484,72,150
369,488,314,79,426,499,75,176
358,498,272,78,437,503,72,168
351,492,272,78,435,477,73,158
282,503,261,77,465,501,68,157
277,485,198,74,451,499,63,143
263,484,192,80,420,494,59,123
249,429,189,76,423,503,57,114
222,478,194,76,407,499,57,130
175,424,167,69,373,463,61,135
204,425,189,69,387,459,66,140
211,401,180,57,365,447,68,135
221,407,181,55,338,421,68,142
218,379,176,57,358,430,69,128
209,377,173,56,365,440,62,119
187,388,192,70,387,443,59,139
188,421,186,75,394,455,52,132
206,425,181,74,385,476,59,136
237,424,204,72,366,472,59,162
249,435,240,72,372,476,63,175
261,411,218,66,329,471,64,160
282,416,222,62,337,451,72,170
282,432,218,61,332,435,63,160
254,423,198,75,366,418,67,158
282,441,166,78,367,410,66,166
264,454,161,73,378,396,63,162
252,456,165,74,355,385,62,164
261,496,195,78,393,456,64,166
264,511,215,66,357,489,63,142
230,517,231,69,388,528,60,121
233,539,282,81,380,561,61,121
241,613,288,88,419,598,59,109
227,575,314,90,385,547,59,114
217,567,310,92,422,528,51,127
276,598,334,96,396,514,67,186
308,566,309,119,419,517,76,194
287,475,308,112,401,506,74,197
283,563,320,123,422,509,81,204
286,572,343,130,457,540,83,192
235,531,312,130,443,521,76,141
231,574,303,104,451,488,68,135
256,622,372,125,504,490,71,136
254,546,335,117,485,484,62,119
252,552,312,113,438,435,74,137
264,610,318,105,438,433,71,155
268,614,341,104,405,422,72,157
338,599,260,82,345,384,67,170
357,717,277,91,432,405,80,172
384,785,309,99,459,414,69,161
377,774,323,111,490,409,69,138
352,782,330,118,512,446,67,139
275,764,348,118,523,450,69,117
264,660,344,113,472,433,58,147
241,706,340,107,567,646,61,156
230,663,336,99,603,772,58,152
227,629,291,86,598,788,57,154
233,666,293,96,641,814,62,175
240,660,276,93,645,807,65,169
217,619,242,94,684,740,64,163
224,670,212,92,686,681,69,168
223,712,222,103,711,670,71,166
209,735,193,97,646,659,67,155
177,769,227,94,658,675,66,137
164,697,211,86,527,659,63,134
176,688,225,84,476,616,63,165
192,634,240,76,430,593,62,167
189,559,244,73,446,581,61,153
197,604,253,73,428,669,63,148
233,585,259,74,399,596,61,163
221,556,272,79,406,578,62,136
206,594,263,80,450,580,63,130
202,632,257,79,442,574,63,128
201,550,219,74,417,481,58,137
177,572,245,72,441,503,62,142
183,564,220,71,461,516,62,149
195,642,274,73,413,572,69,164
194,608,276,70,449,613,67,163
191,604,280,79,453,604,67,165
196,646,266,79,427,618,74,165
205,693,274,77,412,661,75,183
205,577,220,87,502,641,68,171
206,581,226,105,516,619,69,176
199,583,251,102,546,616,69,169
182,526,246,101,562,643,56,155
170,454,242,101,544,586,48,135
152,509,237,88,487,580,45,127
166,516,226,72,465,583,55,133
188,528,213,68,422,591,52,136
205,496,251,77,401,516,54,148
211,604,283,90,453,636,57,132
211,592,277,90,444,657,61,142
230,626,306,86,460,675,61,150
221,670,325,93,506,701,66,152
217,665,292,85,516,734,66,142
193,541,258,69,452,614,62,140
189,560,253,65,485,666,58,133
153,565,231,62,449,661,60,111
