192,836,794,542,189,83,92,70
198,848,800,546,201,88,102,80
184,733,766,502,197,98,97,79
206,831,746,525,206,101,110,80
221,826,798,642,232,107,112,86
221,826,790,637,234,112,115,89
196,831,770,635,227,112,116,77
215,910,832,673,238,110,124,83
210,901,890,682,253,120,122,97
251,916,906,635,264,139,135,120
254,929,922,619,269,150,143,120
267,908,987,675,298,162,159,130
319,987,1047,748,359,192,192,154
319,992,980,694,343,184,191,148
294,1006,915,672,335,178,197,146
295,1049,954,704,340,178,191,154
284,986,917,683,319,167,172,151
220,883,818,677,262,136,145,129
227,857,891,738,279,136,150,130
215,819,891,729,270,130,128,115
201,680,791,697,254,117,125,101
201,708,760,662,251,120,130,97
192,684,743,560,227,113,110,88
178,635,653,532,204,116,100,90
155,557,657,487,179,107,95,78
157,568,705,484,173,104,96,76
160,585,730,491,159,94,92,76
152,513,710,485,156,91,91,76
127,568,730,421,135,82,83,61
136,618,778,452,145,81,86,67
128,602,732,420,146,76,83,63
119,551,741,402,148,77,81,56
118,568,790,403,138,74,76,54
126,591,785,425,139,71,73,56
107,513,697,374,128,70,68,49
118,548,725,401,122,75,81,56
112,553,700,368,114,75,78,55
134,613,643,362,136,86,100,67
136,528,636,358,142,94,103,69
135,570,714,380,139,89,103,69
119,529,721,348,143,85,89,65
120,555,685,382,146,81,93,66
96,503,688,366,126,71,73,53
92,498,674,405,125,64,76,50
99,455,637,419,127,64,73,48
104,450,594,433,120,65,78,51
99,451,609,433,123,64,74,49
94,453,589,449,132,64,72,52
98,452,627,459,143,66,68,55
93,514,615,437,140,68,71,56
108,548,655,467,169,69,83,61
140,576,658,454,181,75,98,68
148,582,674,471,182,76,101,71
146,573,631,440,174,71,101,67
150,516,679,494,185,67,102,69
147,482,655,445,158,62,91,64
118,384,635,491,161,67,80,65
107,336,647,453,152,61,73,59
101,327,676,418,144,60,72,60
101,323,606,349,135,71,73,59
88,428,615,350,135,76,69,60
92,493,593,267,109,71,60,53
88,515,589,276,108,71,58,54
97,548,605,341,122,80,70,56
91,562,597,358,115,70,66,52
89,497,590,400,117,68,69,47
89,485,600,428,121,66,69,45
92,451,588,420,117,67,71,45
80,387,536,375,102,57,56,39
76,408,529,380,102,56,51,38
96,461,533,330,102,55,56,41
88,434,537,302,108,63,60,40
100,467,518,318,117,64,71,44
100,512,566,327,119,64,71,43
114,501,554,298,125,70,74,52
100,453,528,294,117,67,65,52
108,495,584,293,117,63,71,55
95,465,583,265,111,60,65,53
103,434,552,277,116,64,72,58
95,471,574,280,107,63,71,52
92,460,613,301,108,64,71,51
90,407,584,294,105,58,69,50
97,429,610,331,112,59,69,52
90,425,587,324,112,55,62,47
89,382,634,331,113,53,62,52
83,387,577,316,114,51,63,49
82,395,566,312,111,54,61,51
77,411,589,335,103,52,56,50
78,430,656,337,95,49,58,51
79,400,620,353,109,56,57,55
82,393,651,354,106,54,57,56
77,358,625,377,101,52,46,54
122,355,658,359,108,54,48,57
125,354,611,381,112,59,46,60
132,412,608,353,91,51,41,51
133,412,628,335,102,57,49,52
129,426,636,306,95,55,49,50
93,394,548,270,85,49,49,44
95,391,536,219,89,47,49,40
86,387,558,300,107,47,58,46
84,403,486,302,100,39,50,42
84,414,467,283,100,38,49,40
82,421,538,289,97,39,48,42
82,449,552,358,100,38,51,44
74,401,599,323,83,33,42,37
80,385,585,322,84,36,44,39
87,380,618,356,85,38,46,45
81,376,571,360,86,43,47,44
74,319,565,308,77,39,44,46
80,332,522,326,83,41,46,49
73,308,527,362,84,42,44,49
73,296,521,345,94,47,45,55
71,277,494,330,91,43,41,52
71,259,467,321,94,47,42,53
73,299,481,313,103,48,44,54
76,348,514,326,102,46,47,56
79,383,539,310,91,39,45,48
78,376,532,309,91,37,45,48
79,407,577,316,86,35,43,41
74,365,526,277,72,39,41,41
77,325,508,228,63,39,38,42
69,268,451,269,65,42,39,40
78,300,582,312,77,50,49,48
98,329,636,341,97,58,59,60
108,369,702,372,106,61,61,66
109,367,696,373,108,62,66,63
110,382,689,357,107,64,66,64
106,361,598,333,105,64,60,62
85,314,541,298,88,56,48,53
72,266,468,252,77,50,54,39
69,310,485,256,78,49,47,40
66,295,507,244,75,46,45,37
70,318,540,362,97,45,48,35
80,354,560,371,103,47,50,36
78,366,548,395,104,48,40,36
78,334,608,435,120,53,46,43
86,363,675,457,126,54,50,50
101,434,697,397,119,55,53,54
93,418,664,386,113,52,53,51
94,448,662,369,116,54,58,52
96,459,686,307,96,50,55,48
103,479,616,268,91,50,57,46
93,445,595,231,73,43,54,38
103,478,639,273,88,49,55,43
103,457,666,291,91,47,60,43
102,472,602,300,99,50,62,42
93,455,654,333,111,51,58,42
87,440,660,332,116,55,56,43
78,399,604,309,107,49,54,37
81,415,626,300,102,50,50,41
81,392,615,294,98,46,45,42
82,383,582,273,91,48,48,45
77,344,561,283,87,46,51,46
87,393,577,273,84,47,52,50
87,357,570,308,89,46,46,48
93,365,597,321,90,50,48,52
87,356,627,328,82,47,46,45
85,353,639,303,77,46,42,45
75,286,669,318,81,51,37,47
65,323,638,265,69,48,37,46
55,365,639,289,85,46,44,42
72,401,623,349,96,50,50,50
79,416,577,370,108,57,55,51
81,414,543,379,117,60,66,51
86,394,555,376,119,62,68,50
85,331,508,336,115,66,66,50
71,296,455,283,111,66,60,43
66,293,534,291,100,58,56,40
60,280,520,267,90,54,48,36
64,307,529,286,91,53,49,38
63,321,592,332,91,48,46,35
75,363,664,338,87,45,50,36
79,405,629,364,91,47,51,37
78,415,635,352,87,46,48,37
72,389,597,348,84,51,42,35
73,387,536,315,74,49,44,36
65,341,469,294,83,51,43,35
60,277,498,242,86,54,46,33
67,275,487,246,100,55,51,35
70,263,505,245,101,52,53,36
78,250,541,311,115,59,54,40
73,225,540,307,106,55,52,39
75,234,513,327,104,52,50,39
78,320,589,347,95,48,48,38
76,319,614,366,97,50,47,38
63,341,655,325,80,39,43,34
68,370,653,338,81,40,46,37
65,379,655,332,81,40,45,40
58,306,588,353,85,43,48,38
63,319,566,357,90,42,49,41
70,304,509,360,99,51,52,43
80,290,579,356,99,53,49,45
80,274,590,362,98,55,50,44
79,268,594,343,95,56,46,46
77,276,606,326,93,55,43,43
81,268,610,351,103,53,45,48
72,258,513,335,108,54,44,46
77,273,484,322,109,55,45,46
75,272,498,298,105,54,45,44
73,251,510,296,106,53,48,42
60,252,530,267,81,49,41,33
55,241,541,273,84,50,46,32
53,246,577,275,81,52,45,30
52,265,615,290,82,52,44,33
52,270,624,282,77,51,39,31
57,281,651,325,91,54,42,33
65,299,688,328,85,56,41,39
60,282,646,305,82,49,38,39
63,301,649,309,83,50,40,40
61,301,640,319,82,50,40,41
58,305,558,262,70,46,36,37
55,322,532,243,62,40,36,32
59,327,544,270,63,41,36,36
60,316,513,260,64,38,35,34
60,295,498,253,64,37,36,34
58,270,524,233,61,36,36,35
60,231,518,244,63,36,32,36
57,216,516,216,62,35,35,36
54,190,535,187,67,42,42,37
64,266,526,173,66,42,42,36
73,307,539,203,90,52,52,40
70,313,583,247,90,50,52,40
68,321,598,246,91,49,50,40
66,318,540,263,85,42,44,40
64,268,574,303,100,46,46,43
61,234,548,295,80,38,41,41
64,227,508,253,81,41,44,42
65,255,514,259,82,44,44,39
63,240,492,235,80,46,44,37
61,241,423,178,81,54,49,37
61,297,480,182,87,56,51,36
55,291,470,184,84,53,50,39
60,273,437,198,83,51,51,41
61,282,486,213,84,53,55,43
57,300,511,214,63,40,47,39
51,232,469,198,54,40,42,41
46,231,486,191,53,40,42,35
40,208,481,161,50,41,39,34
43,217,454,164,57,41,36,35
46,179,452,219,80,47,44,38
48,171,433,240,81,44,44,38
52,209,402,265,85,48,46,41
55,237,421,275,85,47,47,42
53,227,423,273,80,45,46,39
51,229,444,224,57,39,39,38
50,240,464,222,62,41,37,35
50,221,450,192,55,38,31,33
50,198,469,183,56,39,33,33
52,215,492,183,57,41,34,37
53,226,446,196,59,42,35,35
53,298,472,191,57,43,41,37
49,296,478,194,62,42,40,33
47,309,445,193,63,42,40,36
46,291,440,187,60,37,41,32
68,305,463,209,78,46,47,40
69,238,440,184,73,44,44,38
73,238,443,184,75,47,45,40
75,212,454,189,76,49,46,38
76,256,437,199,80,50,43,40
56,224,408,163,60,44,37,31
54,222,379,178,68,43,42,32
53,251,402,174,62,41,42,32
49,276,441,174,58,38,41,29
47,242,440,161,57,39,41,27
58,261,499,187,69,42,42,38
66,272,496,186,70,46,41,37
66,269,498,191,72,49,39,36
66,253,533,189,74,53,39,36
68,282,517,184,72,50,40,36
61,293,475,177,62,48,38,29
50,289,503,163,56,52,32,31
51,269,525,157,51,50,33,35
58,276,469,165,52,51,37,38
59,277,486,165,55,51,44,41
63,261,561,176,61,53,43,41
63,261,547,181,63,46,46,39
66,253,557,190,73,49,50,37
62,266,587,199,72,45,49,37
58,235,574,199,69,47,43,35
53,244,502,181,63,44,44,31
53,226,514,188,58,43,43,32
46,252,526,214,50,37,37,33
49,221,567,216,52,39,39,30
51,236,588,228,62,40,38,33
52,233,569,225,65,42,38,35
58,244,573,254,90,47,46,41
61,224,539,258,101,49,47,42
58,226,432,311,101,51,46,42
59,199,440,321,107,55,49,42
64,188,465,349,110,53,48,42
61,178,432,352,101,50,42,38
60,190,439,355,95,49,40,37
60,201,451,307,95,52,39,38
55,215,451,297,86,48,36,36
48,205,427,271,89,47,40,37
43,210,450,239,78,45,39,36
42,215,437,215,75,46,39,36
49,267,461,213,74,42,41,35
50,280,436,201,72,43,41,35
58,292,490,244,67,43,38,37
58,293,457,246,65,44,35,36
61,323,447,236,58,44,37,34
53,272,430,235,54,39,34,31
58,272,485,249,55,37,34,35
51,270,444,203,53,36,31,34
60,319,527,219,55,40,33,38
60,277,513,226,55,37,33,38
64,279,567,245,63,37,32,37
59,265,506,226,61,37,33,34
63,278,501,220,61,37,36,34
54,224,470,302,76,35,37,28
49,224,474,297,79,38,36,29
51,249,450,291,80,40,40,34
51,261,455,302,84,44,41,34
44,237,447,302,79,45,38,33
52,245,421,217,68,45,42,35
55,263,449,236,66,44,43,36
53,249,421,240,72,48,43,35
62,248,459,236,72,47,43,35
64,260,526,248,74,45,45,38
62,269,519,255,77,44,42,38
63,258,496,239,81,44,42,39
59,247,487,239,76,40,40,35
53,234,521,241,73,37,41,34
58,228,469,234,76,45,43,36
60,197,485,222,73,47,42,36
58,170,503,217,69,46,43,34
58,169,526,212,64,45,42,35
61,161,452,205,63,47,42,42
60,148,466,201,57,39,39,44
57,145,421,202,57,43,36,43
59,165,435,196,62,45,40,42
64,207,410,220,72,46,42,43
62,219,433,237,73,46,39,37
61,246,417,228,71,46,43,34
57,253,458,224,68,40,46,31
56,266,478,234,65,42,40,32
52,243,486,180,59,44,38,30
53,237,524,182,56,43,38,30
50,222,553,198,61,43,33,28
51,229,544,185,63,44,31,31
50,202,506,172,61,43,33,31
53,190,482,213,62,39,37,32
51,188,463,192,62,40,37,30
53,240,419,202,64,44,40,30
58,262,397,216,63,42,41,30
56,272,387,221,61,41,38,31
50,280,393,187,56,40,35,29
58,299,389,187,64,45,39,31
58,269,423,167,64,42,38,30
57,238,448,154,67,45,39,32
60,235,442,149,70,44,40,31
67,241,478,273,83,46,43,32
61,249,487,319,89,42,40,34
63,261,498,347,89,40,40,32
60,254,511,365,88,35,39,32
58,247,542,395,89,33,37,32
60,287,557,354,90,39,38,38
61,262,541,323,84,37,41,36
60,224,508,297,90,40,46,41
67,250,504,324,103,45,47,40
69,264,492,293,105,51,51,40
59,212,438,263,96,45,48,35
57,222,434,268,97,48,48,35
61,288,542,282,92,48,45,32
51,268,507,224,77,43,43,31
53,267,491,268,75,39,45,32
51,257,497,263,71,39,45,32
51,248,478,251,71,37,43,33
47,202,374,265,73,35,41,33
51,228,390,294,78,34,41,36
48,205,398,270,75,34,37,35
56,217,363,303,82,33,37,37
59,264,374,316,83,34,44,35
56,241,367,285,77,34,41,34
57,231,345,264,74,34,42,32
59,246,388,241,75,36,43,34
54,263,420,202,70,35,41,30
52,212,403,169,59,33,36,34
50,233,384,198,65,35,51,35
48,238,481,230,71,35,76,43
54,244,429,233,74,35,86,47
57,217,451,237,75,35,89,54
57,217,501,249,83,36,89,52
65,231,527,230,81,35,88,56
75,280,511,246,94,45,72,54
74,288,540,244,91,44,61,49
72,293,531,236,89,43,58,44
72,296,480,233,85,42,59,43
65,287,491,235,83,42,49,38
55,230,465,213,63,35,42,33
50,225,450,212,58,32,39,32
53,219,424,213,58,32,41,31
58,232,471,230,57,36,47,33
57,210,452,234,61,40,74,40
59,202,464,234,64,38,75,50
57,190,464,243,77,43,80,51
54,218,494,276,85,47,81,51
51,207,463,270,88,45,77,50
54,213,438,261,83,40,51,46
55,242,432,228,79,42,55,36
58,273,421,217,71,38,49,37
58,261,382,159,63,35,47,33
64,282,384,190,68,34,47,37
59,286,374,199,66,33,52,35
54,259,297,188,62,29,58,35
59,277,300,199,59,32,67,42
59,276,363,220,63,33,66,44
51,247,378,176,52,34,67,44
54,241,380,190,58,36,65,44
56,247,400,195,60,39,57,45
58,261,386,190,65,39,47,39
65,273,355,182,64,39,49,40
69,292,358,184,64,38,48,39
71,312,423,171,69,43,51,43
69,316,433,178,74,44,51,43
66,279,437,190,70,42,48,41
62,263,417,188,74,45,45,40
62,261,456,186,76,46,46,41
79,290,471,184,84,45,52,41
82,291,456,190,80,41,50,38
79,271,455,209,81,44,55,37
83,314,476,221,84,41,55,37
84,317,468,217,83,39,59,39
66,315,474,211,68,35,48,35
64,316,504,228,66,36,50,37
63,316,529,216,67,35,46,37
71,334,553,205,65,35,46,39
77,338,530,222,66,37,39,41
76,308,483,228,69,37,40,41
77,321,440,197,73,40,39,40
81,316,406,175,71,37,41,42
70,253,373,163,64,36,40,42
62,250,390,148,64,34,42,37
67,269,438,170,74,39,51,39
65,255,452,177,70,36,49,38
65,281,511,188,69,40,49,37
64,276,521,216,71,40,53,42
65,299,513,239,69,42,52,42
71,328,543,227,68,42,48,43
75,332,582,231,79,45,48,45
72,312,531,220,79,43,46,47
73,319,535,216,76,43,39,45
70,283,537,190,75,42,38,47
56,209,444,180,63,37,35,44
52,199,386,177,52,33,42,43
56,246,434,178,60,35,46,42
56,236,432,164,61,33,45,38
58,231,427,156,61,34,45,48
62,234,443,151,65,34,44,51
66,237,438,144,64,35,37,54
61,209,447,158,60,35,33,54
63,225,394,143,60,37,33,54
62,224,379,145,64,36,37,45
62,235,399,151,63,39,36,40
53,216,405,147,60,36,36,35
58,242,373,121,57,35,36,34
55,233,374,106,55,31,38,32
59,249,405,179,61,34,37,33
67,333,458,210,62,32,37,39
77,351,479,232,73,39,39,55
78,330,495,253,82,43,42,58
78,332,538,259,83,44,41,58
75,348,527,218,74,45,39,57
72,306,464,182,72,45,42,56
71,332,480,158,69,43,42,42
67,327,429,123,57,38,37,34
66,329,422,132,57,39,35,39
67,300,424,134,61,37,33,39
61,253,403,138,61,38,30,39
69,260,368,173,61,41,33,40
65,250,373,190,65,40,32,41
67,257,389,185,68,42,39,41
69,269,357,186,66,43,39,43
73,278,410,185,65,44,41,48
61,222,424,180,63,38,39,51
90,253,451,214,72,38,45,56
89,242,420,223,76,34,45,55
87,232,432,219,78,32,49,51
86,264,448,228,78,30,47,45
84,269,422,208,74,31,45,38
58,239,393,165,62,32,41,31
61,256,388,159,55,33,37,31
62,265,371,154,51,32,35,32
57,256,331,146,51,33,35,31
61,255,379,149,49,33,40,45
58,275,389,155,50,32,39,47
56,258,425,151,51,32,37,48
60,257,526,189,55,33,37,51
59,236,514,183,53,31,35,50
55,232,487,198,59,31,30,45
59,217,493,199,58,31,32,43
59,212,450,216,59,29,34,45
52,231,390,192,57,27,34,51
56,258,389,203,62,28,33,52
55,255,410,197,58,28,34,48
56,250,424,190,55,29,32,48
62,272,454,170,59,34,34,46
66,300,454,182,68,38,37,36
65,261,440,175,65,37,40,36
65,255,437,161,64,40,39,34
63,257,461,184,65,39,41,34
57,254,437,182,58,35,40,44
57,208,414,171,55,34,40,43
64,280,459,172,66,42,40,44
62,281,494,173,67,41,40,43
69,291,483,168,72,45,44,45
68,272,473,163,72,45,43,34
64,265,464,166,68,43,43,36
58,185,463,166,61,38,43,34
64,217,437,187,64,37,45,36
52,203,396,168,63,35,40,39
55,220,423,171,66,38,43,51
54,239,408,168,68,39,41,51
56,239,383,167,63,37,41,51
55,228,367,139,59,36,40,51
57,231,381,139,52,34,40,48
55,218,350,158,56,32,39,36
54,182,347,144,51,32,37,38
52,186,323,143,50,32,37,40
53,173,353,162,54,34,35,46
55,166,331,160,58,35,41,51
56,157,382,157,56,41,44,53
58,158,380,176,56,39,47,52
60,152,413,172,56,41,48,51
52,136,354,155,49,43,51,46
45,164,353,157,44,43,46,36
44,160,295,149,39,40,44,40
43,156,302,121,37,40,41,43
40,156,262,120,43,38,38,43
43,156,270,117,44,36,40,42
51,139,337,119,48,42,50,46
51,169,338,99,46,59,56,40
54,209,390,106,49,66,64,39
52,206,418,102,46,67,65,38
50,207,411,107,45,69,63,40
42,192,358,102,41,64,55,36
37,161,355,118,42,51,49,34
39,102,282,114,43,44,42,31
41,101,328,140,52,66,54,33
39,83,328,140,60,78,58,35
41,98,327,137,63,85,65,32
48,116,360,129,65,84,65,38
44,115,367,141,63,83,65,41
43,130,269,117,56,68,55,44
45,136,272,121,47,55,53,40
51,126,310,128,45,67,62,43
46,129,362,136,42,70,63,41
46,131,373,125,42,68,62,38
46,112,381,126,41,69,62,34
46,108,388,118,41,68,68,41
41,107,359,106,41,60,61,40
44,98,262,95,47,60,61,40
44,123,236,104,46,75,66,39
48,137,332,108,54,126,99,43
51,200,323,118,58,138,112,42
63,222,341,125,61,133,111,46
62,232,364,132,55,132,110,45
62,220,360,127,60,128,110,48
61,234,291,133,54,79,83,42
63,209,310,129,54,57,66,39
51,187,350,139,49,54,61,36
52,174,363,135,53,93,64,45
57,198,402,145,58,111,64,45
68,229,468,188,60,115,65,52
71,312,532,209,63,120,60,54
69,338,497,211,62,120,60,54
71,352,479,213,63,92,61,49
72,348,505,223,57,77,69,56
63,321,449,189,58,70,68,52
57,229,495,193,57,61,68,50
57,197,508,184,57,60,66,49
58,178,562,190,58,62,69,58
51,159,514,169,59,69,58,49
50,157,526,180,52,68,59,50
59,198,428,158,59,74,55,47
63,210,452,171,67,76,58,48
59,205,400,168,62,76,61,36
61,209,396,181,63,58,70,36
61,209,374,170,65,60,70,36
55,202,366,163,57,51,71,41
61,206,425,214,63,52,70,48
59,206,429,210,64,48,65,47
57,213,445,210,66,43,52,48
62,230,435,210,65,40,54,50
59,197,464,209,68,39,56,47
55,193,397,158,59,40,58,43
60,204,371,153,60,61,62,43
58,199,380,134,53,117,117,48
52,200,404,124,54,129,120,48
53,238,333,133,50,131,118,48
49,255,340,123,47,130,118,43
44,258,389,137,46,122,116,45
50,263,453,149,53,73,66,43
53,264,468,182,58,51,59,39
55,234,489,177,61,49,59,43
53,224,483,189,63,50,58,48
52,213,467,180,65,52,57,46
59,209,425,186,58,51,52,48
55,196,402,164,55,181,136,48
55,203,468,171,59,194,148,46
57,195,467,175,58,197,150,44
58,203,468,187,57,199,149,45
58,220,493,179,61,200,151,43
57,210,482,176,65,101,85,40
55,202,426,164,61,74,65,38
52,188,422,134,61,66,59,35
50,173,414,120,60,59,59,44
44,179,366,126,63,52,64,42
42,182,362,144,68,51,60,44
39,176,342,142,66,64,64,45
41,171,331,152,64,87,72,45
39,172,311,157,68,92,79,33
39,150,349,160,66,92,73,33
48,237,380,151,58,87,75,29
49,243,370,150,60,83,81,27
50,242,378,155,67,72,81,28
53,241,410,158,64,71,77,31
45,228,364,143,61,73,72,26
47,121,340,146,59,74,70,35
61,155,378,179,78,74,60,41
63,163,353,175,73,62,55,41
61,166,323,169,73,59,53,40
63,166,301,175,75,57,57,42
62,175,349,189,75,57,60,41
51,143,396,174,60,52,62,37
48,133,414,169,60,51,59,39
49,136,425,169,60,47,59,39
54,145,443,162,61,57,64,43
55,168,427,144,60,59,64,40
54,170,348,134,55,56,63,41
53,170,380,150,55,55,65,44
57,180,426,156,54,57,69,44
59,206,478,192,61,52,60,42
52,184,465,185,59,65,67,40
50,190,519,207,69,71,71,40
56,192,490,208,69,78,68,45
55,182,446,207,67,79,61,55
48,145,383,176,58,77,63,54
53,148,380,183,60,63,53,55
57,141,370,159,49,57,53,57
51,139,377,148,46,48,56,57
50,156,362,154,55,55,62,47
54,167,400,156,61,67,64,48
51,165,405,174,62,100,67,51
51,159,339,173,62,102,59,61
51,156,329,178,65,101,62,62
49,135,377,185,60,97,57,65
45,160,362,192,56,89,57,66
51,161,357,168,57,59,58,71
55,175,376,196,63,59,62,61
61,178,381,189,67,64,58,56
62,196,350,184,68,63,62,54
63,193,380,183,68,65,58,50
56,191,375,180,67,60,52,46
51,181,383,147,62,59,49,47
50,189,432,180,66,69,51,70
48,199,448,172,63,66,53,74
56,190,459,183,68,64,59,88
62,204,471,198,69,65,66,87
60,203,482,199,68,64,64,86
61,201,511,195,68,54,68,69
65,183,502,198,69,53,63,74
62,168,506,211,66,60,60,88
64,161,554,225,68,57,57,92
64,156,551,229,68,57,66,93
61,155,505,208,61,56,61,93
65,166,544,211,65,59,62,87
63,166,546,185,67,52,60,63
62,171,531,178,68,52,59,63
69,196,522,194,73,50,47,67
70,200,556,198,74,47,49,67
66,188,537,188,76,46,49,68
69,199,554,196,75,46,62,74
66,195,542,175,69,48,70,72
61,204,543,203,75,61,76,67
57,200,510,205,79,64,76,66
59,202,489,220,79,66,77,63
50,186,405,209,74,63,66,54
53,199,382,243,87,62,55,46
61,207,381,217,84,54,51,48
61,216,355,222,81,48,48,67
61,208,353,212,78,44,46,73
67,220,375,214,80,48,52,73
63,202,387,173,65,52,54,72
52,175,507,167,54,48,60,69
53,157,494,169,56,54,61,53
47,155,510,166,59,55,62,59
39,145,509,164,60,53,68,66
41,147,491,182,65,47,70,69
50,137,370,166,65,47,66,71
52,148,404,157,63,48,70,73
52,147,375,167,57,48,68,61
56,147,399,173,66,49,67,54
58,146,416,156,61,53,64,75
60,156,439,164,65,58,66,79
58,150,448,181,70,58,61,75
62,148,454,177,75,63,65,76
60,170,445,175,68,69,60,82
60,174,470,214,72,69,65,78
59,171,509,223,73,68,70,75
63,183,526,216,73,67,74,78
63,185,546,219,68,65,72,80
69,194,580,229,71,59,76,92
66,189,572,219,67,54,69,92
62,185,522,207,62,49,59,93
67,181,534,228,75,52,54,94
66,186,553,234,78,47,56,94
62,154,499,230,76,59,69,94
62,151,479,203,80,63,71,86
63,146,454,200,80,63,71,83
54,150,393,161,61,57,70,83
55,153,372,155,65,61,69,80
54,158,448,159,67,49,54,69
55,163,445,165,64,43,53,69
59,169,459,167,63,43,52,72
57,152,496,165,65,46,65,77
55,139,455,163,58,47,68,76
54,131,394,148,51,44,62,63
57,144,429,146,55,47,64,63
57,142,433,159,63,48,66,68
58,143,437,161,61,44,56,60
62,159,479,169,64,44,57,66
61,169,498,202,69,49,62,67
56,159,502,208,66,48,64,59
55,154,516,200,137,48,63,63
54,153,492,207,175,49,60,81
66,171,484,201,184,47,58,83
68,173,450,181,187,49,59,85
72,180,434,183,188,52,54,86
71,179,399,178,143,69,77,79
71,186,466,180,93,73,87,57
55,156,446,171,72,70,84,45
53,143,436,161,60,69,80,45
48,130,398,153,55,67,81,40
47,132,428,157,53,47,66,41
43,121,370,144,55,41,53,54
48,126,386,151,60,44,60,57
53,124,383,159,67,54,63,61
59,159,413,157,66,53,64,61
53,151,423,156,67,54,51,58
55,152,386,157,70,58,54,57
54,153,361,150,66,58,56,69
54,165,443,155,58,51,58,67
51,130,435,159,58,55,61,77
60,141,401,164,55,53,64,88
62,149,451,179,60,49,62,84
62,147,477,176,61,48,54,73
58,133,403,217,65,44,45,72
53,121,380,211,63,40,36,67
45,112,396,205,66,40,30,62
51,100,355,191,57,40,31,65
48,92,331,190,60,45,40,64
47,85,365,129,54,44,51,62
50,107,463,184,65,46,54,68
53,127,455,190,67,48,53,61
43,132,449,194,63,45,60,53
52,152,501,215,69,45,63,58
56,158,491,206,72,47,62,64
65,161,423,168,68,44,63,60
62,143,409,174,67,44,63,60
61,144,390,166,66,43,55,75
61,140,323,140,58,40,47,73
61,139,308,175,66,41,39,78
53,129,294,176,69,44,38,73
63,139,310,177,74,40,40,77
71,139,365,189,80,42,46,61
66,120,346,183,79,37,44,59
67,126,369,167,76,40,47,58
65,126,370,162,70,38,45,58
60,127,422,150,64,40,45,55
52,134,431,177,64,43,40,65
58,142,444,197,69,45,44,69
56,169,499,200,74,42,56,66
57,174,535,233,77,43,58,68
59,176,510,239,75,41,62,78
55,164,498,213,69,35,60,71
49,160,483,200,63,35,58,67
47,121,442,218,55,39,48,65
46,107,377,174,47,38,48,62
42,83,344,166,46,39,41,52
46,100,343,171,55,44,46,52
45,102,368,171,55,42,46,53
43,102,359,133,48,39,41,76
39,102,381,142,56,38,47,79
38,106,412,151,54,40,51,81
37,84,374,154,51,35,48,81
37,83,374,171,64,37,52,81
36,81,419,170,72,35,54,51
35,87,429,175,71,34,48,46
40,99,472,197,80,30,45,41
36,110,500,189,77,29,42,40
37,107,495,174,77,38,45,41
42,116,430,189,71,40,43,44
47,114,426,212,77,56,45,54
44,113,404,193,71,58,46,51
47,120,421,190,80,61,48,50
49,118,412,184,72,57,40,49
46,113,436,171,76,61,46,49
41,115,414,136,68,48,45,40
43,106,365,126,67,50,44,62
47,107,347,129,57,47,45,66
47,109,367,138,56,51,62,65
50,108,334,129,56,45,59,66
55,108,349,143,57,47,63,66
52,108,336,152,65,45,62,46
52,114,302,158,71,48,62,42
49,116,276,155,73,45,57,41
47,113,282,168,72,46,57,38
44,117,261,153,72,45,52,34
47,122,277,151,69,47,53,44
46,100,310,146,65,48,59,44
51,112,360,161,67,49,49,47
48,115,355,164,64,50,48,46
49,107,381,167,66,51,45,47
47,98,384,164,61,50,45,41
44,111,352,171,66,51,49,38
38,99,309,165,61,48,52,35
40,100,319,172,64,48,54,33
43,109,327,169,62,47,55,40
43,114,315,165,62,44,62,38
45,120,334,167,53,39,52,38
45,127,361,213,57,39,49,41
44,127,349,199,49,38,48,40
40,127,352,241,50,35,52,37
40,126,390,290,64,39,42,38
36,112,376,289,67,43,45,45
39,108,353,260,73,47,46,44
44,114,436,268,75,48,49,50
42,115,472,246,76,53,44,48
39,111,448,237,66,51,45,47
42,113,475,231,68,50,44,50
41,121,485,259,69,58,51,49
43,114,431,253,71,62,52,48
45,107,350,236,68,57,53,49
50,110,340,198,67,57,56,51
51,114,314,217,70,57,56,40
50,114,300,181,58,43,46,43
48,123,309,219,64,37,43,49
48,119,337,243,65,41,43,48
47,125,381,245,70,43,40,48
45,122,425,236,62,49,38,50
46,123,439,244,70,52,45,47
49,116,480,222,64,55,52,39
55,114,469,221,69,56,53,51
55,114,463,210,66,56,56,49
55,112,459,213,70,52,59,50
54,95,432,238,68,49,53,50
50,95,412,242,71,45,52,47
43,102,453,243,65,45,52,36
41,117,450,293,75,47,51,35
41,119,493,301,78,51,49,34
41,128,522,300,86,55,53,33
50,145,523,311,95,61,52,37
57,167,504,301,96,60,53,38
56,150,488,244,85,57,49,43
61,175,512,258,91,54,53,43
62,177,503,243,89,58,54,47
55,168,470,256,83,57,56,45
49,162,454,270,82,55,55,42
58,193,487,275,87,57,59,43
54,183,405,250,79,56,56,43
53,179,444,238,75,51,55,49
54,182,497,242,80,49,47,49
55,172,513,247,85,49,45,51
53,168,510,286,89,45,41,48
52,160,506,286,84,43,40,47
52,157,487,311,92,45,38,39
58,148,445,284,86,46,40,39
61,155,472,282,84,47,42,38
52,119,461,253,76,47,50,36
54,116,461,266,77,49,49,37
52,135,467,252,63,42,47,35
45,142,485,255,62,40,48,33
43,134,453,264,71,40,47,43
47,162,430,266,72,40,42,44
48,155,403,290,84,38,41,43
53,151,403,281,86,41,48,46
55,146,382,272,84,40,60,52
53,143,391,262,73,37,63,42
52,120,404,301,84,36,67,46
51,124,446,273,80,41,71,45
49,119,440,291,82,42,67,43
50,127,443,309,82,40,58,48
54,148,476,303,90,41,56,46
52,150,469,252,84,43,50,44
51,151,530,270,83,41,47,44
48,143,527,249,77,40,46,46
42,136,516,236,76,42,44,32
39,110,499,225,68,43,45,33
47,100,504,228,60,43,46,45
51,90,393,198,53,40,42,44
53,105,420,205,64,40,49,46
54,111,445,240,69,39,47,49
55,121,435,248,73,42,48,49
51,127,439,253,77,41,44,39
52,140,476,255,83,42,49,42
51,130,464,287,84,41,42,39
54,133,461,246,81,39,47,40
51,125,435,239,78,36,45,39
48,120,433,234,76,36,45,44
45,117,410,252,71,38,42,41
49,149,409,219,79,44,47,47
44,141,393,219,78,44,42,42
51,163,458,242,82,45,48,45
58,176,476,254,86,47,49,42
58,181,486,238,83,44,48,42
54,154,462,278,73,39,44,39
55,169,503,315,83,46,45,41
49,148,443,295,78,44,37,38
44,137,424,304,78,40,38,33
40,128,512,348,89,42,41,33
40,129,522,305,82,45,42,31
40,111,499,280,74,42,47,34
41,127,521,294,74,42,48,34
40,124,519,272,70,42,45,35
43,135,420,226,63,43,44,42
44,140,415,270,75,40,47,42
43,135,388,256,71,38,44,37
41,117,368,243,70,37,48,37
40,134,393,253,72,39,48,40
40,127,384,263,73,40,46,33
40,139,384,220,64,40,45,36
41,143,443,212,64,40,43,35
51,158,438,253,71,40,38,42
51,147,415,235,66,40,38,41
49,142,427,200,65,36,41,39
51,126,427,195,64,33,42,37
52,134,453,206,64,36,41,39
42,115,449,149,59,36,41,30
43,113,453,156,69,39,44,36
46,108,426,147,62,39,40,39
42,119,496,187,62,39,35,38
40,107,426,219,69,37,33,38
50,120,453,221,66,37,35,43
54,129,470,271,68,33,33,39
52,142,505,292,73,32,35,38
58,135,428,282,74,31,37,40
61,159,482,294,84,40,38,47
55,154,477,293,83,40,37,47
53,147,474,306,82,40,35,45
52,130,459,298,81,41,36,44
48,128,449,278,81,42,38,41
45,101,361,262,62,31,37,36
46,105,365,279,73,35,38,31
42,101,344,221,68,36,39,32
45,117,376,254,79,40,41,38
50,141,379,262,79,40,44,39
49,135,397,241,83,43,44,38
56,151,447,280,80,39,43,42
59,151,514,273,75,38,44,44
63,156,503,244,69,40,41,40
66,177,623,278,82,41,38,40
64,178,614,268,80,40,37,37
56,164,562,200,78,41,36,34
54,165,499,210,83,47,36,30
49,157,488,232,88,50,37,32
41,111,310,187,80,50,38,33
43,124,347,190,79,49,40,34
45,129,398,200,79,48,41,34
44,131,402,214,77,43,39,35
42,131,417,194,68,33,37,35
41,125,448,202,62,32,35,35
41,115,437,208,68,38,40,37
40,115,407,224,69,41,40,37
44,131,413,212,70,42,41,36
44,124,391,205,66,41,47,33
43,128,368,197,66,41,48,32
41,126,414,220,62,37,45,29
41,119,417,206,59,35,45,26
42,108,400,242,62,38,48,34
42,112,394,239,62,40,43,34
39,108,391,243,75,39,47,34
39,110,335,226,73,40,42,33
40,106,320,225,70,41,44,34
39,90,312,174,64,38,40,31
36,79,308,186,64,37,39,29
38,77,300,181,48,39,39,31
39,77,351,179,48,39,37,31
37,81,341,181,50,36,35,33
40,87,329,180,59,40,41,36
39,91,366,172,58,40,41,37
39,94,374,168,58,39,41,38
42,99,329,157,65,40,46,40
41,97,403,163,64,39,45,38
41,92,426,162,55,32,39,38
43,96,410,171,55,33,42,38
45,105,431,183,60,33,38,35
45,100,438,193,56,32,34,37
49,104,435,179,55,32,34,39
44,101,416,175,53,32,36,32
45,97,421,163,51,32,30,33
43,87,401,155,39,29,28,33
42,85,398,137,37,28,29,29
41,79,369,137,40,32,36,30
41,98,401,157,44,32,40,32
39,96,377,161,46,34,40,29
38,98,389,185,59,39,43,28
37,98,412,201,59,43,44,30
36,94,391,214,66,43,38,28
35,84,417,203,72,45,40,29
37,92,456,194,75,45,41,31
36,86,429,163,66,42,40,31
37,88,397,152,66,35,39,33
42,103,425,151,61,32,41,34
46,112,411,171,67,34,43,35
49,121,395,175,66,32,50,33
51,121,418,183,65,33,49,34
54,121,412,230,84,40,48,31
52,121,464,243,86,39,50,32
47,115,433,230,76,32,44,30
47,113,438,232,76,33,39,36
46,114,413,254,81,33,41,34
42,117,452,216,61,28,41,35
45,113,394,213,60,30,39,33
48,112,417,218,69,33,45,35
44,108,478,241,65,33,45,29
44,110,490,235,69,37,45,30
43,103,498,229,71,36,46,29
43,90,475,222,66,37,45,32
43,81,466,227,61,40,39,35
42,71,399,206,62,39,38,35
43,68,395,183,50,39,35,34
45,73,350,213,60,39,38,36
37,72,333,197,60,37,35,34
35,74,314,188,62,36,38,32
36,89,365,178,66,35,40,33
34,90,367,188,68,30,39,33
38,92,370,162,57,29,38,32
42,96,384,182,65,34,41,36
41,95,393,174,62,31,36,36
39,81,326,176,60,31,36,37
39,84,354,164,67,36,39,37
36,77,356,173,69,39,37,36
31,79,338,169,67,35,34,32
35,83,352,176,67,35,38,30
35,78,353,174,64,36,36,30
38,81,328,174,60,35,37,29
37,79,337,150,58,33,36,31
37,82,362,134,57,35,39,29
34,83,345,155,57,35,38,29
37,95,340,184,61,38,38,31
35,90,336,186,57,38,35,31
32,95,302,194,53,36,34,29
35,92,266,185,49,33,31,31
36,92,276,172,48,34,29,31
33,88,272,155,48,30,27,27
42,108,299,208,62,33,29,33
43,106,372,216,65,34,30,33
46,113,384,218,65,36,31,32
48,112,406,230,69,36,33,34
49,112,411,220,66,36,37,36
42,90,380,170,52,32,35,30
43,94,306,180,56,34,35,33
42,98,317,187,60,32,38,37
43,99,259,183,62,33,37,35
43,105,243,206,65,32,36,35
43,108,314,207,64,32,36,34
47,127,338,195,66,34,36,32
46,122,322,197,64,34,33,32
42,122,394,188,59,32,35,34
46,122,396,160,58,32,33,36
47,121,349,163,59,32,33,36
43,100,360,148,52,28,33,35
38,94,347,134,51,29,33,32
43,104,291,134,56,34,31,35
36,96,301,129,53,33,30,34
39,105,320,147,58,34,29,35
39,106,308,161,57,33,31,36
44,114,336,177,56,31,30,42
39,101,348,183,48,27,30,37
44,100,379,187,48,30,32,39
40,94,384,170,43,28,33,37
43,88,418,175,57,35,36,36
41,75,419,160,74,37,38,29
41,74,408,154,74,36,41,29
39,78,417,162,76,34,42,25
39,79,416,161,77,35,42,26
37,92,375,146,70,33,39,26
35,96,372,152,52,30,37,28
39,108,408,157,51,30,41,32
40,104,379,150,50,32,42,33
42,114,423,156,50,36,42,35
41,108,415,155,46,33,41,34
45,119,476,178,56,34,44,34
42,115,466,165,56,34,39,32
40,111,442,172,55,33,38,31
42,98,394,167,59,34,43,30
42,98,421,173,60,35,43,31
36,88,397,146,49,35,43,34
35,91,376,146,48,35,39,33
35,92,393,150,44,35,37,33
33,93,388,148,45,31,35,32
34,91,344,147,56,34,35,34
33,84,307,154,58,34,35,30
38,93,315,163,58,33,36,31
43,109,333,154,61,35,40,34
42,105,337,150,59,33,37,34
43,103,353,134,51,32,36,32
44,106,377,150,52,31,36,30
40,86,373,150,57,30,37,28
38,92,455,174,59,29,37,26
44,102,467,196,59,32,37,29
42,105,474,203,56,29,38,28
42,105,456,197,59,30,34,30
43,119,442,191,55,28,35,32
39,104,333,159,50,28,29,32
34,98,298,146,49,27,28,32
36,102,305,145,53,32,29,33
35,97,298,125,50,37,30,32
35,86,292,118,52,37,27,32
33,81,314,132,56,37,29,32
33,77,373,128,53,37,32,33
32,75,377,139,54,32,35,33
37,79,357,140,53,27,38,34
35,75,375,140,50,28,38,32
44,74,426,146,43,30,39,33
45,76,404,145,43,29,39,28
47,79,418,125,37,29,37,28
44,74,422,122,34,29,33,31
46,79,466,214,39,28,34,80
41,85,410,301,57,30,33,88
38,86,420,350,71,34,34,89
37,77,427,366,73,34,33,92
38,83,429,372,72,33,33,94
34,88,356,332,71,34,32,61
38,86,417,252,62,32,33,50
39,83,411,207,56,29,31,53
41,89,395,210,59,29,31,47
44,102,407,203,63,31,34,43
45,97,430,250,71,35,39,50
43,97,381,252,68,33,37,47
48,96,343,229,64,32,38,43
46,108,351,224,66,36,38,43
44,94,330,238,66,36,38,41
46,102,336,206,62,33,32,28
44,101,329,203,61,32,32,28
42,105,341,200,59,34,30,27
49,95,286,200,63,30,33,39
48,94,296,180,70,36,34,38
46,83,286,146,67,35,36,42
47,90,302,159,74,39,36,43
48,96,308,162,73,38,40,45
48,92,332,166,71,40,37,37
52,92,327,170,62,32,35,39
53,107,330,209,63,33,37,43
53,102,306,207,58,33,37,44
51,103,332,222,60,32,34,43
45,98,343,205,54,31,35,44
42,98,348,211,52,32,35,45
41,79,352,187,52,29,34,45
42,88,346,175,57,33,36,45
39,82,370,153,56,34,38,44
42,93,397,154,54,34,36,46
45,95,438,159,55,34,36,46
44,96,419,151,54,35,34,38
40,90,430,166,48,29,32,36
51,96,434,200,46,26,30,48
46,98,400,193,50,25,30,43
46,103,356,187,50,25,31,41
49,116,422,208,50,27,31,43
51,120,411,200,49,27,33,44
44,109,347,186,51,30,33,34
56,102,402,203,53,31,32,38
54,106,408,248,60,33,32,45
57,109,429,252,65,34,36,45
60,113,458,250,67,36,34,49
57,120,506,241,65,35,36,49
48,124,488,246,67,37,36,47
50,114,477,210,67,35,35,40
49,98,471,200,61,33,32,48
50,104,479,212,66,33,32,41
54,118,452,214,71,34,31,44
57,113,448,198,70,32,31,43
55,118,458,216,69,33,32,44
53,125,387,204,71,36,34,36
55,126,411,194,67,33,38,50
52,105,384,202,59,32,36,47
52,122,355,193,58,34,36,48
51,119,336,230,62,35,44,49
54,122,356,229,57,32,43,48
56,117,290,259,64,32,39,34
58,126,298,282,70,33,39,35
54,107,348,316,71,30,41,37
53,106,369,277,63,28,31,33
52,106,372,283,71,29,30,35
45,91,384,311,78,35,32,36
48,86,420,281,76,36,47,47
47,90,380,242,73,36,46,45
50,94,372,241,77,39,48,47
48,97,347,265,74,38,49,49
50,115,345,214,62,32,48,52
46,121,330,233,60,32,38,51
45,118,341,245,63,31,37,50
59,169,440,239,58,26,36,50
64,167,446,199,53,25,35,49
61,162,447,190,48,25,34,52
60,155,441,158,45,24,30,44
62,161,438,166,41,27,38,52
50,110,323,163,41,29,39,53
44,113,343,173,44,30,42,51
43,114,346,160,43,33,45,43
46,126,385,185,47,36,47,43
49,120,372,179,47,33,40,49
53,134,388,183,48,34,41,50
52,132,429,194,53,34,41,51
54,129,425,228,57,31,36,51
54,119,398,239,63,32,36,53
51,124,457,234,67,35,42,39
48,112,446,244,68,34,41,44
50,110,409,248,69,33,37,43
48,112,425,229,66,33,40,42
53,115,411,230,58,30,37,46
54,117,346,227,54,26,32,46
53,141,367,211,52,25,30,40
51,134,376,204,45,28,33,44
53,133,352,199,49,27,34,53
45,133,366,165,48,26,33,48
53,134,357,161,46,29,31,53
53,106,338,169,47,28,32,58
57,118,320,195,54,28,31,56
57,113,343,186,52,30,28,50
57,117,317,176,57,34,37,54
52,120,359,184,59,33,41,52
52,117,357,172,57,33,40,49
44,107,337,141,55,31,42,53
42,112,337,164,58,28,43,55
46,109,404,172,55,27,37,53
45,108,369,155,53,26,37,53
47,109,368,163,55,27,37,48
49,110,360,148,52,30,34,45
48,102,365,122,50,33,32,43
48,93,284,113,50,33,32,44
46,98,366,126,53,34,38,41
44,100,377,146,56,32,39,41
47,100,407,151,55,32,40,41
48,109,404,148,52,28,40,44
49,132,431,159,54,26,39,41
47,117,365,174,54,23,32,40
47,114,364,175,52,29,47,42
42,110,372,172,52,27,45,39
48,114,342,175,50,29,46,40
44,83,339,167,47,31,47,39
46,83,362,175,50,32,47,41
45,85,349,162,49,28,33,38
48,85,312,160,47,28,36,45
45,75,312,170,51,32,35,40
45,82,299,181,51,30,35,46
45,95,282,171,48,31,33,46
47,93,298,160,42,30,31,51
48,100,307,155,47,36,29,47
48,115,386,165,48,32,28,46
48,113,374,158,46,32,27,41
49,106,381,192,54,33,39,46
49,121,403,197,57,34,39,47
47,122,389,218,61,29,41,48
42,105,304,207,57,29,40,49
44,106,329,203,57,27,43,49
40,100,304,157,48,26,35,45
39,80,253,164,47,26,37,41
40,68,289,150,41,25,33,39
38,72,307,142,43,25,34,39
35,76,277,172,43,26,31,37
38,80,303,185,42,24,31,38
44,107,332,187,41,22,30,34
44,110,343,182,37,20,30,35
43,108,355,186,40,23,33,42
44,100,372,184,41,24,32,47
46,108,386,179,44,27,33,47
41,81,365,184,45,27,33,46
42,88,329,177,47,30,36,44
44,84,311,186,45,31,34,39
44,87,301,170,45,30,34,35
37,77,268,164,47,29,30,37
38,84,274,151,54,32,31,40
38,80,291,175,53,33,33,42
36,83,302,158,55,32,33,40
43,92,388,156,63,34,35,42
45,95,383,152,61,33,37,39
45,104,419,175,64,34,40,41
44,99,427,152,64,30,34,38
43,98,415,164,64,29,36,37
39,87,331,164,66,31,40,36
40,91,397,209,69,32,41,36
37,71,373,191,62,31,38,32
39,71,411,199,64,32,42,33
40,67,461,192,61,33,42,39
35,68,464,191,52,30,37,36
31,54,417,138,44,28,35,34
35,89,413,142,46,30,36,33
36,92,372,145,43,30,33,34
35,94,308,144,42,30,31,26
35,93,298,155,42,27,30,29
41,112,316,177,56,32,32,31
42,101,331,171,53,29,31,31
41,96,317,175,51,29,30,39
43,101,337,181,57,30,31,44
42,108,340,174,54,31,32,43
37,96,336,155,50,29,32,43
43,93,313,175,62,32,33,59
42,102,307,160,63,32,32,53
40,96,286,156,63,29,33,50
47,102,342,169,73,31,39,53
47,121,352,173,70,29,40,54
43,147,405,166,62,27,39,37
42,149,419,171,61,29,40,37
43,155,414,187,61,30,39,35
44,147,360,177,53,27,34,37
42,132,336,171,54,33,37,39
37,105,305,164,55,35,42,37
39,96,278,175,54,34,40,37
37,88,270,163,82,43,41,38
33,91,292,171,106,57,41,36
37,92,308,174,109,62,41,35
46,115,317,185,112,64,40,46
47,120,327,174,113,64,43,47
49,122,335,168,92,58,47,49
53,122,372,185,67,47,49,52
56,126,364,185,58,35,45,50
57,123,399,196,57,32,47,43
56,121,399,201,57,35,48,43
59,129,425,201,61,40,46,41
54,128,399,178,54,39,42,31
52,127,412,218,60,39,44,34
44,100,336,200,54,37,39,31
47,101,343,278,78,39,44,37
45,95,349,313,84,33,46,35
47,92,322,318,85,33,51,41
44,85,313,295,88,39,51,41
49,93,325,304,93,48,58,43
45,91,333,229,73,48,53,39
47,91,328,184,67,55,51,38
44,94,341,167,82,71,53,36
47,142,385,179,88,71,55,36
39,137,407,153,85,65,49,32
40,138,425,197,92,64,52,34
36,139,398,196,94,60,51,35
39,139,420,197,90,58,48,38
35,92,379,186,80,83,51,41
42,95,351,206,82,120,62,43
43,106,417,199,81,128,62,42
46,106,419,202,76,128,62,46
44,108,401,204,69,123,61,41
46,110,398,196,68,108,55,38
41,118,411,181,67,68,48,37
39,104,313,139,60,48,44,36
39,100,306,129,62,50,42,32
42,104,380,150,59,44,41,34
41,100,370,161,57,40,42,35
42,86,360,164,49,37,34,36
44,93,428,188,54,44,35,35
45,96,438,186,55,45,39,37
41,90,373,210,64,45,40,35
41,94,438,265,82,50,41,37
39,92,441,267,88,50,42,34
39,85,372,257,88,47,42,34
32,75,364,258,87,44,41,31
36,87,388,244,78,43,42,33
35,96,322,192,62,41,40,29
35,97,312,185,58,45,44,31
34,102,374,178,51,45,46,31
36,105,370,184,50,46,43,32
37,93,350,164,51,47,41,34
35,73,349,137,52,55,44,40
42,78,361,149,69,58,46,40
42,73,303,152,69,55,43,43
44,71,331,150,69,54,50,44
45,76,333,153,68,54,51,41
44,81,328,169,64,41,47,35
40,74,320,160,45,34,43,35
41,74,330,162,56,37,45,31
47,85,358,197,66,38,41,30
42,76,353,191,65,34,39,31
43,74,338,191,66,40,39,33
42,80,368,185,66,39,36,32
41,78,361,182,67,41,34,32
34,72,341,160,61,42,30,35
36,79,349,157,63,42,28,38
38,83,379,166,69,39,36,35
37,84,346,177,72,36,39,37
37,83,337,181,71,31,45,36
34,77,352,176,73,33,47,35
33,71,356,185,74,33,49,29
32,67,355,183,68,35,45,32
35,63,385,180,64,38,43,36
36,65,371,172,60,40,34,37
37,62,326,179,60,34,35,37
40,69,300,187,59,35,33,37
39,73,307,172,58,33,31,38
38,71,253,157,55,32,34,33
38,71,267,174,56,28,34,31
36,72,286,156,47,29,32,27
33,68,338,139,47,30,33,25
31,62,299,133,48,29,34,23
33,67,301,151,56,29,35,29
30,65,363,145,56,35,34,32
32,65,351,154,64,42,35,33
33,78,341,158,66,45,35,35
34,80,426,168,74,54,36,34
38,80,426,184,78,56,33,36
40,93,398,194,78,56,36,36
41,97,395,184,72,51,38,36
39,96,435,186,69,49,40,35
40,97,372,178,62,39,38,35
35,101,405,164,55,35,41,30
40,104,384,170,54,32,40,27
37,103,419,169,55,31,40,25
37,90,332,162,53,30,36,26
35,87,331,166,49,31,35,25
38,88,346,175,46,29,32,28
34,70,347,148,43,31,29,34
37,76,315,140,41,30,24,34
38,76,315,132,37,27,26,33
40,82,376,140,41,26,28,34
37,76,334,126,36,26,24,29
38,83,325,139,39,27,28,25
36,73,307,137,40,29,27,28
35,74,309,138,49,28,30,27
33,67,232,127,48,31,33,30
35,64,233,110,50,33,33,32
37,59,263,115,55,31,32,30
35,56,302,116,54,30,32,30
38,61,348,133,51,34,32,31
37,60,349,143,52,31,31,26
35,60,332,155,52,31,33,26
31,59,355,145,45,32,34,24
32,58,338,153,47,32,33,27
29,56,306,169,49,31,35,28
31,63,323,158,48,32,35,30
31,60,326,148,53,32,32,30
31,56,293,148,55,31,33,32
31,59,297,174,59,35,35,32
36,57,296,163,58,35,33,37
35,48,280,167,59,36,31,37
39,55,291,178,56,35,32,38
38,53,291,175,52,33,31,36
36,52,320,141,45,30,29,34
32,57,373,149,43,27,26,33
33,60,372,152,43,24,28,32
26,56,378,147,40,23,25,34
34,68,395,158,51,31,34,39
35,68,375,161,54,31,33,39
36,65,313,146,53,33,34,33
37,69,301,178,51,32,34,36
36,72,358,178,50,33,35,32
32,62,342,166,42,27,28,29
35,70,325,163,44,29,27,29
36,68,386,203,48,29,27,31
33,61,380,170,49,28,26,27
35,57,319,159,48,25,26,32
35,65,299,165,53,29,28,30
37,68,323,177,53,29,29,33
36,68,294,153,53,27,29,32
37,69,314,153,52,32,33,35
36,68,337,156,58,36,34,29
39,62,345,160,53,31,35,34
35,53,331,153,51,31,36,31
37,54,309,129,45,33,38,31
38,55,355,153,47,31,35,30
37,55,332,163,42,25,34,31
30,52,364,175,40,27,35,31
38,60,375,173,40,27,33,36
38,60,379,173,43,27,34,38
36,59,310,153,41,25,33,39
37,62,303,154,38,30,31,38
38,63,279,138,40,32,29,36
37,57,250,135,43,32,28,34
33,57,216,129,42,30,27,30
37,62,288,150,47,30,30,32
36,65,326,143,50,31,29,32
35,66,364,147,50,30,31,31
33,64,377,161,49,30,30,33
34,68,422,193,55,32,30,35
30,68,407,190,56,33,27,32
30,65,383,186,54,30,30,33
31,66,336,184,57,33,27,33
28,69,394,181,57,33,28,26
28,62,361,144,54,31,27,27
30,57,332,127,57,33,35,29
29,54,336,124,57,32,34,29
31,51,351,119,54,27,35,31
29,47,312,109,55,26,34,30
30,56,309,104,53,27,36,29
30,60,341,99,49,24,33,27
32,64,392,107,48,23,33,35
31,67,377,139,51,23,33,32
32,67,342,141,53,23,33,33
31,66,355,144,55,27,30,33
33,72,403,151,57,28,29,35
31,71,357,148,58,33,29,27
31,67,343,123,57,36,28,30
30,65,358,113,52,36,30,31
32,67,379,122,51,34,34,32
31,69,334,154,55,36,32,31
30,69,326,167,54,32,32,31
31,70,353,170,48,29,31,29
32,74,354,175,48,27,32,30
32,82,373,232,56,32,33,28
31,75,355,213,48,28,31,28
38,77,350,204,57,32,33,29
37,78,339,197,58,32,35,30
37,76,367,200,60,35,32,31
36,62,310,163,56,31,31,32
39,62,305,158,56,34,31,33
33,67,374,165,48,31,34,30
32,68,375,165,47,31,33,31
33,66,356,169,44,31,32,32
35,65,379,138,36,31,29,31
29,63,370,141,37,27,30,29
31,56,326,133,39,28,26,31
32,49,313,135,39,28,27,30
31,55,334,143,46,29,27,32
30,55,296,131,47,30,30,35
30,54,303,132,48,31,28,36
29,59,330,149,47,29,27,35
30,62,346,182,49,32,28,35
31,68,384,174,44,29,28,29
34,70,419,188,41,26,26,31
36,75,438,183,40,25,30,31
37,67,404,174,40,26,32,33
36,74,436,140,40,23,34,32
36,69,390,128,41,24,34,35
32,67,366,118,42,24,35,31
33,69,364,136,44,26,36,31
32,72,392,134,41,25,36,29
32,64,344,145,40,24,34,29
35,61,322,150,38,21,34,29
36,64,351,148,46,26,36,31
34,62,346,169,52,24,32,33
41,99,339,172,56,27,37,35
42,126,388,164,58,31,36,35
50,195,432,171,65,33,38,38
51,214,432,178,66,30,35,37
60,271,534,219,69,35,38,37
75,306,536,250,86,39,41,38
94,365,557,258,94,36,48,44
92,342,565,268,91,35,47,41
92,335,536,266,89,36,48,43
89,298,453,214,83,31,47,42
74,258,452,182,67,29,41,39
50,162,386,175,63,35,37,40
47,168,443,166,65,36,37,39
47,163,458,164,62,36,36,37
50,169,451,178,62,37,37,40
62,197,507,174,58,34,39,49
60,194,525,177,52,29,36,43
61,201,487,180,54,32,39,44
71,204,532,190,63,35,46,56
72,191,532,185,66,36,48,69
69,167,525,207,68,37,45,66
72,163,511,202,71,41,52,68
69,134,477,195,65,39,50,71
64,140,493,199,61,36,47,62
62,148,560,206,64,39,45,50
64,166,527,190,60,38,46,51
65,179,620,203,58,33,39,50
67,217,671,199,59,33,38,54
69,247,646,224,65,37,38,59
68,249,578,222,60,33,38,60
62,244,561,218,63,33,41,61
59,243,476,204,62,35,40,63
58,213,404,209,68,35,41,57
60,193,401,175,63,31,40,57
59,187,403,179,65,34,40,53
57,169,432,177,62,33,36,48
56,160,424,170,63,28,35,43
55,160,471,182,60,30,35,40
42,132,461,176,58,31,33,45
43,140,466,157,62,29,33,41
46,161,558,166,68,33,34,40
49,166,576,172,70,33,37,41
67,182,553,166,76,35,39,49
66,184,541,164,76,35,38,39
65,185,563,170,71,34,36,47
65,172,520,166,70,34,35,48
61,157,490,164,69,37,35,53
41,143,478,157,62,34,31,43
44,142,493,153,60,36,33,46
47,139,493,165,59,36,36,39
48,138,411,156,53,36,39,44
51,147,452,165,48,34,38,43
61,174,464,165,49,34,40,47
65,178,452,178,59,35,41,50
61,168,430,164,64,34,37,50
59,175,447,174,71,35,36,48
58,175,407,173,72,34,36,48
46,137,412,183,69,34,32,45
40,135,390,175,62,31,34,40
49,151,403,188,65,35,41,42
48,136,396,179,67,34,40,38
49,129,386,172,67,36,41,36
50,133,392,179,80,42,42,41
57,142,455,190,85,43,41,43
53,135,432,178,84,42,35,42
54,146,458,180,86,43,39,42
52,148,521,196,87,42,40,38
54,148,470,179,78,40,39,32
55,140,431,169,73,42,40,35
54,135,468,161,82,42,43,41
54,132,442,159,81,40,39,43
53,133,384,144,83,40,39,43
56,159,434,162,81,37,42,47
49,152,435,151,85,35,41,44
51,170,421,176,88,36,42,38
48,167,389,171,80,33,42,37
52,176,368,169,80,33,43,45
46,152,318,152,79,30,39,40
54,170,291,164,78,32,43,39
51,151,309,156,60,28,42,38
50,157,324,174,65,27,41,40
48,154,327,171,71,34,46,31
50,154,333,164,74,34,46,35
41,148,358,155,70,31,40,36
41,149,329,144,74,36,38,37
46,139,359,153,72,38,36,41
48,130,363,151,66,37,29,47
46,129,361,149,64,38,32,45
47,116,345,145,63,42,32,44
43,107,319,135,65,39,32,43
39,102,280,123,72,40,34,35
39,113,376,130,73,43,36,38
40,109,372,139,71,44,33,37
42,104,358,140,88,43,33,37
48,131,374,153,95,45,33,36
49,133,389,150,89,43,33,39
47,137,289,137,89,37,34,28
48,141,284,134,95,40,37,29
46,145,364,144,93,39,39,31
47,134,351,148,96,42,42,43
46,137,337,143,106,52,45,43
43,123,351,153,116,54,43,43
43,115,359,154,115,53,42,45
48,122,312,144,106,55,40,46
43,112,375,127,95,53,37,39
45,106,419,127,89,43,36,45
45,106,407,126,92,48,41,44
46,118,445,142,98,51,41,47
43,108,446,141,94,47,40,45
40,101,420,144,100,45,41,41
46,111,388,140,96,49,41,48
45,117,421,139,77,44,36,48
50,128,447,116,65,40,38,45
61,188,470,130,73,44,42,46
65,214,476,130,59,45,44,48
64,219,490,130,57,39,42,34
68,220,473,128,66,41,44,42
65,217,482,136,71,45,45,43
56,171,444,139,80,42,42,43
56,153,428,143,84,43,40,46
51,145,503,153,87,44,40,48
46,141,495,165,81,42,37,41
43,125,433,156,75,37,35,38
41,133,444,145,69,41,38,43
38,129,469,151,67,40,36,37
41,130,392,143,60,39,36,42
42,130,383,149,62,43,39,44
42,154,413,159,63,42,37,44
44,145,414,172,55,38,35,39
49,144,427,165,52,36,39,48
52,160,423,180,62,37,41,42
51,160,452,167,61,32,39,42
53,139,449,156,65,33,41,41
53,147,457,152,83,42,42,43
48,147,425,145,82,40,38,41
46,136,422,126,80,38,39,42
49,152,456,139,82,41,39,40
55,163,454,148,90,41,41,47
52,156,457,138,82,36,39,45
51,149,442,147,82,39,40,39
47,135,452,144,81,44,38,43
45,114,416,159,83,46,39,46
37,94,398,154,71,47,36,40
40,123,393,152,65,43,39,40
46,127,459,158,70,42,41,42
46,140,459,170,80,41,45,35
47,155,471,163,79,38,46,37
48,164,557,176,77,34,45,35
47,145,551,178,82,37,44,35
44,144,514,183,83,40,44,33
47,141,505,175,77,40,44,35
44,126,491,153,74,40,38,31
44,128,411,164,79,39,42,40
39,136,406,169,74,41,43,38
46,126,370,158,74,40,42,41
51,140,398,157,68,37,38,40
59,159,406,169,71,39,43,44
59,155,420,171,76,42,43,43
60,146,407,162,79,43,41,46
57,154,470,185,80,45,43,43
48,134,466,184,83,45,45,43
38,106,445,176,83,45,41,38
35,95,386,156,75,45,37,33
36,94,411,159,67,42,35,39
34,85,368,129,62,40,35,39
36,86,313,133,58,40,33,38
39,87,299,142,53,38,35,40
45,92,348,164,58,40,35,44
43,96,353,169,62,40,38,41
54,111,374,181,63,40,37,40
58,106,419,181,60,39,34,41
58,111,419,178,64,39,32,40
56,118,428,177,63,38,33,37
57,115,401,182,61,38,32,31
45,95,370,171,56,34,32,40
38,105,410,168,56,36,35,39
38,104,442,168,56,36,35,44
37,89,422,140,48,32,33,42
39,105,443,141,47,38,36,43
39,107,435,145,49,38,34,34
43,118,349,168,55,39,37,37
41,113,303,167,53,38,36,35
43,122,340,198,57,40,36,37
39,104,297,187,55,37,31,37
37,102,309,186,54,39,30,39
32,76,362,171,50,38,22,35
36,92,367,170,58,39,30,30
36,86,310,135,63,39,36,30
43,95,395,150,63,38,37,29
45,101,384,153,65,36,38,27
51,105,346,145,66,41,43,44
46,93,344,157,67,39,43,42
47,90,359,170,64,38,39,42
44,86,317,175,67,36,40,42
42,86,348,170,66,42,42,43
38,86,413,188,63,39,40,28
40,100,439,185,58,42,38,32
33,96,429,165,50,41,39,30
36,104,448,172,54,42,38,31
37,103,441,176,53,37,42,29
38,107,378,155,57,36,43,27
38,106,362,171,56,33,41,41
40,131,400,201,61,31,39,44
36,123,342,180,51,29,38,43
41,129,335,195,57,27,36,46
41,124,328,196,55,27,37,47
45,118,345,178,57,33,41,35
44,91,310,156,53,36,44,43
44,101,326,166,65,39,49,45
44,95,299,146,65,43,48,44
40,91,333,173,63,41,44,42
38,85,317,178,62,38,43,45
37,91,329,171,60,36,41,35
38,77,305,172,48,36,41,33
38,81,365,187,46,34,40,38
44,80,331,156,45,33,40,41
42,85,325,144,42,33,40,39
42,77,340,158,45,35,40,41
44,87,366,146,45,32,35,40
39,78,308,126,39,31,35,34
41,81,316,132,41,32,37,34
43,84,320,143,44,31,37,34
46,104,365,145,46,34,41,44
46,101,359,157,48,34,43,44
49,102,388,162,47,33,42,45
44,101,415,176,48,36,41,45
42,98,408,173,43,36,40,44
45,80,327,158,41,31,32,34
45,81,361,154,41,35,30,42
44,84,336,147,45,33,27,43
49,95,341,133,46,31,25,42
46,100,361,136,50,33,32,42
45,121,482,146,52,37,33,42
44,119,446,138,51,33,34,32
48,113,450,143,52,34,34,32
48,108,448,157,55,35,43,36
50,103,436,153,52,36,40,41
48,83,354,161,52,39,42,38
47,82,367,166,53,39,41,40
44,83,378,164,48,38,43,40
42,87,373,159,50,38,36,36
45,87,368,155,49,37,33,32
42,84,329,136,48,30,36,32
42,86,330,136,46,33,36,33
42,90,324,140,50,34,36,30
40,80,295,127,44,34,40,36
34,89,325,141,52,34,42,36
38,88,352,162,54,35,37,36
44,87,357,162,52,32,38,35
43,86,371,158,57,34,39,35
44,87,373,156,56,34,36,28
43,70,368,147,50,36,34,30
42,72,332,127,53,34,36,30
37,70,388,153,55,35,35,40
35,61,364,151,45,34,33,41
36,60,367,150,48,35,35,43
40,77,393,163,52,39,34,44
40,75,409,170,50,41,34,43
40,81,362,150,57,43,36,35
49,98,403,155,57,42,36,33
48,110,411,157,56,38,34,38
44,99,381,152,53,31,39,37
46,115,418,142,52,32,37,37
46,124,413,138,46,32,36,37
38,120,370,144,46,31,34,37
45,132,481,155,50,34,34,38
47,156,515,150,51,35,30,37
50,156,491,156,55,38,34,40
49,153,541,165,58,37,34,41
49,148,546,158,60,37,35,41
44,137,471,166,62,37,35,42
42,120,481,162,61,34,34,42
44,141,498,197,76,33,39,44
47,155,475,210,87,35,41,45
50,156,467,204,91,40,45,52
51,148,438,186,88,40,43,48
56,162,401,193,92,42,47,46
79,233,406,184,97,44,57,47
104,328,387,197,113,49,71,56
123,397,465,227,127,50,83,63
130,412,533,249,130,49,85,76
200,553,636,318,175,65,118,95
227,731,755,418,208,76,127,100
234,770,805,422,207,75,133,98
237,827,878,439,208,81,147,95
261,879,932,477,241,90,173,94
226,936,907,489,230,86,155,80
204,830,853,437,207,83,153,82
197,821,837,449,212,81,148,81
208,840,820,485,222,85,137,87
200,856,821,520,208,88,109,84
206,755,818,490,197,85,116,88
202,806,880,481,192,81,105,87
211,828,885,478,189,84,110,89
199,771,835,433,180,78,107,84
195,831,821,398,179,76,111,95
187,876,822,378,170,77,109,89
192,842,723,357,166,76,109,89
175,824,700,344,156,72,97,83
168,840,764,349,150,75,93,82
145,741,740,271,132,66,91,65
129,659,746,269,128,61,81,64
134,666,750,286,128,61,83,65
161,663,779,347,150,65,101,76
162,622,685,323,139,56,97,74
172,637,628,340,137,51,90,71
170,645,642,340,136,52,90,68
196,703,680,362,165,67,99,83
167,656,682,305,146,64,78,74
166,628,683,293,145,66,79,76
168,673,709,306,148,76,75,82
195,746,707,378,160,82,79,91
156,679,655,366,133,69,60,72
154,723,661,351,127,68,59,72
167,799,737,382,142,69,70,76
153,727,735,365,131,59,68,65
140,663,679,326,141,67,75,64
140,626,699,299,132,63,76,62
149,577,677,322,137,68,76,63
131,502,637,316,124,65,65,53
134,517,679,350,128,66,68,60
124,554,729,336,110,53,56,47
119,610,824,336,108,54,54,48
135,641,796,341,109,53,58,55
141,646,830,338,110,56,67,59
155,785,812,335,142,61,86,61
150,763,776,323,137,59,85,64
157,716,636,312,136,58,86,64
139,696,707,294,136,62,83,62
140,680,643,309,140,65,82,62
122,513,592,275,105,61,58,58
128,503,700,295,114,63,65,71
124,490,736,318,127,66,67,71
124,499,686,307,125,60,71,66
112,479,666,269,117,52,64,63
121,492,700,270,119,53,68,68
105,450,579,236,108,51,63,51
100,497,545,208,101,50,66,52
92,462,517,214,96,46,62,53
96,477,510,223,95,45,60,57
78,443,470,216,94,42,56,47
76,458,485,216,90,41,51,49
75,399,531,250,100,49,46,53
74,414,522,240,95,51,43,50
81,431,584,247,94,55,47,47
80,503,633,235,84,53,50,49
94,534,662,274,95,53,59,48
94,552,652,265,85,45,57,41
101,567,669,285,95,48,62,43
99,547,643,292,99,51,64,46
106,554,637,295,103,49,62,48
96,519,657,278,98,49,59,47
93,500,633,259,89,47,60,45
99,512,620,244,87,44,57,46
99,542,592,242,92,44,56,45
96,459,561,261,93,46,59,45
93,459,508,254,90,49,57,48
95,476,559,250,92,50,57,50
88,466,566,255,93,50,57,49
96,521,584,242,99,51,57,60
97,554,601,222,105,54,61,60
110,547,573,215,110,54,67,63
108,547,526,209,111,54,66,64
106,524,593,218,110,52,66,64
107,477,623,240,107,49,67,54
104,431,592,248,103,44,61,52
96,444,627,233,97,40,52,46
94,445,628,232,98,41,56,43
93,445,571,215,95,44,56,43
80,383,572,206,93,42,54,50
73,370,597,220,88,41,57,48
68,352,566,223,90,46,57,49
75,379,578,247,89,41,53,49
76,360,564,263,96,45,51,52
81,420,512,251,92,42,48,43
84,471,451,218,88,43,49,46
89,490,494,244,84,43,48,55
82,441,446,213,78,45,50,54
79,436,447,196,63,37,47,49
81,436,491,233,66,40,49,55
83,423,545,240,67,39,45,52
74,389,517,209,64,35,42,39
78,435,617,257,74,35,42,40
76,443,668,248,76,37,47,42
61,388,649,205,68,34,47,34
71,414,704,211,71,37,56,41
79,449,716,212,73,37,59,44
87,414,679,175,81,38,66,48
91,419,668,207,83,41,63,49
96,446,692,211,86,44,61,47
89,399,596,228,89,46,56,45
95,382,658,241,92,45,58,50
86,387,637,228,80,44,46,46
87,380,600,211,78,43,50,52
82,350,556,207,74,41,50,56
85,346,594,182,70,41,49,57
74,348,504,158,63,38,43,52
78,348,531,166,68,41,49,53
76,374,538,157,65,40,46,44
78,422,575,154,61,38,47,41
70,419,535,148,55,34,43,35
65,388,512,163,58,36,42,33
62,393,483,153,60,36,42,43
69,362,475,175,69,38,42,50
66,294,406,176,68,36,40,47
72,318,465,221,83,39,51,48
73,329,474,222,82,38,51,49
71,317,434,222,75,34,43,40
69,331,458,218,80,36,47,39
76,346,559,239,89,39,50,42
82,339,524,221,85,42,45,55
83,335,533,213,83,43,48,57
83,315,536,217,84,44,52,58
86,300,535,220,81,40,52,58
85,337,515,208,79,42,51,58
74,322,499,180,68,38,46,46
78,382,477,199,79,40,48,42
85,408,497,192,80,40,47,40
75,397,487,174,74,41,46,45
65,352,415,156,69,39,46,44
66,356,418,156,81,42,50,43
58,279,424,128,77,37,47,44
46,238,479,178,78,42,44,44
54,270,507,191,79,42,44,34
61,306,534,197,80,45,42,35
72,347,611,223,76,45,39,41
75,362,613,225,75,45,38,46
74,361,547,186,69,41,38,46
69,341,556,173,66,40,34,44
68,311,551,170,66,39,36,45
55,242,516,159,63,36,37,40
58,256,554,182,69,40,44,35
60,256,571,181,70,41,45,34
66,337,527,180,70,41,46,34
65,356,511,208,70,41,43,40
75,385,489,205,71,42,44,44
79,389,480,205,65,40,39,44
84,436,502,220,70,39,38,45
85,393,498,226,70,39,35,48
84,380,507,192,67,38,35,41
78,355,498,190,61,35,33,42
67,322,448,164,58,33,30,39
69,301,435,157,63,36,32,49
67,292,448,162,70,38,37,53
81,342,443,193,81,41,43,57
78,339,451,190,80,41,44,54
86,389,489,186,79,45,46,55
84,378,527,207,80,45,49,47
82,381,526,196,76,44,46,46
72,322,519,198,66,40,42,48
76,384,495,193,67,40,45,52
71,340,482,210,66,39,43,54
67,321,434,195,59,36,39,53
69,309,455,201,58,36,41,48
67,308,450,171,57,39,39,44
61,266,440,167,57,37,37,37
61,278,436,160,63,37,37,32
60,265,438,152,63,39,38,33
59,325,405,152,58,36,35,39
59,349,399,154,58,32,40,38
59,328,427,182,64,35,38,39
54,321,407,171,56,34,38,40
54,325,429,172,54,32,35,43
66,287,497,188,67,37,42,42
73,292,529,197,73,38,43,46
75,306,576,186,72,39,45,45
76,305,589,194,76,39,43,45
78,312,604,193,76,40,45,53
67,308,594,177,67,35,41,50
55,268,577,167,59,35,39,48
51,264,541,159,56,33,36,47
51,273,554,154,56,33,42,49
48,252,515,151,55,33,42,36
59,265,496,141,56,37,44,40
59,281,493,151,60,42,42,39
63,265,459,150,59,42,42,48
68,265,430,164,62,44,46,51
70,303,426,179,68,46,45,49
61,266,405,182,71,46,43,48
60,273,390,175,76,46,43,48
58,271,424,173,78,47,46,41
50,255,408,157,72,43,37,34
46,228,441,142,66,43,37,36
45,226,403,137,62,41,36,39
48,228,440,146,60,37,35,47
49,209,397,142,56,35,32,47
54,233,431,168,59,38,32,51
53,220,390,168,58,34,31,50
53,220,401,182,67,34,37,44
51,209,373,178,65,34,35,37
50,232,389,184,71,36,37,36
51,227,389,173,79,36,38,40
51,225,420,177,81,38,39,40
47,227,444,162,73,36,35,40
46,229,459,175,69,34,34,38
48,256,492,170,65,34,35,39
43,244,476,156,52,32,33,31
42,243,436,152,47,34,31,32
47,249,461,158,53,40,34,31
48,308,523,159,54,37,35,33
54,296,511,164,53,38,32,36
55,306,527,172,52,38,32,36
55,310,528,161,51,38,33,36
57,326,523,162,54,35,29,37
54,257,479,144,54,35,29,37
47,240,471,137,60,39,34,35
47,267,448,138,61,40,34,40
50,274,523,153,75,39,45,39
46,243,480,158,70,38,44,41
46,253,445,159,71,41,44,41
51,263,488,163,65,37,41,40
58,247,507,157,69,38,40,38
55,229,422,147,55,38,30,38
58,249,454,127,59,38,32,35
63,278,501,156,63,34,35,37
68,329,541,175,69,34,38,37
60,313,526,172,64,32,37,33
65,357,572,192,69,29,39,37
66,348,576,219,79,35,43,41
61,330,525,202,75,36,43,46
50,254,412,185,69,36,41,45
57,264,507,200,74,36,47,45
57,216,515,210,74,38,47,42
52,216,496,204,60,34,42,37
53,206,502,201,56,34,40,30
61,237,593,235,64,36,42,32
56,232,555,232,64,36,37,33
53,239,578,222,61,35,35,31
59,232,589,217,68,35,44,34
57,219,608,214,70,33,47,33
49,196,534,170,65,36,44,35
49,194,505,166,64,33,43,32
52,195,478,171,66,34,43,33
49,231,458,168,63,36,35,32
50,243,421,175,65,35,35,46
52,258,413,175,66,31,34,45
52,258,444,179,65,31,34,47
52,274,419,151,62,30,38,51
56,270,426,142,63,30,39,51
54,262,434,141,61,33,40,40
58,247,419,136,62,36,41,39
60,266,423,150,62,39,42,38
60,244,406,157,68,43,43,32
56,221,391,162,65,41,44,33
58,223,445,187,68,41,43,34
55,229,495,193,69,42,44,35
57,233,509,187,70,42,42,34
61,237,561,199,64,38,36,33
64,249,588,216,71,41,37,34
70,259,570,198,67,38,37,34
70,258,574,202,70,39,39,34
66,217,561,195,67,36,39,35
58,197,502,176,71,37,48,36
56,163,474,151,65,32,46,36
44,161,462,156,69,36,44,33
45,177,443,155,62,33,42,34
47,207,437,162,63,32,42,32
47,215,415,165,58,31,32,33
48,251,461,175,56,31,33,32
53,262,450,168,56,30,33,34
48,246,446,163,57,32,30,33
47,240,446,150,56,35,31,33
47,236,492,156,56,33,30,32
53,236,466,152,55,39,30,31
49,215,473,152,50,38,30,29
53,216,492,206,71,42,36,32
54,198,437,199,74,39,38,31
59,215,425,207,80,41,44,33
50,186,424,199,80,38,43,30
54,219,423,196,80,36,44,31
56,258,450,148,69,33,42,33
55,265,525,152,66,34,40,33
48,254,500,131,57,33,34,32
62,251,563,178,84,50,49,44
76,311,617,239,96,55,52,51
76,280,563,239,92,53,50,48
79,294,515,266,95,54,49,52
83,296,575,287,97,55,51,53
75,311,506,263,73,40,39,47
58,217,417,207,54,33,33,41
58,218,461,211,56,35,32,43
62,235,452,173,52,36,35,42
59,232,382,139,47,33,31,38
58,243,468,136,52,35,28,36
58,248,513,144,55,38,32,38
59,253,521,134,50,36,33,33
49,246,555,138,49,33,30,32
48,255,559,150,54,36,30,33
52,233,539,154,49,35,30,38
53,247,506,141,50,33,30,35
50,265,526,139,51,34,33,38
53,242,488,155,59,37,35,39
51,245,495,149,59,34,37,39
46,240,453,154,62,32,37,35
48,232,474,172,65,32,36,37
47,208,398,173,64,30,32,34
45,236,404,163,58,27,35,33
49,222,398,160,64,33,40,35
47,221,363,155,59,33,40,33
45,234,410,140,59,33,40,30
44,225,399,137,59,34,41,30
48,190,432,144,58,33,38,32
48,214,463,152,51,27,33,32
54,220,473,158,55,29,35,35
56,206,424,193,60,32,37,37
60,220,424,192,60,30,37,37
57,219,409,185,60,32,36,36
60,214,420,189,64,34,36,38
60,208,418,177,65,34,35,38
56,218,416,145,57,31,31,36
66,229,459,219,67,40,35,45
66,246,448,217,68,39,35,44
58,224,395,206,61,37,35,41
56,221,440,207,62,38,34,40
56,192,440,198,62,41,37,41
40,162,455,110,49,33,33,32
55,247,483,154,54,32,33,33
58,252,512,161,57,34,33,34
62,289,493,176,56,34,36,34
62,306,483,176,54,32,34,32
63,311,430,178,59,32,34,34
53,241,389,150,57,37,34,33
52,234,370,145,57,39,34,37
46,191,364,139,55,38,32,34
49,231,383,144,55,39,32,38
46,223,416,153,53,39,30,34
45,211,405,144,53,37,31,34
44,218,384,145,50,36,30,32
50,227,415,149,54,36,29,36
51,193,459,177,66,38,37,35
54,219,456,169,69,42,40,38
56,233,458,167,66,41,40,37
58,241,488,174,66,40,39,35
55,254,490,176,68,43,41,35
49,229,460,159,58,39,34,34
53,272,464,171,57,35,34,31
66,303,513,193,68,36,43,33
71,319,513,186,81,38,45,36
70,302,539,186,78,35,47,33
76,335,530,178,80,37,48,33
72,285,511,170,75,35,45,34
58,235,469,147,64,33,40,32
49,198,461,151,52,32,36,30
58,222,396,162,64,40,36,34
53,202,395,160,64,40,34,36
54,228,439,177,68,40,38,37
54,235,436,183,71,43,37,38
54,241,409,175,73,42,37,39
47,224,419,153,62,34,32,36
50,217,412,154,62,35,34,36
47,193,395,128,59,35,31,33
53,228,415,155,60,32,31,32
52,234,409,156,53,31,30,31
50,252,448,179,56,31,31,28
52,268,425,190,51,29,31,26
55,262,395,193,54,31,32,28
51,226,469,185,52,33,31,31
59,240,510,195,57,35,37,36
63,215,452,185,55,36,42,41
66,198,487,172,62,41,45,43
64,208,482,181,61,40,45,43
63,212,428,188,64,38,44,41
56,186,459,189,63,37,41,39
56,217,458,190,67,36,41,36
57,210,561,201,66,32,40,37
59,201,559,193,69,32,42,36
60,205,528,174,64,34,44,36
60,216,477,165,63,33,46,37
59,219,489,154,68,31,48,35
52,209,336,140,66,32,46,30
59,306,393,143,66,35,49,34
58,305,423,146,66,34,46,34
59,302,418,155,68,36,44,34
53,287,490,156,56,35,38,34
51,285,479,155,53,35,36,34
41,199,487,165,55,32,34,34
40,197,491,162,58,31,35,32
40,207,503,160,59,30,32,30
54,242,482,177,67,35,37,29
65,260,515,199,78,40,44,33
67,240,472,182,76,41,41,31
67,237,451,193,74,42,43,32
79,320,549,202,79,42,47,33
71,282,504,185,72,39,41,33
60,274,487,162,59,33,33,28
57,275,489,162,55,33,34,28
59,273,493,147,59,36,33,29
40,159,405,160,54,34,29,28
42,173,389,163,56,32,29,27
44,172,372,174,58,38,33,30
46,175,422,181,58,38,32,30
54,231,429,188,57,40,38,38
55,236,410,162,60,40,37,38
56,242,435,166,58,40,35,37
56,228,447,156,56,38,37,37
57,258,485,154,60,40,40,38
52,238,507,155,63,35,41,31
52,227,492,158,59,36,40,33
52,213,466,149,61,37,43,34
52,220,456,161,62,34,42,32
51,219,381,158,65,31,41,32
51,202,341,150,59,30,35,31
59,238,432,163,62,32,40,32
55,233,459,161,60,31,39,31
58,276,540,186,65,33,37,33
61,262,539,189,59,33,37,32
59,271,566,191,59,33,38,32
52,256,515,183,53,33,33,31
55,260,504,182,54,35,34,31
64,253,451,194,63,39,36,38
62,244,470,203,62,38,33,37
67,251,446,208,66,38,33,38
69,242,462,210,65,37,34,40
73,242,475,211,70,36,39,41
75,267,501,187,66,36,38,39
76,297,492,173,66,37,38,38
73,288,491,168,69,40,42,38
71,282,462,168,68,42,42,37
67,273,443,170,63,41,36,35
63,266,409,154,56,39,36,33
64,247,409,152,67,43,39,34
60,245,428,155,61,39,34,33
62,253,453,141,66,36,34,33
71,287,484,156,76,38,40,39
62,251,453,147,74,35,37,38
58,251,446,160,69,34,36,38
64,268,420,164,72,35,37,41
62,264,434,181,69,35,36,40
50,240,437,174,59,33,30,34
69,264,456,192,62,36,35,40
71,254,475,194,57,35,34,38
66,234,504,193,53,35,33,36
82,268,479,200,65,40,37,46
86,288,511,210,65,42,39,52
73,260,529,204,64,39,35,46
72,255,502,206,66,39,38,47
74,256,460,222,72,45,40,51
59,227,472,209,65,41,63,49
54,200,411,199,65,41,69,48
60,193,383,202,69,42,74,53
63,242,430,196,70,41,75,55
61,236,432,180,63,34,73,51
62,230,458,188,68,35,54,46
68,262,460,181,71,36,47,46
61,281,457,168,68,36,40,42
56,247,408,162,65,34,37,38
52,246,470,170,64,38,38,41
49,243,438,156,58,34,38,36
48,232,480,207,69,35,39,34
47,213,479,206,69,32,40,31
47,214,499,211,71,33,42,31
51,208,508,232,79,33,43,31
54,223,515,239,78,36,43,34
48,230,468,196,68,32,43,31
58,239,480,208,69,35,44,36
60,229,470,197,68,36,43,37
56,226,379,151,57,33,42,35
61,264,363,158,66,34,44,35
63,237,374,154,66,34,40,34
54,214,369,149,64,34,39,30
58,237,417,172,62,33,37,29
60,248,488,179,61,33,35,28
54,216,472,171,48,31,33,28
50,208,483,187,47,31,33,29
49,217,508,176,49,32,34,30
45,189,461,156,48,34,32,31
45,212,429,159,50,38,33,32
40,195,445,150,46,36,31,31
41,196,413,133,48,36,31,30
43,191,420,151,41,35,30,32
39,221,422,154,44,32,28,31
40,193,393,154,48,31,30,31
49,212,417,164,53,34,31,30
48,221,413,156,49,33,30,29
54,251,485,219,66,37,34,34
60,245,499,221,66,37,34,34
62,238,521,216,62,36,34,35
58,229,525,226,64,34,33,35
61,236,523,242,67,37,33,38
55,226,436,179,53,31,28,31
48,210,444,179,52,32,28,30
45,213,418,177,52,31,28,29
43,194,448,176,48,33,27,31
47,219,474,173,48,31,27,28
53,196,434,166,55,31,29,29
54,196,471,173,55,33,31,29
57,201,466,170,60,34,31,30
62,242,432,146,59,33,32,31
56,210,441,155,55,35,37,30
49,209,457,164,46,34,36,28
51,222,493,165,52,32,40,29
51,250,514,164,48,32,40,29
45,224,484,166,47,31,42,27
55,267,488,154,52,31,39,30
58,274,497,158,57,32,40,35
60,273,400,148,54,32,35,36
60,253,405,193,61,33,36,37
62,245,426,198,72,38,32,39
60,204,417,209,73,36,34,38
60,196,418,203,71,41,34,37
56,179,428,210,70,45,32,33
57,182,401,194,70,44,34,34
58,201,371,190,58,40,34,31
55,191,368,172,56,40,30,31
56,222,412,178,56,38,29,29
55,219,403,164,63,37,32,31
49,200,441,142,58,39,30,27
50,205,456,165,64,42,34,29
56,226,456,160,75,45,41,32
54,207,427,153,76,45,42,33
56,220,480,170,72,44,42,34
59,231,454,165,70,42,44,34
57,217,486,165,72,39,40,36
55,218,499,166,58,36,35,34
65,244,485,171,65,35,37,37
69,283,426,171,66,32,44,38
73,300,423,170,70,32,47,42
73,304,384,161,67,34,47,40
71,288,422,167,64,28,46,39
61,254,470,164,60,26,46,34
55,200,482,162,60,26,39,33
46,173,472,173,68,32,33,25
45,182,529,176,70,33,39,30
45,243,506,205,86,40,42,31
44,248,451,203,84,39,39,32
44,250,437,191,81,40,37,32
46,270,485,181,74,36,39,33
54,259,410,167,69,35,36,34
53,209,360,177,68,30,39,32
52,201,364,186,69,35,38,35
56,221,430,191,73,35,41,35
59,201,440,206,70,37,42,35
50,185,438,206,70,36,40,28
54,204,542,178,55,37,36,30
54,200,547,163,54,32,37,25
49,174,508,167,56,35,36,27
51,206,474,148,60,36,33,30
55,218,483,181,63,37,37,36
48,189,373,191,63,37,35,33
46,192,360,205,67,36,35,33
45,195,364,202,63,37,34,47
44,173,363,220,62,35,32,52
41,173,352,198,57,33,27,54
44,190,363,178,58,30,30,55
46,193,374,178,59,33,32,56
46,191,349,188,66,35,37,45
43,199,364,173,66,33,38,37
46,195,364,174,66,34,39,32
42,177,343,172,63,35,36,30
49,253,403,160,63,35,41,34
46,247,440,154,55,30,37,35
46,230,426,160,58,30,38,34
76,288,468,242,95,41,43,42
78,291,465,255,95,40,42,41
78,253,412,257,93,40,36,38
83,265,405,251,96,42,36,39
81,262,387,245,92,42,37,38
55,200,324,177,58,33,30,30
61,223,355,167,60,34,33,35
72,259,472,217,81,38,43,37
74,264,443,221,83,38,48,37
75,267,470,237,89,41,48,37
77,293,502,239,87,40,50,37
73,277,517,231,86,43,48,35
56,221,399,182,69,39,40,33
53,215,440,187,69,42,36,32
52,202,421,197,64,39,34,33
45,157,380,282,80,40,33,32
44,207,361,378,99,38,34,31
45,207,373,410,111,41,36,30
38,193,337,418,109,36,34,29
38,204,341,406,109,37,36,27
37,206,347,349,100,35,37,25
43,202,358,249,82,35,39,26
42,206,382,223,62,30,37,28
42,217,378,230,68,30,39,31
42,220,385,232,67,29,38,33
44,233,441,281,76,35,40,32
38,194,435,284,74,36,38,32
39,185,440,259,73,36,38,31
40,173,446,249,66,36,36,28
46,175,464,289,67,39,36,30
43,149,460,288,65,37,33,31
47,154,445,323,65,35,32,33
46,150,410,357,71,36,33,32
55,157,441,352,74,33,37,34
56,165,421,356,78,30,34,32
58,171,385,316,70,30,35,33
53,179,405,299,73,30,36,31
59,186,456,267,72,33,37,33
50,188,476,282,81,39,37,33
43,176,465,266,87,40,38,31
43,196,469,279,91,41,36,29
47,196,459,250,87,42,36,29
43,196,441,268,97,42,37,29
42,187,406,301,97,39,35,27
42,188,437,280,92,38,35,27
43,178,454,278,90,34,36,32
44,174,490,301,91,35,37,32
43,167,464,292,82,41,38,32
43,191,461,263,75,40,36,32
43,193,426,262,82,40,37,33
40,172,398,240,80,42,38,31
36,160,339,256,82,40,43,30
40,170,408,250,77,34,40,30
49,175,416,219,73,35,43,35
49,161,400,223,59,35,41,35
55,163,403,232,62,33,40,35
54,179,405,207,55,33,33,35
53,179,346,188,54,30,33,33
46,157,404,191,56,32,26,28
48,181,461,199,59,31,29,27
44,204,458,210,60,31,27,26
42,193,493,185,62,34,29,24
42,212,491,203,69,38,32,28
42,208,408,220,76,43,34,34
41,191,406,229,78,44,35,35
36,171,401,238,82,44,38,34
38,164,331,241,81,43,37,33
43,167,378,260,80,47,34,37
42,185,384,241,72,41,36,31
41,183,336,207,68,40,34,32
45,185,362,209,65,41,31,36
52,216,405,237,86,45,38,39
46,192,371,212,83,39,36,33
45,170,381,210,83,39,33,33
44,164,373,214,80,40,30,32
41,152,337,237,81,40,34,32
33,138,435,216,61,32,28,29
47,221,470,226,64,33,32,30
52,228,456,272,70,37,37,34
52,233,502,279,78,38,39,33
56,262,526,292,86,38,39,33
56,249,494,363,96,44,42,33
55,214,515,416,106,51,47,38
53,207,526,398,103,48,48,37
54,206,486,409,101,49,49,36
52,181,526,419,98,52,48,38
57,206,466,356,91,50,44,41
48,187,385,288,77,43,41,35
46,189,404,270,70,42,34,33
49,205,485,279,72,38,34,37
48,203,423,205,61,32,34,33
48,205,455,283,72,27,36,30
47,195,476,285,75,25,36,31
46,196,481,297,77,29,36,31
46,181,469,289,75,33,36,30
45,222,470,287,74,34,38,31
39,205,431,201,61,37,39,31
40,200,414,203,63,39,36,30
45,218,402,216,73,39,39,32
43,209,317,189,68,36,38,30
47,217,378,240,73,34,40,30
50,229,382,265,73,33,36,29
51,234,397,258,66,32,36,29
53,216,436,251,57,34,36,29
55,220,442,262,59,35,37,30
58,178,422,253,63,39,36,37
54,147,450,248,74,42,42,37
58,157,468,286,88,45,44,40
54,181,430,286,88,43,43,41
53,189,420,292,91,44,42,42
51,193,431,305,93,45,38,39
53,217,429,294,88,42,36,41
48,206,436,263,83,39,34,38
53,192,423,256,86,42,37,39
52,191,435,245,84,40,36,38
49,187,403,213,76,35,38,37
52,169,390,208,86,39,44,37
49,164,399,194,80,38,44,36
46,153,432,213,84,37,42,33
47,149,430,210,84,38,44,33
47,148,465,207,88,40,44,32
47,189,463,251,85,39,41,29
48,196,456,269,85,39,41,32
46,195,444,261,79,37,41,33
49,204,460,268,78,39,38,32
50,210,497,283,73,37,38,32
49,184,500,264,60,35,32,32
51,179,481,255,64,37,34,31
55,200,539,299,80,40,40,32
51,186,521,299,78,37,40,31
51,169,445,266,82,40,40,30
48,140,417,242,79,40,40,31
50,181,424,244,77,38,42,31
44,170,391,195,74,37,37,28
45,182,393,178,76,39,37,33
53,218,449,204,72,36,37,37
58,251,486,213,75,39,40,38
60,243,524,214,76,39,34,38
62,239,484,235,72,38,36,41
63,237,500,239,73,38,36,40
53,216,484,250,75,41,36,38
44,179,472,243,72,40,31,35
44,163,464,297,81,50,32,38
45,169,480,280,78,48,30,36
47,165,458,292,86,48,32,34
47,152,423,280,97,44,32,33
51,169,431,294,104,46,35,34
47,154,369,238,96,33,35,31
47,167,397,236,96,34,35,30
49,183,428,234,92,35,34,29
59,218,492,242,101,47,43,32
61,219,475,294,102,47,45,34
61,218,469,284,102,47,44,34
57,195,426,270,98,45,45,34
57,174,426,308,111,44,54,35
48,120,339,295,92,35,47,34
48,124,365,237,84,32,44,32
53,135,464,305,107,42,49,39
60,178,470,318,107,45,49,40
54,177,499,277,92,45,39,38
51,172,501,273,91,41,39,33
46,148,481,274,91,41,40,33
46,149,437,214,60,32,40,28
39,119,421,207,59,30,41,27
39,119,371,209,54,28,38,27
43,126,430,219,61,31,39,31
46,138,418,231,70,38,42,33
40,127,412,219,73,40,37,32
41,155,415,213,76,40,35,33
41,156,428,201,72,40,35,34
38,159,389,196,67,43,37,34
39,165,444,182,58,41,34,33
40,164,414,208,52,39,32,33
43,126,419,197,49,40,33,34
43,121,391,189,56,39,33,34
45,133,426,231,63,38,32,33
41,115,381,224,61,36,32,34
41,115,370,199,61,34,31,31
39,123,380,211,64,34,32,30
43,168,421,235,65,35,35,32
41,160,380,205,57,32,33,31
42,161,398,224,61,32,33,30
42,162,397,226,66,36,36,31
41,150,385,218,65,35,35,30
38,110,327,189,61,34,31,27
37,99,324,174,67,37,33,28
40,103,291,182,66,36,33,29
40,145,321,244,71,32,32,29
49,151,309,297,81,37,34,34
50,153,316,312,90,39,36,36
53,155,394,333,94,35,40,36
51,158,419,348,95,35,39,35
52,118,417,308,88,40,38,36
47,117,427,280,84,40,36,37
45,105,418,267,76,40,34,36
45,109,385,268,69,47,34,42
42,94,353,222,76,51,36,48
46,100,329,221,77,54,44,54
43,98,328,199,77,59,46,55
44,94,356,200,82,58,50,55
40,80,305,153,78,52,46,50
41,83,303,190,73,51,45,44
33,84,340,196,80,45,40,33
36,79,335,189,80,38,41,28
32,79,354,213,76,41,38,27
33,82,345,217,76,44,36,28
34,86,368,191,72,43,38,31
39,90,386,186,69,45,36,32
36,98,397,194,62,43,34,31
43,100,378,177,64,40,39,32
43,99,386,175,62,38,39,34
44,104,392,183,65,41,39,32
69,256,467,241,77,40,41,38
71,265,463,245,82,40,42,37
71,282,484,244,83,38,38,38
74,288,521,243,88,41,38,38
72,289,501,253,92,38,41,38
46,164,423,212,80,33,39,31
44,144,400,195,74,37,36,33
41,108,372,197,70,38,37,32
39,108,364,206,65,34,37,30
42,118,395,189,57,34,33,32
44,122,378,182,55,35,30,31
43,121,402,221,58,29,30,29
40,123,395,220,60,31,27,26
37,121,354,226,63,31,27,26
34,103,309,227,72,37,25,26
29,102,307,226,69,42,27,26
28,103,283,202,67,42,27,25
35,106,316,203,65,42,29,26
43,134,318,206,69,45,29,29
44,136,340,195,59,40,30,27
47,137,343,190,59,33,29,26
48,138,389,181,58,33,30,28
44,133,361,163,57,35,32,28
39,90,378,146,49,34,32,28
35,82,386,163,57,37,33,26
38,94,377,174,63,41,35,30
37,96,373,187,65,41,34,29
37,106,388,218,73,40,35,29
36,110,381,218,73,42,38,30
37,112,376,215,69,42,34,32
33,96,409,210,65,40,33,29
39,119,426,226,71,42,35,34
38,124,433,201,69,45,32,33
37,128,426,202,76,42,32,30
37,129,413,246,88,41,35,30
35,129,373,241,85,38,33,29
33,112,384,219,78,39,30,27
34,100,361,224,72,36,32,28
42,120,358,219,65,39,30,32
42,118,385,162,43,38,29,32
44,114,365,149,44,39,32,33
45,133,400,147,43,37,32,33
47,132,414,140,44,39,30,33
39,106,403,132,41,37,30,31
39,117,473,179,51,41,30,31
40,120,496,185,53,39,28,31
39,95,445,178,57,40,29,31
39,98,428,172,58,41,30,32
41,103,434,186,62,39,30,30
39,90,338,136,55,38,29,28
43,91,343,134,60,38,29,30
38,85,354,140,63,37,30,29
37,107,384,153,65,34,33,28
34,102,382,135,63,34,36,28
37,109,393,135,70,32,37,28
36,118,391,135,63,35,37,26
40,122,385,155,62,34,36,26
40,104,353,145,57,33,30,24
44,131,432,149,55,34,26,26
44,136,490,162,50,32,29,27
41,128,471,169,52,30,28,28
43,131,477,176,56,33,36,28
45,150,491,206,74,40,44,32
40,136,432,203,71,39,44,30
37,128,353,198,72,41,43,31
45,147,390,218,85,46,47,33
42,144,352,207,81,45,41,33
43,124,383,182,68,45,35,35
46,147,418,216,82,45,37,35
46,145,413,213,81,45,35,34
38,129,394,187,69,41,30,32
37,128,417,180,70,42,32,29
39,126,384,181,69,35,32,27
39,102,375,148,65,43,32,29
40,102,380,144,67,47,32,28
41,107,411,177,69,45,32,29
43,103,371,176,70,43,31,31
37,99,372,169,74,45,30,28
35,88,344,164,65,38,26,25
33,83,341,166,63,33,26,26
34,76,281,158,62,36,27,27
33,78,331,161,57,35,26,25
34,90,400,175,55,35,27,27
34,90,383,177,55,38,26,27
36,100,436,208,58,37,29,27
34,97,459,201,57,36,29,24
42,113,433,200,62,42,36,30
42,117,376,196,69,41,37,28
41,115,371,193,67,37,36,27
40,110,348,163,71,38,36,28
39,109,359,157,71,39,35,27
33,96,409,154,66,34,31,27
33,84,421,148,55,32,29,28
33,83,427,154,56,32,31,27
34,90,395,152,46,31,31,28
35,89,356,137,46,28,30,30
34,94,300,123,51,25,28,25
36,95,327,191,61,28,29,27
36,95,335,194,61,30,27,27
37,94,338,214,60,31,30,30
37,93,346,235,64,33,29,28
34,85,395,245,64,36,31,28
34,93,398,204,60,34,32,27
38,100,405,202,60,34,33,28
36,93,434,175,68,32,31,25
37,96,478,169,69,32,32,26
36,98,441,158,71,31,31,27
33,93,444,156,69,30,30,27
29,88,456,159,75,34,32,26
32,89,427,158,67,35,31,26
33,97,437,154,71,41,35,28
37,99,506,175,73,45,35,28
40,100,470,170,77,46,35,28
38,96,449,163,72,43,33,30
43,134,466,171,74,43,35,30
41,133,412,165,64,35,31,29
42,139,332,161,61,30,32,27
40,136,354,159,55,26,30,27
45,154,406,164,55,30,34,28
39,121,372,157,52,30,33,27
38,117,399,152,56,34,35,25
35,105,397,154,52,35,33,26
36,105,373,150,53,37,35,29
32,77,331,143,47,32,32,27
37,89,335,141,53,32,34,29
37,91,312,134,52,33,31,29
38,95,339,127,52,38,32,34
38,97,364,145,54,37,33,31
41,110,394,160,58,39,34,34
37,101,398,169,57,40,34,32
36,96,388,166,54,36,38,33
35,102,368,150,58,32,40,27
35,102,390,130,55,30,39,27
34,88,344,109,58,31,37,23
35,96,354,138,63,32,38,22
38,111,432,167,71,37,36,23
49,128,428,180,73,38,36,29
53,137,444,204,77,40,38,29
53,158,478,211,76,40,37,30
59,242,494,201,72,40,37,32
130,447,488,241,91,43,56,44
129,458,487,244,91,46,54,41
135,463,482,256,90,47,55,40
139,477,473,259,90,49,58,44
139,458,450,254,90,49,57,44
86,308,430,219,77,49,43,36
81,292,460,208,77,46,42,36
73,296,419,190,78,45,39,41
70,291,388,177,77,42,35,40
72,285,500,211,80,46,38,44
85,366,488,208,74,41,34,43
93,400,486,222,86,44,41,49
99,437,518,229,96,49,51,47
101,476,551,239,96,50,54,47
109,596,514,215,96,48,57,45
93,589,667,235,94,49,62,44
93,591,679,236,77,46,58,36
100,609,684,222,72,40,58,39
96,578,666,216,74,39,57,39
84,468,654,204,73,37,54,35
89,421,533,172,70,37,49,34
83,398,536,151,77,43,50,40
68,337,513,169,76,46,43,40
67,335,548,184,79,48,45,41
64,348,551,202,80,49,46,41
57,328,526,222,83,49,43,42
57,360,545,228,79,45,41,41
54,352,561,234,72,43,40,37
55,354,522,227,67,42,42,36
63,320,489,222,68,44,41,43
65,316,515,214,63,41,40,42
63,267,435,211,60,39,39,38
73,280,428,196,67,41,41,41
73,285,491,224,66,40,38,43
75,294,488,230,71,40,38,43
75,301,435,220,71,42,38,44
73,298,514,230,74,46,38,46
62,282,500,224,70,44,33,40
60,275,482,193,74,50,31,38
69,311,560,206,70,50,35,34
73,318,598,201,73,49,38,41
77,314,563,201,74,48,41,41
77,318,582,208,73,46,45,44
76,303,553,218,72,43,43,48
63,284,506,199,73,44,40,48
59,275,509,211,81,47,47,57
67,358,512,218,87,48,52,61
73,359,508,230,89,52,51,65
76,385,533,246,89,49,53,62
103,438,581,269,98,47,54,78
108,440,593,278,98,44,53,72
103,380,583,279,92,40,49,68
109,423,554,274,96,36,51,64
111,415,576,260,93,39,49,65
86,343,509,235,78,37,48,47
78,364,533,210,69,37,44,41
88,394,571,201,76,40,41,43
78,342,564,180,67,40,38,50
88,372,609,207,89,42,48,63
96,424,667,211,98,45,51,66
99,404,627,216,95,43,49,67
93,400,651,225,91,47,53,69
93,398,660,236,91,46,52,63
95,383,607,223,96,53,56,59
92,337,544,223,93,53,56,61
97,362,535,263,99,56,56,61
94,348,457,258,103,56,59,62
107,445,512,271,112,59,63,65
109,444,514,276,107,56,64,65
121,508,567,317,123,62,64,66
117,487,571,305,124,61,65,65
115,485,613,313,123,58,58,62
105,414,569,291,114,53,57,59
102,443,589,280,105,50,48,57
80,359,571,249,83,40,43,46
75,373,585,228,76,38,40,45
76,401,542,217,73,38,42,44
74,384,550,224,74,41,40,44
57,327,531,226,70,39,41,34
65,354,492,203,70,38,42,37
70,356,472,201,66,37,41,40
75,350,492,190,72,39,43,40
78,357,483,183,72,36,44,40
87,383,463,175,70,35,40,40
89,390,513,170,68,35,40,40
97,377,503,162,77,39,48,44
100,392,500,160,80,38,51,44
100,402,571,186,84,39,50,45
93,410,599,174,85,37,53,45
88,417,572,183,86,37,55,41
74,407,571,173,80,33,49,33
62,369,550,173,67,31,42,33
59,411,495,151,63,30,43,31
65,414,516,194,56,34,39,29
64,406,495,197,60,35,38,29
63,410,471,195,56,35,38,29
62,420,504,197,61,38,36,29
58,361,480,213,57,38,37,30
52,316,409,174,56,33,34,29
47,268,410,162,48,36,29,26
50,250,461,177,58,37,32,31
56,243,482,201,62,36,37,32
64,257,542,185,60,35,34,34
73,328,565,216,70,41,41,40
72,315,552,217,68,40,42,41
73,355,550,217,60,38,40,39
69,344,567,227,60,38,36,37
68,341,507,222,64,42,36,39
69,373,516,187,58,40,35,35
72,384,570,189,61,35,36,35
73,365,570,184,63,39,37,40
74,401,553,149,61,37,40,40
74,398,572,151,62,34,45,40
66,351,552,170,62,38,43,40
67,365,514,172,67,39,44,41
64,357,482,169,68,38,41,37
62,299,446,157,66,37,40,38
55,288,415,167,63,36,35,37
50,259,413,155,59,32,33,34
50,263,463,155,58,35,36,37
48,266,464,156,55,36,43,36
52,299,469,167,55,36,44,33
62,316,555,174,62,36,46,30
62,318,601,193,62,38,48,32
65,313,563,194,64,36,48,31
70,344,576,222,72,36,44,31
74,377,569,234,77,36,44,34
76,429,586,239,80,38,48,38
76,419,614,231,80,36,47,38
79,442,625,230,73,36,46,39
76,415,625,198,68,36,48,38
76,391,624,199,75,37,49,38
70,311,535,199,75,39,46,36
71,308,429,191,78,40,51,37
63,260,461,197,86,40,56,35
69,320,438,201,85,40,59,35
65,293,486,193,78,37,60,35
62,297,503,177,75,38,58,34
62,305,535,197,72,36,54,31
73,301,509,198,73,44,50,34
68,240,511,198,72,44,42,35
73,286,507,188,75,45,40,36
80,328,536,219,73,42,39,35
86,351,494,219,82,44,43,41
81,358,474,217,79,37,40,40
83,371,492,223,85,39,45,38
79,373,467,216,80,36,46,38
79,342,496,199,83,40,49,42
81,347,537,187,78,41,50,39
77,324,539,181,77,42,52,38
82,342,610,175,79,42,53,42
86,336,589,182,81,43,54,42
82,344,545,162,75,41,53,40
75,300,602,158,78,39,49,38
87,356,643,196,86,40,48,41
85,345,606,240,87,42,48,41
81,315,637,258,90,43,46,42
79,346,655,265,95,45,47,43
91,391,625,302,94,49,45,46
79,353,599,282,85,47,44,42
75,347,573,241,78,44,45,38
76,342,541,224,77,42,44,38
74,299,498,211,69,40,45,35
73,332,522,157,62,36,44,32
71,326,517,148,65,38,43,32
74,357,514,179,63,40,38,37
91,418,552,211,70,45,45,46
98,457,555,211,73,47,46,50
94,413,541,217,81,45,53,53
96,437,542,224,82,43,53,54
105,456,575,227,89,43,60,53
87,425,595,225,87,38,55,43
79,394,614,231,86,35,53,39
78,427,605,251,95,43,51,38
79,420,580,246,93,43,51,38
61,356,530,232,86,40,43,33
71,376,500,251,85,44,46,39
76,387,475,256,81,45,45,44
71,400,439,243,66,37,38,37
81,428,480,247,66,37,39,39
86,448,468,240,66,38,38,41
84,429,425,194,60,33,38,39
88,478,459,193,66,32,38,37
86,425,445,179,66,33,42,39
78,394,489,174,68,33,41,36
80,429,567,173,73,36,47,37
83,433,614,183,84,40,51,38
83,358,630,195,87,42,54,38
87,376,634,199,86,43,51,40
89,356,621,210,82,46,52,42
100,352,625,215,88,43,57,45
94,338,590,202,85,39,53,44
90,353,571,177,77,38,49,44
86,344,578,176,77,39,50,41
86,360,581,172,79,38,50,42
69,306,568,185,70,42,40,37
69,298,572,192,66,43,40,36
73,300,583,202,69,44,45,35
73,316,580,207,65,41,41,36
69,317,558,212,67,39,40,32
71,324,517,198,75,40,45,35
73,337,533,193,70,40,44,34
78,343,547,218,84,41,45,40
79,314,534,217,92,41,49,39
82,305,580,214,96,44,49,40
85,339,658,251,94,39,44,39
84,345,667,260,97,40,48,39
77,330,651,258,93,41,50,35
87,401,706,286,104,49,54,39
87,412,665,277,98,49,54,39
87,395,614,254,94,49,57,38
93,385,571,249,101,51,57,41
99,388,560,235,101,50,57,45
91,328,494,215,88,44,53,42
90,325,469,222,87,43,52,42
87,304,416,225,89,45,51,42
83,313,440,223,86,43,50,42
70,309,395,219,80,42,41,37
72,307,411,215,79,42,42,39
83,342,475,263,89,44,44,41
85,348,506,257,87,42,44,46
80,357,569,264,86,46,48,45
81,363,578,258,85,46,48,44
85,395,623,328,93,52,46,45
71,354,618,296,85,49,42,45
65,336,597,289,80,49,40,41
65,342,558,313,73,46,34,39
73,401,557,315,76,44,38,41
70,391,485,225,65,39,42,42
75,404,438,207,65,41,43,41
80,424,436,207,67,42,42,39
83,439,473,176,81,42,47,43
78,375,499,169,81,43,46,42
72,344,492,163,73,38,41,35
73,333,505,194,77,41,42,38
70,341,519,197,81,40,41,38
73,300,510,184,72,40,37,39
69,303,513,176,69,40,37,38
72,307,492,172,67,41,36,40
73,339,464,166,72,46,40,43
70,313,456,165,67,46,42,45
63,304,414,158,65,46,43,41
75,324,434,186,74,46,42,47
74,334,482,201,82,45,44,44
72,305,527,192,79,38,43,40
79,316,557,208,81,39,43,39
77,320,545,241,82,38,40,40
67,304,556,229,81,39,50,38
64,322,532,223,74,40,51,38
68,324,471,222,77,39,54,39
66,349,421,226,87,40,54,38
72,353,513,273,95,40,58,39
73,352,465,270,93,40,53,36
73,324,507,267,96,41,51,36
70,319,562,284,94,43,51,39
73,296,580,266,91,44,50,41
73,296,505,192,80,45,43,39
72,295,538,191,77,41,43,39
74,285,512,191,76,41,43,39
69,303,508,163,74,40,40,34
61,293,521,193,69,38,41,34
62,305,537,183,70,36,50,34
61,298,509,179,73,38,51,33
78,372,552,200,81,40,64,39
77,343,516,189,78,38,63,38
82,349,484,157,73,38,62,41
83,328,456,157,80,42,60,44
84,342,469,172,80,42,58,44
67,258,436,150,78,42,46,40
67,273,471,165,79,41,44,41
78,289,493,212,88,44,45,39
72,299,545,215,79,39,39,35
74,296,539,229,82,40,39,39
76,321,524,225,72,38,34,38
79,347,526,228,77,39,38,39
60,318,529,191,67,33,32,35
66,333,560,194,68,32,35,36
70,343,565,192,71,34,36,35
69,320,548,231,87,36,38,37
65,280,525,215,81,36,35,35
66,278,513,233,86,41,39,38
64,295,489,242,87,44,38,39
65,289,507,234,87,45,40,44
62,304,539,195,72,43,39,41
67,325,541,218,84,47,43,42
67,351,571,217,78,43,41,42
64,327,551,192,72,40,41,39
53,314,520,188,71,38,39,35
61,330,509,197,74,38,39,37
62,331,532,194,63,33,37,39
64,318,493,170,65,37,38,39
74,344,444,179,67,36,40,39
80,353,498,203,64,34,39,35
76,327,482,197,60,34,38,36
74,351,501,194,65,35,42,31
81,350,556,224,73,31,47,34
73,310,576,226,73,33,46,33
70,288,591,203,70,33,45,33
68,314,633,221,80,38,50,33
68,302,609,217,77,39,47,34
57,274,576,198,67,39,40,29
52,274,612,212,68,38,39,31
59,309,560,203,67,38,40,34
64,309,544,203,56,34,36,33
61,284,563,192,51,32,36,33
67,298,558,191,60,35,39,34
70,350,561,169,55,35,41,33
62,315,567,185,56,34,39,32
57,296,561,159,59,32,39,32
62,315,556,172,67,33,39,33
62,325,552,174,60,32,38,33
55,255,474,168,62,35,35,31
58,288,462,155,62,38,40,30
61,291,439,163,60,42,40,34
59,286,444,156,52,39,38,31
58,280,465,186,52,39,41,31
59,289,483,188,51,36,40,32
60,297,517,199,61,38,43,34
58,281,550,200,66,35,43,35
57,264,535,200,65,36,43,36
53,278,521,166,67,35,46,37
53,275,569,173,69,36,48,37
54,261,557,170,61,28,42,33
57,280,536,163,61,33,46,31
54,264,507,158,62,33,45,31
54,232,479,148,63,36,38,31
61,245,497,142,61,36,36,33
59,236,512,212,65,39,35,35
57,236,510,215,62,35,32,36
64,250,522,216,64,37,35,36
66,333,555,234,64,38,36,38
64,339,513,235,70,36,48,38
61,341,472,161,66,35,47,38
65,358,510,186,71,40,46,38
62,352,516,189,70,37,45,37
59,338,531,174,67,34,44,33
60,349,511,178,59,34,32,31
62,351,512,180,55,32,32,31
57,321,480,146,49,28,33,28
62,347,454,161,51,35,35,30
64,300,419,159,53,36,34,32
59,269,452,156,53,37,37,34
59,269,493,164,58,39,36,35
60,278,494,186,77,41,45,38
53,258,545,181,75,38,43,35
60,275,566,178,82,42,52,39
60,284,524,166,82,40,50,36
58,278,478,158,80,39,52,36
56,277,482,131,60,35,45,34
59,297,475,131,59,36,47,35
59,308,482,186,74,34,46,33
60,325,476,192,79,37,46,33
78,397,535,216,83,39,47,38
77,393,525,214,82,39,46,38
76,387,502,203,87,39,46,39
75,357,441,158,69,37,39,41
73,332,446,155,64,39,38,43
53,236,410,127,58,37,34,39
56,277,388,132,63,41,36,40
61,270,482,165,72,46,37,42
72,357,508,217,95,49,49,39
78,367,498,231,103,49,52,40
85,428,544,232,103,50,53,38
89,405,541,230,107,48,56,38
85,403,448,209,97,44,54,36
99,461,555,217,88,47,62,43
108,479,566,225,98,50,74,48
105,457,514,239,102,48,75,49
105,483,536,244,98,49,72,50
103,472,517,246,100,49,72,49
75,337,476,201,92,43,59,43
57,300,509,185,75,38,41,35
58,261,515,168,74,37,45,34
52,200,506,165,72,37,46,33
68,253,593,182,88,42,57,39
67,266,539,178,83,40,58,36
71,282,506,183,85,43,61,39
67,256,470,174,79,42,54,39
76,286,515,203,88,43,57,44
69,275,473,186,74,40,51,39
74,274,463,186,74,43,48,42
72,262,495,177,68,38,43,40
88,452,595,214,81,45,50,46
83,471,579,198,79,43,54,41
80,467,541,207,77,43,53,42
80,484,572,213,82,42,54,39
79,492,567,209,84,43,55,39
77,398,525,222,90,42,64,39
76,387,504,216,88,41,62,38
86,421,506,228,89,39,64,38
92,419,530,236,92,40,66,43
111,488,569,240,101,46,71,49
105,470,624,257,96,42,61,45
104,459,624,257,96,44,60,45
99,453,646,245,94,43,56,45
105,491,645,265,95,46,53,45
94,431,613,308,112,48,57,46
92,424,555,267,104,47,56,44
95,425,580,268,103,46,53,45
95,406,558,271,106,52,54,47
81,347,560,261,108,50,51,43
75,331,538,215,87,42,41,34
76,317,502,206,88,40,40,35
74,298,468,204,88,40,39,37
68,271,454,200,83,34,39,35
71,267,387,190,73,33,43,38
65,278,420,188,65,34,39,38
58,267,417,192,64,41,39,37
55,269,429,195,67,40,41,33
58,272,499,193,69,40,43,35
51,306,565,208,69,38,39,32
50,316,558,209,71,35,38,30
52,320,601,232,69,31,38,30
60,343,570,229,72,34,38,33
59,350,560,245,74,38,34,32
58,326,482,209,72,39,34,30
60,322,459,202,73,42,36,34
68,344,382,169,77,42,41,36
69,354,451,171,75,41,43,39
67,344,402,142,71,37,43,37
68,346,480,154,69,36,44,38
69,331,500,158,64,33,43,35
61,303,521,171,59,30,39,33
57,270,468,159,49,31,36,30
56,268,488,162,46,31,35,30
60,254,405,189,57,34,37,31
66,268,393,188,65,37,38,36
70,290,360,178,65,40,40,36
65,276,379,179,67,40,40,33
72,299,336,176,68,39,42,39
66,294,401,145,59,35,40,36
67,348,412,150,65,37,40,33
65,338,440,154,70,38,40,34
80,394,473,202,87,43,45,42
75,381,477,213,90,42,43,38
83,412,490,213,91,43,44,42
79,365,508,206,84,42,46,42
73,339,505,207,79,37,43,40
62,311,493,168,73,36,40,35
67,333,522,162,72,37,40,34
60,338,489,157,71,37,41,28
61,336,443,173,76,36,39,29
64,349,462,166,77,37,40,30
66,365,416,162,65,34,35,27
63,356,437,164,63,32,35,28
60,315,414,166,64,31,39,32
60,363,455,176,70,32,40,30
57,358,425,177,65,31,39,31
53,329,480,214,71,34,44,32
55,316,454,204,69,36,44,34
58,350,469,203,67,37,39,31
58,305,430,177,55,35,37,31
64,319,501,182,64,36,37,33
70,354,474,135,62,39,37,36
67,369,515,142,62,37,37,34
63,335,509,146,61,37,38,35
66,341,553,154,62,38,39,36
64,343,497,155,59,38,42,35
57,306,481,150,57,34,38,30
54,276,443,146,57,32,41,30
60,314,473,162,63,33,44,32
57,313,427,164,70,34,46,32
54,297,418,156,69,36,43,29
57,289,528,172,73,35,49,34
62,342,531,190,75,39,47,37
67,352,552,191,78,40,48,40
65,327,538,178,68,37,45,38
69,322,573,195,73,36,49,40
66,336,546,255,81,38,48,38
64,308,527,242,81,37,48,34
52,251,494,230,79,39,47,29
53,254,551,236,79,41,47,29
49,290,531,232,75,41,46,27
50,274,516,156,60,38,42,27
47,267,510,165,60,38,40,28
49,313,528,161,57,34,35,28
53,313,472,152,64,32,38,29
51,274,472,138,62,31,39,33
53,277,440,136,64,33,37,33
61,289,468,149,69,33,42,34
59,245,429,155,68,34,41,32
56,246,491,158,61,36,39,35
57,277,549,175,66,37,36,31
61,289,522,168,64,37,36,33
51,263,501,140,57,36,32,31
49,250,513,140,60,41,33,32
60,312,541,167,68,41,36,33
66,303,465,152,67,41,37,35
58,270,480,168,70,39,36,33
61,271,505,179,73,41,36,33
63,278,495,173,77,38,36,33
53,208,462,152,69,37,33,28
52,218,515,160,66,37,33,28
51,220,546,163,63,39,39,30
54,234,510,157,59,37,40,29
54,237,496,159,55,36,44,32
54,238,520,165,56,38,42,36
54,255,485,181,66,41,44,37
68,309,461,186,71,45,41,37
65,302,527,186,72,45,42,38
67,315,563,198,73,47,40,37
66,317,556,195,74,43,44,32
61,317,591,178,65,43,41,31
53,281,578,156,64,39,45,31
56,302,576,158,64,39,45,31
62,304,628,152,61,41,49,35
67,310,573,149,66,42,48,36
65,268,534,155,66,38,47,35
60,249,558,157,64,39,42,34
60,234,568,153,61,37,44,34
50,217,492,157,56,31,36,28
48,200,531,164,53,32,38,30
48,214,503,164,62,33,42,31
55,265,499,175,69,33,46,31
54,282,506,184,76,37,43,29
61,317,514,185,78,37,46,31
63,341,478,174,76,36,42,30
64,347,511,174,71,36,39,29
60,317,480,190,65,32,35,29
56,276,434,189,60,33,36,30
53,269,407,198,60,34,33,30
55,255,441,226,65,36,34,33
64,263,448,226,69,44,42,38
65,262,463,214,72,48,42,41
73,302,446,211,69,45,43,41
77,277,444,190,80,46,47,39
85,286,420,172,84,49,53,47
79,275,443,160,77,42,47,44
81,288,516,152,72,37,52,41
79,275,499,155,78,37,52,41
75,282,497,159,68,40,53,42
61,272,494,141,58,33,47,28
67,269,479,150,61,37,48,31
66,272,451,147,62,37,41,29
65,302,516,160,60,37,42,30
59,279,507,153,58,33,35,28
60,270,552,168,59,34,38,30
55,270,521,163,55,27,35,29
56,254,499,171,58,29,39,32
58,231,486,176,65,32,40,34
66,264,511,197,64,31,41,36
67,271,459,195,68,36,39,36
75,296,451,208,79,37,43,37
74,322,408,199,74,37,38,35
77,335,365,194,74,42,37,34
76,341,342,175,82,45,42,33
73,346,347,176,78,42,43,31
66,333,369,176,72,43,42,29
65,311,414,186,73,44,45,30
58,272,421,175,65,39,43,28
53,247,439,188,56,35,38,27
56,235,426,177,59,35,37,28
57,218,450,197,64,38,37,30
52,215,424,184,63,36,33,29
54,218,434,181,65,41,35,32
56,219,436,167,64,44,40,34
55,213,496,167,62,45,39,34
62,259,484,122,52,46,37,32
67,280,525,193,56,47,44,33
62,278,510,189,55,43,41,30
68,313,509,209,58,41,38,32
65,309,451,210,59,39,36,31
59,285,458,207,60,34,39,31
61,283,446,155,64,34,39,36
64,313,432,155,62,32,39,33
57,297,420,141,63,30,39,30
59,302,451,143,66,31,40,32
57,302,410,157,67,33,41,33
52,298,407,156,56,33,39,29
55,310,440,169,54,31,41,29
54,296,429,166,54,34,42,31
57,308,395,162,50,34,42,30
58,294,428,173,54,36,41,30
56,275,388,207,63,35,37,28
52,214,354,195,65,36,34,30
53,229,373,214,64,35,33,30
48,213,371,220,64,35,35,31
50,240,351,208,60,32,35,31
50,246,437,185,60,36,36,32
52,284,444,194,63,38,39,33
60,279,434,168,63,38,39,37
60,272,439,162,62,39,37,37
53,253,420,156,60,40,37,35
52,248,332,141,53,36,37,37
49,213,321,127,45,32,33,33
43,199,399,144,52,33,43,29
46,205,418,143,55,33,44,28
50,227,431,168,61,34,44,32
50,220,451,170,65,36,42,31
54,258,524,179,72,38,44,34
49,262,443,161,65,36,34,35
59,263,499,192,70,37,37,38
58,250,584,178,66,35,38,36
60,253,581,184,67,35,41,35
70,235,543,194,66,34,41,36
73,277,615,211,72,37,41,35
66,274,558,188,66,35,38,33
65,278,474,192,68,35,34,32
65,287,471,193,67,38,36,34
48,265,456,180,60,36,35,31
44,209,394,175,55,33,33,29
44,218,440,199,55,34,33,28
54,291,462,191,58,37,42,34
59,301,445,193,58,39,40,36
60,302,435,192,61,40,40,37
62,303,434,195,60,39,43,37
62,305,390,172,61,39,43,38
52,232,376,181,63,38,36,34
48,230,387,181,62,34,35,29
54,248,392,192,69,37,38,34
56,273,392,180,69,38,37,35
54,265,408,174,66,38,36,33
53,257,393,179,67,39,38,33
49,248,429,180,69,40,37,32
47,248,463,170,59,37,34,27
41,214,425,165,61,37,33,28
42,213,411,179,65,40,38,29
41,205,418,159,56,36,35,27
42,211,376,137,49,34,36,26
41,217,498,147,53,36,34,28
47,255,550,157,52,35,34,27
46,260,576,157,48,32,29,25
50,269,599,165,57,35,28,27
51,281,588,173,62,35,29,30
53,273,481,171,65,34,30,31
48,262,455,165,65,38,33,32
51,266,434,159,65,36,33,31
50,272,391,157,64,35,38,32
48,248,436,159,64,37,38,30
49,250,447,170,64,36,39,29
51,238,422,175,64,34,35,29
53,238,431,169,67,37,35,31
52,225,438,171,66,36,33,30
53,228,416,169,68,34,35,30
50,229,367,147,66,34,33,28
50,235,424,148,64,31,33,27
50,235,420,159,68,33,35,28
49,250,428,154,64,33,34,29
51,250,429,153,59,33,34,30
50,228,408,151,57,33,34,28
45,203,356,147,57,32,35,30
43,211,414,149,51,30,33,29
43,202,409,147,53,34,36,29
44,193,396,142,50,35,33,29
47,196,440,153,57,38,37,32
53,217,446,154,60,41,38,31
50,207,368,136,61,41,39,32
47,193,338,140,61,37,36,31
45,195,367,142,62,38,39,30
41,218,468,130,57,38,36,30
34,209,454,132,55,37,32,29
41,221,468,134,58,37,33,29
45,226,510,137,60,37,34,29
54,246,493,143,64,38,33,35
54,224,369,141,64,35,32,34
53,212,381,135,66,35,33,34
47,217,370,138,65,35,30,32
46,233,352,134,61,33,32,32
50,229,403,136,62,33,35,29
56,239,432,136,58,32,35,28
58,245,423,143,54,29,36,28
62,242,449,142,52,27,36,30
64,223,429,141,52,29,34,29
57,212,461,173,52,32,36,30
55,226,446,171,53,31,36,29
55,225,445,166,54,33,37,31
66,217,426,197,66,42,40,37
66,228,418,200,68,43,40,37
80,330,336,193,71,40,38,40
80,337,337,198,72,40,38,40
79,343,410,201,74,41,39,39
74,345,420,173,62,30,37,33
75,355,429,168,60,33,39,34
61,272,410,140,54,34,36,33
63,268,447,153,59,35,37,35
67,275,420,157,60,37,35,37
62,257,429,160,58,37,32,38
56,240,450,158,56,33,30,36
52,228,484,150,54,31,34,33
65,354,549,175,56,34,39,33
61,347,529,168,51,29,38,28
61,350,500,162,51,30,39,26
63,350,483,164,57,31,41,26
65,367,502,206,59,36,40,29
54,245,392,172,56,36,39,28
51,247,389,167,56,36,39,30
52,276,399,164,58,37,41,32
56,274,404,167,53,37,39,32
51,242,371,120,52,32,38,30
48,222,367,120,45,28,32,31
46,216,408,122,44,27,35,33
45,169,397,119,39,24,33,31
36,147,384,115,38,25,37,32
53,250,409,105,42,29,39,34
53,252,405,100,41,27,38,33
54,252,414,95,40,29,36,32
55,260,454,114,42,30,35,36
58,262,472,109,46,31,33,39
42,174,426,109,40,28,31,35
44,213,460,119,44,29,32,34
45,228,435,121,43,29,31,33
46,226,461,116,42,31,35,31
44,241,445,114,37,31,34,25
47,268,456,112,38,30,30,26
42,239,486,120,32,28,29,24
51,232,487,144,44,33,30,32
57,246,451,161,52,34,34,33
60,246,460,170,52,34,36,36
57,228,470,173,52,34,37,36
60,222,394,163,58,36,41,38
56,213,393,155,55,31,43,33
50,196,398,152,54,35,40,32
47,190,402,145,57,33,40,29
52,198,376,143,59,34,43,29
52,202,378,152,55,32,39,26
49,229,458,152,51,32,36,24
49,247,446,135,50,26,33,25
52,252,448,140,45,27,32,27
51,259,443,139,47,25,28,26
49,247,444,134,47,31,34,31
64,259,337,120,51,34,42,35
63,249,368,110,46,34,44,35
63,254,332,102,48,33,44,36
61,240,362,113,53,34,47,36
75,348,401,140,61,34,47,34
69,337,395,142,61,34,42,32
77,377,417,169,71,38,45,34
77,373,422,167,71,37,45,33
82,396,427,168,70,41,42,38
67,303,372,138,63,37,39,37
65,307,373,135,62,38,36,37
57,272,338,148,56,34,32,34
62,293,423,168,60,36,33,36
62,272,493,180,66,38,41,39
63,286,499,188,65,38,40,38
62,285,508,184,64,37,39,38
72,326,538,163,67,38,42,41
68,308,482,169,71,39,44,41
63,302,416,150,62,31,38,32
66,336,458,154,66,33,39,39
65,338,452,159,68,32,40,39
54,311,391,158,65,31,40,38
53,300,441,134,55,28,38,35
62,316,456,158,61,33,38,38
59,270,427,152,58,34,37,33
57,257,444,160,58,36,38,34
60,259,432,161,60,36,33,38
65,288,411,173,66,40,33,40
55,264,388,154,59,36,30,37
58,303,428,157,59,33,30,36
58,300,422,146,55,30,24,34
57,273,424,141,54,32,27,28
54,242,436,128,52,29,31,29
61,241,414,132,52,30,33,30
65,194,353,134,55,32,35,36
70,222,412,136,54,34,37,37
75,219,413,165,62,35,39,39
74,236,399,171,57,33,35,37
72,236,434,163,57,32,37,38
73,288,468,164,57,32,39,35
66,269,414,158,57,31,39,35
62,281,513,165,48,27,37,34
72,291,505,162,56,31,36,41
70,286,473,168,57,32,34,40
63,245,444,166,52,33,33,39
64,246,455,176,54,31,32,39
58,224,415,138,50,32,35,37
45,199,386,126,43,29,36,28
47,229,445,149,51,28,40,28
49,207,445,155,55,29,38,26
49,195,452,159,55,30,41,26
53,215,443,179,58,32,37,36
56,221,471,200,60,35,38,37
62,259,502,205,61,39,33,43
59,274,522,197,59,38,32,43
69,302,508,196,62,41,30,44
70,299,465,210,66,42,30,39
69,310,464,196,65,40,30,41
65,281,437,171,60,36,30,36
67,277,417,170,59,36,32,37
59,274,433,159,58,38,33,37
56,275,443,122,51,34,33,34
59,275,455,128,48,35,33,31
69,277,429,143,48,40,32,34
74,287,425,144,48,41,33,41
72,282,411,161,49,37,34,40
76,281,424,164,48,37,32,41
75,292,378,168,51,37,32,40
65,272,344,155,50,30,35,37
70,301,386,167,59,31,35,32
71,292,415,156,59,30,33,29
67,322,412,149,60,29,33,28
67,297,458,167,59,31,33,28
77,354,626,237,75,41,35,33
79,347,655,263,81,43,38,35
79,345,633,265,81,44,36,36
81,323,636,278,85,47,38,41
95,383,663,284,91,45,43,43
87,338,539,243,79,38,39,38
83,361,540,222,69,36,38,36
99,435,634,247,74,35,42,38
115,509,666,257,87,39,45,46
112,490,650,250,87,47,41,51
113,491,625,232,87,46,43,52
108,459,564,223,85,44,41,50
94,393,493,192,80,44,37,48
75,298,490,168,74,41,40,40
67,279,464,147,69,35,39,35
66,273,457,152,70,36,39,37
70,293,487,160,72,38,42,37
70,285,450,165,69,37,43,38
68,276,384,156,54,36,35,36
69,310,373,152,56,37,38,33
69,309,401,154,54,37,34,29
65,311,377,140,52,34,32,29
64,305,353,126,57,37,34,30
91,374,461,157,67,40,36,38
85,341,476,151,60,36,33,39
87,352,492,142,60,34,37,41
87,338,530,144,60,34,37,43
88,340,551,142,57,31,36,42
73,312,510,118,54,27,37,39
73,298,529,124,59,27,40,39
70,287,528,146,66,28,38,36
69,275,524,153,66,27,36,34
65,267,500,157,66,26,36,34
48,198,504,164,63,29,32,35
49,220,480,162,62,29,29,35
51,215,482,147,56,30,30,39
50,215,485,148,54,29,29,38
57,238,498,159,57,31,30,41
55,258,432,143,53,26,30,36
54,246,405,146,48,27,30,35
58,285,400,157,48,29,33,32
62,296,375,147,48,31,34,32
59,295,364,141,49,31,33,31
59,281,383,172,50,31,33,32
65,306,419,204,57,36,33,37
60,265,417,197,57,35,31,36
59,258,407,199,59,35,34,37
61,241,411,198,57,36,34,35
59,220,414,174,55,38,34,34
55,196,458,154,58,36,37,31
54,193,425,156,55,36,34,30
52,178,416,153,55,36,31,30
51,211,443,164,55,36,32,31
57,239,422,167,57,35,34,38
55,223,337,145,53,31,32,35
60,253,348,162,54,34,34,38
63,267,339,157,50,32,36,36
62,256,320,137,47,33,36,36
59,245,332,153,45,35,36,29
61,307,382,188,39,35,35,35
64,295,417,174,47,34,39,34
61,283,441,190,52,34,39,36
61,282,520,218,55,36,37,35
71,350,597,223,62,33,43,38
71,311,574,193,63,33,43,37
67,313,562,191,57,29,40,35
71,341,552,177,58,31,41,35
69,334,468,142,55,29,42,35
61,273,381,118,49,31,37,32
62,267,359,118,45,32,35,29
58,255,368,130,49,34,34,37
53,223,366,138,45,35,33,39
53,235,377,140,45,36,31,38
59,255,445,146,46,35,29,39
56,246,439,152,53,34,29,42
57,245,410,155,50,34,29,36
56,237,438,158,52,33,29,35
60,291,482,166,52,32,34,43
64,322,438,163,54,32,35,42
62,318,477,168,52,34,38,38
63,335,499,171,58,33,40,39
65,350,466,165,58,32,40,38
67,306,459,167,62,35,40,30
66,277,430,180,67,36,40,33
68,294,427,177,68,34,39,38
67,279,431,164,64,35,37,36
69,279,446,163,65,37,37,40
64,270,395,154,63,36,33,40
56,227,459,127,57,35,32,37
54,215,459,119,54,35,30,34
52,212,425,115,55,33,27,35
54,204,434,129,53,33,28,33
58,214,462,145,51,32,30,33
54,211,387,157,50,30,31,32
52,202,345,154,49,28,31,31
54,195,343,165,44,30,30,33
55,189,343,175,57,28,39,33
59,200,378,179,66,30,39,31
60,198,447,177,65,33,39,33
58,189,485,177,64,32,39,32
59,199,504,168,69,34,41,29
59,240,548,181,64,37,31,31
51,230,515,165,56,35,31,37
55,250,460,150,55,31,32,37
56,274,477,175,62,34,36,38
54,267,474,182,58,32,34,40
48,236,452,154,50,28,33,36
50,230,462,159,50,29,32,31
51,248,483,163,50,29,30,30
51,230,458,140,43,26,26,31
53,236,445,137,45,28,27,27
54,235,381,148,49,32,29,29
51,230,341,151,46,30,28,35
46,206,336,158,49,28,31,35
48,208,319,159,48,31,33,34
47,208,347,157,50,31,33,36
49,225,383,157,51,29,32,35
54,249,410,179,61,33,33,33
54,245,399,176,58,35,29,31
56,245,386,179,60,32,28,35
56,240,394,204,62,38,27,34
50,218,404,194,58,36,27,35
51,218,420,169,55,36,28,34
49,210,409,167,52,35,29,34
48,210,429,178,56,38,34,31
51,217,393,155,55,31,34,31
62,250,417,162,66,36,42,35
60,235,369,169,61,35,42,31
62,254,396,171,65,39,43,33
61,249,425,164,61,38,40,32
72,278,467,170,60,42,42,44
69,264,415,161,51,39,35,41
68,264,450,157,50,40,33,42
67,250,437,161,47,35,34,40
71,256,445,159,55,37,38,42
62,232,411,158,55,35,35,31
57,212,446,156,54,36,34,31
62,227,475,159,55,34,33,31
61,235,483,156,58,36,31,31
54,228,433,158,49,33,23,29
49,217,475,147,48,29,24,28
51,229,442,153,49,29,27,29
43,212,408,156,48,27,28,28
46,209,457,168,48,27,28,28
51,232,473,171,50,26,31,34
57,234,496,182,56,28,34,33
57,233,528,182,53,27,33,35
56,232,532,181,56,28,36,37
54,217,476,182,54,27,36,35
52,215,466,174,58,28,35,32
43,208,433,181,54,28,32,34
46,205,406,186,61,33,34,33
48,210,387,184,57,31,30,34
49,221,411,181,57,32,29,35
47,197,417,173,50,33,28,31
48,207,404,153,54,35,30,31
49,213,406,148,48,31,29,35
52,211,397,144,51,33,32,36
50,201,379,129,50,32,34,37
56,241,363,138,51,31,33,40
57,233,349,151,47,29,33,39
57,285,359,147,46,29,31,36
51,279,366,144,44,28,30,35
57,296,433,153,50,34,32,39
53,280,460,156,53,34,32,37
61,299,518,151,62,38,37,37
59,272,505,150,62,36,37,38
61,275,542,159,66,38,38,39
58,267,509,154,65,35,35,34
55,253,495,143,62,36,36,34
43,237,408,131,51,32,29,30
49,221,429,159,52,37,30,32
52,237,378,161,54,40,30,33
52,242,395,175,54,42,33,36
54,253,401,187,55,42,30,36
59,275,431,188,55,41,30,38
56,259,419,180,58,39,32,35
55,248,433,176,57,38,32,36
65,272,482,196,62,37,31,37
68,270,471,192,64,38,32,42
70,273,474,188,67,40,33,43
68,279,487,175,67,39,32,46
65,272,472,168,61,35,31,47
54,231,380,120,57,32,29,51
49,216,367,109,54,30,28,47
40,163,321,107,50,28,27,46
41,141,298,108,49,27,29,48
50,152,386,131,51,28,28,46
58,202,435,126,49,30,31,40
59,210,497,140,48,33,33,40
61,222,506,145,48,32,33,41
63,220,485,142,44,38,32,35
58,237,431,127,45,38,30,35
48,190,387,140,46,38,31,34
49,196,319,144,59,38,34,34
49,183,381,161,65,39,33,34
45,191,406,167,63,34,31,32
40,183,388,165,65,36,35,34
44,192,462,178,66,39,32,35
43,199,447,167,56,40,29,34
43,199,400,162,51,39,28,33
46,205,415,173,52,40,31,33
46,187,422,175,47,41,27,29
47,182,373,166,51,37,31,27
50,171,480,198,50,37,32,36
50,170,507,194,56,38,34,38
47,154,537,190,57,38,34,44
46,148,523,185,59,36,43,44
47,136,501,183,55,36,43,45
41,123,426,168,58,34,44,38
39,127,401,171,53,38,49,37
46,125,354,169,58,41,52,33
45,125,381,172,58,40,45,32
41,129,387,159,57,39,44,31
41,127,360,138,52,37,40,30
47,143,398,128,53,33,37,35
38,142,390,114,50,29,36,34
42,164,391,115,53,31,41,34
43,168,386,123,52,31,42,37
43,169,396,136,54,35,42,37
36,143,376,143,50,35,39,32
46,198,373,155,49,32,38,32
56,222,390,175,59,35,36,34
59,227,379,181,64,39,37,31
64,236,426,183,76,36,40,37
68,249,412,191,78,38,42,38
64,220,410,187,74,39,40,38
52,171,407,168,64,35,37,37
50,155,414,156,58,31,38,37
42,141,376,144,44,31,38,32
41,134,392,147,43,39,42,32
40,110,413,156,67,71,50,31
41,110,443,166,73,75,53,29
38,112,474,173,74,81,55,30
42,134,464,173,82,85,55,31
36,124,438,158,81,81,50,29
41,129,430,146,63,56,42,34
43,132,380,136,56,50,38,34
45,133,346,133,60,41,42,33
42,108,351,128,50,36,40,31
44,101,348,125,54,58,75,42
40,94,348,137,80,105,105,42
38,106,369,148,94,115,111,43
36,100,339,143,91,115,108,43
37,104,345,141,95,117,135,56
41,128,358,148,98,108,124,54
43,143,335,133,78,65,100,50
41,130,303,122,68,49,96,51
43,155,335,142,77,54,98,53
44,159,349,163,71,50,60,39
45,156,395,160,66,51,65,42
46,157,415,176,81,62,71,47
44,154,411,170,79,59,69,43
48,135,421,161,71,57,65,46
47,132,412,157,70,56,63,45
50,126,382,183,74,55,49,39
45,113,372,182,57,45,36,32
50,129,387,193,50,44,40,35
44,136,385,195,57,41,41,29
45,137,384,185,66,41,39,28
39,127,396,167,63,37,37,27
40,131,381,143,65,34,38,28
36,130,361,135,63,36,37,27
36,133,337,131,72,42,41,26
36,132,312,134,73,42,42,26
33,131,246,121,79,47,43,25
35,135,257,135,87,49,45,28
32,127,274,134,86,46,41,26
35,134,327,143,75,41,37,27
35,130,369,141,68,38,41,29
39,147,463,164,59,35,43,29
41,136,461,154,45,37,43,28
44,138,451,151,51,38,43,31
41,114,404,135,49,36,44,31
44,126,402,174,56,40,40,31
44,121,351,180,58,38,37,30
42,125,344,192,60,34,35,26
41,118,359,195,56,34,33,27
45,147,370,204,63,39,38,30
45,161,358,179,63,44,37,31
49,163,367,152,63,43,34,32
54,181,364,141,64,43,34,35
59,198,417,165,65,46,37,35
58,184,410,152,62,44,31,33
56,166,417,147,52,35,32,33
50,154,379,158,54,34,33,32
44,146,415,161,51,34,36,31
37,139,386,148,50,30,36,32
35,140,412,157,47,29,35,33
38,144,417,156,49,30,38,32
40,163,422,144,47,34,36,31
41,156,406,137,52,34,33,31
45,165,376,122,55,37,33,31
54,198,436,175,60,38,34,37
51,197,414,173,62,38,30,36
50,189,402,169,60,36,31,36
48,181,407,174,55,33,31,34
54,172,403,178,65,42,32,36
46,132,299,121,59,40,31,32
50,149,348,135,62,41,32,35
49,144,362,144,62,40,30,34
51,147,360,140,70,42,37,37
38,131,356,133,56,30,33,31
44,159,433,186,73,31,36,29
42,137,392,175,70,31,38,29
45,145,370,178,76,36,41,32
47,142,354,186,72,36,37,31
51,145,431,197,75,37,42,35
45,108,360,143,60,38,41,34
44,119,384,150,58,38,38,32
43,109,388,149,54,33,39,32
39,104,393,142,56,33,38,32
38,112,320,153,57,34,32,29
48,150,384,178,62,33,33,34
49,142,381,171,60,31,34,36
47,142,400,168,54,31,32,34
48,152,386,174,50,30,31,33
48,152,391,168,53,29,34,35
40,138,425,169,62,32,37,33
40,134,417,172,70,31,37,31
49,146,399,182,71,33,36,36
46,138,398,172,71,35,37,35
47,136,400,191,74,34,38,33
46,120,331,187,63,32,36,32
47,123,297,183,56,32,36,32
45,114,312,194,72,33,38,31
47,130,418,216,73,34,35,32
49,135,441,229,71,38,35,33
50,131,436,224,72,38,35,33
53,148,464,231,73,39,35,32
47,139,509,232,62,40,34,29
45,128,422,211,60,37,32,29
43,124,388,174,56,36,29,29
45,142,407,165,54,35,26,32
40,129,390,165,54,34,28,32
40,133,329,156,49,32,28,31
44,133,384,170,54,36,33,31
44,156,438,183,52,35,32,31
42,154,439,178,52,35,34,28
46,171,447,171,49,34,36,30
46,168,439,161,52,35,34,30
42,163,414,149,49,30,31,29
46,153,391,133,52,30,33,32
44,142,383,139,53,29,32,33
41,112,372,144,59,31,28,31
50,134,392,150,66,36,35,37
51,137,393,152,65,38,36,36
49,128,395,153,68,39,37,35
48,132,368,170,68,43,36,32
57,156,375,175,70,41,39,39
50,143,390,169,59,37,33,34
50,144,371,178,62,35,33,37
48,138,326,180,59,32,30,35
48,135,418,177,61,29,31,36
40,108,404,172,53,30,25,30
41,107,367,167,59,28,29,31
39,106,394,156,55,27,29,30
41,116,404,145,55,31,28,31
39,111,332,124,53,30,29,31
39,123,335,135,54,32,31,29
40,139,390,140,50,33,29,31
43,141,355,140,50,34,30,30
47,146,420,152,48,34,29,29
47,145,399,155,43,34,28,28
45,146,438,144,47,32,29,29
46,204,481,147,49,35,30,26
54,234,560,157,53,35,31,28
59,263,529,147,51,34,30,27
60,275,569,158,55,34,35,27
73,337,560,166,74,38,42,32
95,416,527,192,75,38,42,35
94,415,485,200,86,45,50,36
121,514,571,264,111,51,75,51
148,638,662,274,125,57,83,59
152,667,708,296,122,55,83,59
154,680,763,297,128,55,93,63
165,736,802,347,129,53,93,66
156,720,796,316,121,53,81,57
141,683,747,336,126,52,82,53
165,759,758,345,137,58,87,60
193,792,823,385,159,68,87,70
194,801,787,345,157,68,84,70
219,864,816,402,177,72,89,79
223,884,801,399,176,74,87,82
216,861,818,401,177,80,91,84
185,853,765,371,160,71,88,71
208,914,922,436,191,81,97,83
176,831,854,377,171,74,92,74
178,813,833,360,172,74,99,77
172,760,775,349,172,71,95,75
184,734,778,387,180,73,93,80
154,637,611,339,154,61,82,66
182,686,662,387,173,71,98,77
198,682,711,418,189,72,97,79
206,749,791,432,192,69,99,79
222,883,808,435,202,75,105,84
238,938,885,454,215,80,114,93
230,931,892,430,203,73,102,85
232,959,932,450,196,74,100,84
222,912,875,424,183,75,90,79
198,789,823,390,163,68,89,74
182,799,735,343,138,64,81,63
174,797,723,317,129,62,83,62
146,773,706,277,106,63,82,58
143,808,712,279,102,61,85,55
146,778,663,251,103,64,78,56
138,666,687,268,113,65,79,61
127,634,746,297,114,64,75,60
130,628,697,275,113,58,69,58
131,589,694,280,120,55,67,59
118,551,693,268,108,47,63,51
110,591,637,258,93,40,57,45
119,581,537,244,120,48,70,53
113,539,564,233,118,48,68,52
107,529,542,215,110,45,64,49
114,554,634,244,122,49,71,54
122,555,676,223,128,50,73,56
120,600,700,216,107,43,65,49
136,658,777,242,106,44,65,49
136,651,778,252,109,47,67,52
151,679,785,266,119,52,69,61
147,656,766,272,116,54,66,61
142,619,747,264,115,54,64,63
128,554,635,238,107,51,60,59
125,526,618,232,105,49,58,58
107,514,593,210,90,43,52,45
98,493,571,202,86,40,53,39
99,483,587,214,88,43,53,38
89,457,663,228,95,45,56,37
97,470,696,235,98,47,62,41
93,465,640,209,89,45,59,41
98,507,689,212,88,46,58,45
95,534,706,225,86,44,52,44
102,563,625,205,89,45,57,47
98,553,654,210,97,45,54,46
94,504,650,229,103,46,58,46
87,455,600,232,104,49,58,42
83,391,531,201,96,47,59,40
68,338,502,193,86,46,51,36
63,424,470,173,74,47,48,32
61,442,488,163,65,44,44,31
67,476,482,149,59,37,41,32
73,521,489,173,67,44,40,35
85,525,516,181,66,41,40,34
89,486,521,222,91,45,42,39
89,480,487,218,89,46,39,37
90,454,488,209,87,47,40,36
87,398,493,196,90,43,39,38
89,478,539,285,104,49,45,44
88,489,485,262,92,45,51,40
89,475,506,259,93,50,60,42
97,506,567,294,102,52,63,47
102,520,568,310,105,53,65,48
94,469,509,227,96,48,64,42
100,454,585,238,100,52,66,49
101,522,599,246,102,46,60,48
93,568,604,218,95,45,59,43
98,600,655,239,91,44,56,44
112,609,742,311,108,50,63,51
108,615,703,304,100,46,58,47
108,577,711,313,102,47,57,48
110,494,652,317,103,47,57,50
123,492,600,298,113,53,60,55
126,504,566,242,107,49,59,56
133,556,664,278,121,50,65,57
135,561,628,263,118,53,66,59
144,649,680,282,126,55,68,60
126,644,653,282,117,53,66,53
109,614,675,278,108,53,59,47
105,565,577,240,96,52,53,46
116,605,633,264,114,59,59,52
103,524,631,242,105,57,54,48
115,545,758,275,113,55,60,50
116,539,703,262,111,54,58,51
117,533,767,254,110,53,61,51
108,535,739,234,96,44,57,46
114,593,753,251,108,44,61,49
128,676,696,259,118,49,61,59
130,681,694,281,119,51,63,58
121,672,643,288,116,50,58,56
141,704,704,340,140,62,82,70
146,689,686,341,143,63,87,73
169,664,723,361,169,69,112,81
181,760,741,358,174,74,113,83
196,797,780,366,182,79,119,90
181,755,784,329,165,75,104,81
184,836,786,325,170,86,110,87
149,790,733,274,136,78,87,75
160,736,715,332,162,88,96,87
172,810,721,340,169,87,103,86
175,818,687,340,169,82,103,85
176,748,780,346,158,69,93,78
194,839,804,345,159,73,101,78
198,883,865,372,151,65,97,75
174,835,793,358,137,60,83,65
199,844,771,376,157,68,97,77
192,839,675,370,159,72,96,77
175,749,670,378,153,72,87,74
149,748,598,304,127,67,79,62
174,720,680,331,134,72,88,73
146,684,723,323,112,69,70,62
150,662,744,319,114,65,68,62
147,651,718,305,110,62,61,61
150,562,697,314,122,57,63,63
138,588,721,328,121,52,63,60
134,577,661,296,115,53,64,58
161,601,618,325,134,74,71,72
158,625,632,327,140,76,80,73
161,676,662,337,144,77,82,75
156,643,589,310,138,78,79,73
156,645,617,313,137,73,79,74
117,590,595,285,117,50,75,58
129,568,563,276,109,49,67,58
124,531,541,273,96,43,62,54
118,537,537,252,94,43,56,49
118,577,555,293,101,46,57,49
114,572,559,288,94,46,53,45
102,536,581,282,92,42,50,45
101,539,594,258,95,49,50,46
97,515,558,255,89,44,45,43
93,461,572,233,80,44,42,41
98,498,567,224,78,43,44,42
108,577,572,244,92,43,52,41
95,529,562,225,83,40,50,37
98,561,602,232,86,40,53,37
109,601,523,217,97,47,58,55
110,594,506,215,103,49,63,59
116,540,485,267,110,58,59,63
120,546,447,272,108,57,61,64
118,555,401,269,104,55,60,63
118,548,480,283,105,52,67,54
139,606,532,287,105,51,65,54
132,620,528,229,92,40,65,47
136,615,603,221,94,42,64,47
141,575,619,226,99,48,70,53
132,550,616,222,91,46,60,48
116,487,589,233,92,48,57,46
112,460,613,224,85,48,56,45
109,458,567,222,92,47,61,44
99,429,614,235,94,47,55,39
97,430,612,205,91,44,59,36
93,466,634,206,93,48,62,39
96,488,604,196,91,45,61,40
95,509,589,210,89,46,57,41
92,502,512,188,84,41,57,41
92,495,517,201,78,41,51,40
90,469,481,195,81,42,52,37
85,427,501,224,91,43,55,38
78,387,556,215,90,44,53,36
76,386,576,225,93,44,53,35
69,372,596,227,96,45,55,35
68,332,626,212,88,42,52,37
73,362,627,184,81,42,47,38
74,395,570,180,75,42,50,38
82,429,580,166,74,45,50,40
85,450,568,163,75,45,49,43
84,488,544,179,71,45,46,42
79,471,549,178,71,43,51,40
98,496,573,196,90,46,58,46
95,467,550,191,87,42,57,45
95,432,526,185,85,39,54,44
98,433,536,193,96,45,57,44
106,489,564,205,97,47,54,47
87,432,668,191,76,43,40,39
88,433,706,199,77,45,42,40
86,480,730,202,74,44,43,39
87,505,759,206,65,40,39,38
86,462,707,199,70,39,46,42
90,485,592,198,74,44,50,45
90,517,547,193,73,44,47,44
94,492,489,187,72,46,50,45
127,536,479,208,84,49,59,48
127,536,494,212,82,50,55,47
126,520,511,202,79,48,53,44
129,548,567,227,88,48,60,45
127,558,561,231,91,50,58,47
88,464,527,210,75,43,50,43
78,427,556,201,71,40,51,39
91,510,548,223,78,44,52,45
85,477,497,207,65,43,46,44
86,484,533,201,61,38,42,41
100,532,547,189,79,42,59,46
106,546,507,187,79,40,57,45
96,517,529,169,75,34,62,41
92,473,506,156,78,34,63,39
98,495,485,158,87,42,68,46
94,440,544,191,83,42,56,45
87,437,537,193,79,45,54,43
83,370,528,189,77,46,47,42
94,394,558,190,82,49,51,48
97,394,563,202,79,52,50,48
87,380,492,173,68,50,49,43
88,397,529,176,70,49,51,43
98,438,585,196,78,53,51,48
94,427,567,201,73,49,46,44
80,405,571,185,69,42,41,37
85,438,560,178,68,41,37,37
84,440,568,174,72,42,36,39
77,445,494,156,67,38,35,33
77,473,536,166,67,41,38,32
79,443,513,161,66,40,39,36
72,394,505,150,67,40,39,36
69,360,464,150,61,36,36,32
66,335,446,148,57,37,36,33
62,336,425,144,53,33,33,32
60,323,434,150,53,35,32,29
62,337,459,165,58,37,33,30
70,355,441,163,59,39,35,32
66,400,462,160,62,39,37,36
63,405,449,152,59,42,37,37
60,410,460,153,61,40,35,37
61,453,491,153,58,41,37,37
54,443,507,152,56,38,36,37
55,379,475,158,53,38,35,34
54,329,457,148,52,35,34,31
60,372,502,162,54,35,37,31
59,349,459,157,55,30,36,28
59,359,484,154,54,32,36,26
66,385,536,170,56,30,34,30
67,393,556,176,62,30,35,29
61,335,500,203,65,36,32,31
60,302,482,206,67,39,34,32
60,301,442,209,66,36,34,32
64,309,410,191,65,35,37,28
66,304,463,192,64,38,43,29
69,329,489,155,63,32,45,30
71,354,540,164,63,35,44,31
67,338,540,162,68,37,43,32
55,295,518,167,71,39,42,31
59,323,492,169,70,35,37,31
59,313,462,150,67,37,36,29
57,295,430,158,62,33,34,27
61,305,433,162,60,31,37,28
61,329,464,158,60,31,42,30
57,299,442,160,61,36,42,31
53,296,413,163,58,33,40,30
50,270,412,155,56,35,40,31
57,300,429,202,62,42,40,35
58,286,424,197,58,41,36,34
62,359,438,217,57,39,35,33
65,352,449,234,61,41,36,35
63,376,464,226,63,39,36,34
55,343,493,181,58,35,35,27
69,368,493,192,63,39,34,31
77,344,560,179,72,41,43,35
72,342,581,162,72,40,45,32
75,330,538,160,72,44,46,33
76,328,523,160,72,42,47,36
67,313,546,156,68,39,50,34
52,259,451,129,58,36,43,31
55,256,446,138,54,39,40,32
61,277,489,162,60,37,43,36
58,275,461,162,60,38,39,34
58,258,463,171,61,39,38,38
59,249,475,174,62,41,43,39
60,255,504,179,67,38,46,39
54,209,499,160,61,41,41,36
57,218,519,164,66,40,46,36
57,222,501,202,70,44,50,34
59,253,541,215,74,43,47,33
59,280,603,221,76,47,46,33
62,304,613,219,78,46,53,35
60,302,617,225,78,45,50,35
58,288,593,179,69,39,45,33
53,250,551,161,61,38,42,32
54,211,446,153,60,32,42,36
47,205,409,150,59,33,35,32
52,238,421,148,58,35,35,33
56,246,535,206,72,38,40,37
57,251,518,210,72,38,40,37
53,244,522,207,71,38,41,34
73,366,546,274,98,39,53,36
69,344,531,278,96,37,53,35
69,357,455,255,91,34,50,34
75,367,508,267,99,40,55,40
75,373,489,259,98,39,54,39
58,255,454,191,66,35,42,39
59,260,494,187,64,37,42,41
56,239,463,164,64,41,43,37
47,219,462,143,57,35,41,30
47,219,496,149,53,35,42,31
49,219,501,151,57,36,41,32
55,220,487,155,61,35,42,32
54,223,515,158,63,32,38,30
61,273,557,169,66,33,40,31
59,258,534,169,65,35,40,31
60,249,537,186,65,36,41,32
59,242,498,184,64,37,41,33
61,241,476,179,57,36,40,34
63,261,397,173,54,37,40,36
69,292,464,184,60,36,42,38
69,318,514,181,64,37,47,37
69,326,508,187,65,37,47,36
68,330,561,197,66,38,49,37
64,285,560,200,66,38,48,35
64,304,550,195,61,37,47,35
60,281,564,197,62,35,42,32
58,278,614,188,57,32,41,31
56,261,544,185,55,31,39,31
51,257,541,184,58,30,40,30
60,234,520,181,59,28,39,29
62,230,502,188,57,32,37,32
65,232,488,189,62,36,39,35
66,267,538,191,66,40,42,36
66,264,528,180,59,39,36,35
58,240,551,190,77,43,49,40
55,241,557,163,75,41,51,38
70,300,646,196,85,42,55,42
75,299,643,204,90,42,53,43
79,325,655,206,92,42,55,47
79,339,630,207,78,41,42,46
79,332,569,214,79,42,39,48
63,272,431,176,65,40,31,40
52,252,398,168,53,36,31,37
47,206,363,172,49,37,29,37
41,183,330,161,47,32,29,32
40,177,388,165,48,30,34,31
42,174,395,171,51,35,35,31
44,184,429,186,55,36,36,30
50,213,541,211,69,39,43,28
53,236,550,212,66,40,42,29
54,234,558,208,65,42,37,33
54,236,607,228,65,38,35,34
59,250,609,235,70,39,36,39
53,237,556,212,60,36,29,36
54,230,541,232,66,36,31,34
52,231,528,227,66,33,36,31
56,224,466,206,64,33,37,33
54,200,408,180,58,32,35,27
55,203,433,181,56,32,34,30
50,181,535,163,52,31,32,30
50,188,552,168,49,32,29,32
49,182,575,175,53,30,27,32
46,166,599,179,54,29,31,34
48,203,540,173,55,31,34,32
48,215,477,171,57,35,34,32
51,218,451,165,61,35,35,29
46,225,431,161,57,37,34,25
47,224,398,147,52,39,30,28
42,211,419,147,54,38,29,29
47,230,429,143,52,33,30,31
41,221,417,140,49,33,28,30
43,213,421,142,49,32,29,31
43,208,433,158,56,34,32,30
44,173,450,189,62,36,33,30
38,147,402,200,60,40,31,29
41,157,383,208,59,39,30,31
42,160,401,204,64,42,29,32
39,164,378,200,58,41,25,29
38,166,384,173,48,37,23,27
41,169,396,149,50,37,25,29
41,174,417,141,52,36,26,29
42,198,415,161,53,36,27,27
43,200,432,162,57,37,28,30
45,198,392,160,57,38,28,31
46,212,379,159,54,36,27,29
45,227,399,173,57,39,28,28
49,225,410,159,55,36,26,30
53,228,421,170,60,35,31,30
52,227,456,176,62,36,32,28
49,204,449,177,60,32,34,26
52,192,401,159,58,30,36,29
47,195,376,149,53,33,36,27
42,202,392,126,42,32,30,28
46,215,385,146,48,32,30,30
47,212,407,153,50,34,29,32
41,195,434,163,47,35,25,29
43,174,421,164,64,35,26,30
47,162,396,162,68,33,28,29
45,142,401,135,60,34,28,28
42,138,411,139,61,31,27,26
43,147,396,128,61,29,26,26
42,134,375,122,47,26,26,27
36,137,408,139,43,26,25,27
34,133,365,138,53,27,26,27
33,118,329,121,53,27,24,26
40,110,327,126,57,34,29,41
39,133,387,132,60,36,28,41
39,123,345,118,61,40,27,40
42,129,371,118,62,42,29,41
41,156,375,123,61,42,32,41
38,165,411,142,64,46,29,27
40,155,392,159,59,43,31,26
41,153,423,163,58,40,34,29
40,150,404,163,58,36,33,28
40,162,421,163,60,37,33,30
43,166,400,140,57,29,34,33
43,172,393,130,60,31,35,33
46,181,409,149,65,33,34,32
46,183,418,149,60,32,34,33
51,190,486,171,67,36,34,32
49,175,478,171,64,35,31,31
50,190,470,173,63,39,30,31
48,184,410,150,60,37,28,32
49,187,411,150,60,39,29,32
45,154,336,129,48,38,27,32
49,256,411,132,52,40,30,32
45,242,431,114,49,36,29,31
47,257,477,135,48,36,29,28
51,271,482,141,51,34,28,29
54,274,473,153,65,36,34,32
49,199,405,149,60,32,32,31
54,212,393,168,63,34,33,33
53,199,351,173,65,36,33,35
51,186,369,176,66,39,34,35
49,182,345,169,54,37,29,31
47,178,348,166,55,39,29,29
44,170,356,149,53,42,30,29
47,192,487,166,54,42,33,33
45,181,467,164,53,40,30,32
45,195,490,161,55,38,29,32
47,207,537,181,63,43,37,34
52,227,556,198,68,44,37,34
45,209,450,167,63,42,34,29
46,218,490,166,61,41,37,29
49,208,490,171,60,44,37,32
48,204,493,159,56,36,33,31
42,178,483,141,48,31,32,30
44,172,464,136,48,32,31,29
43,157,408,137,52,35,30,30
41,164,422,125,48,32,29,28
39,166,386,125,46,33,29,28
40,159,415,137,45,34,31,30
43,173,459,151,48,33,30,30
45,188,474,148,43,30,30,31
47,181,454,142,45,33,33,30
45,168,420,133,43,31,31,29
46,187,406,127,47,32,31,26
43,170,390,125,43,35,31,27
40,153,385,138,43,35,30,25
37,163,376,150,42,33,28,24
40,165,435,175,43,34,27,22
39,152,374,171,41,33,29,22
40,153,350,180,47,35,32,27
40,160,384,169,44,34,34,26
43,162,376,166,47,35,33,27
46,171,316,149,54,41,37,30
44,170,329,145,57,40,35,31
44,173,332,133,58,43,35,29
49,190,301,141,69,44,34,31
47,190,381,149,77,44,35,31
45,185,383,159,74,39,33,30
49,186,405,169,76,39,36,31
49,192,452,186,76,32,33,30
49,195,460,185,70,31,34,31
49,185,415,181,61,31,34,30
53,176,471,180,59,32,34,33
49,185,498,176,53,31,29,32
51,200,455,153,47,32,30,31
47,181,437,142,45,31,27,29
49,207,432,133,41,30,26,30
44,204,385,117,42,31,28,29
43,188,326,115,42,30,29,27
40,176,373,138,48,29,28,28
40,188,389,168,53,34,30,28
40,204,395,166,57,33,31,31
40,200,411,192,61,33,29,29
40,211,452,195,64,34,31,29
40,204,410,182,63,34,31,29
38,198,402,169,62,31,30,30
39,153,463,184,61,33,28,27
39,164,447,160,56,32,27,28
40,176,423,157,49,33,24,29
42,171,435,156,48,32,24,28
46,163,437,144,44,30,28,31
42,152,347,123,41,28,27,30
39,138,338,119,41,26,28,29
42,118,342,119,52,28,30,29
43,160,380,110,54,30,32,31
38,161,403,132,55,31,29,25
41,168,427,140,55,34,30,26
45,177,439,135,53,34,33,30
43,177,410,139,47,31,33,32
42,168,403,150,44,31,31,32
43,183,361,127,43,30,33,31
46,219,368,151,51,31,33,32
44,216,403,157,50,31,30,30
46,212,419,159,50,32,30,28
48,226,398,163,56,34,31,28
50,250,446,165,55,34,31,30
48,223,438,154,50,33,29,28
46,222,403,158,54,38,31,28
47,218,387,144,53,40,30,30
44,219,395,132,48,38,29,30
41,173,346,135,49,38,28,30
39,207,365,121,51,38,32,30
40,204,404,117,54,36,30,28
37,207,446,127,55,35,29,26
40,187,471,135,56,34,29,29
39,189,473,165,53,35,27,28
38,170,450,166,51,32,25,30
40,167,407,167,57,30,27,30
39,162,380,162,55,26,29,30
36,156,344,159,51,28,30,26
40,173,347,129,56,30,31,29
41,152,346,132,55,32,29,30
39,163,329,128,43,31,29,30
39,166,374,132,45,35,27,29
38,161,361,126,48,35,27,29
37,165,361,126,49,34,29,28
42,181,359,114,47,33,31,27
44,180,371,109,48,34,29,28
43,178,351,114,46,29,28,27
43,198,360,128,52,31,27,28
52,246,378,144,54,29,30,27
