540,811,38,155,565,761,61,213
533,809,36,147,591,818,57,202
494,777,38,138,564,828,58,189
589,856,43,141,512,729,59,213
589,837,45,135,494,697,57,221
623,829,44,117,486,703,54,225
597,807,44,117,459,645,56,225
584,767,42,105,456,618,49,204
481,659,39,100,465,678,45,177
475,623,34,90,480,669,47,180
370,504,28,83,493,657,44,155
429,493,29,80,499,657,45,169
416,531,29,83,507,678,39,156
505,530,28,106,519,642,45,189
476,500,26,103,475,626,38,172
483,513,28,110,442,609,41,170
442,540,28,112,433,619,44,172
548,531,27,103,386,569,46,192
456,492,26,73,352,534,41,165
463,518,27,75,380,547,41,165
440,503,26,67,401,559,39,158
420,455,25,65,424,572,32,136
295,534,26,73,442,616,30,109
373,574,28,78,464,648,38,103
424,688,29,95,488,658,39,116
438,730,28,98,532,715,42,126
441,744,28,103,567,759,44,128
405,672,26,98,569,754,44,115
391,638,25,94,581,763,37,117
335,476,24,77,546,735,37,113
323,412,23,73,498,673,37,109
370,451,23,74,437,599,39,113
388,428,23,74,420,579,38,118
326,433,22,72,399,601,40,111
340,488,22,76,392,627,43,110
345,512,22,79,429,674,40,111
312,593,26,71,456,720,40,113
295,603,27,75,471,733,41,110
344,606,27,76,477,720,45,109
342,595,27,79,491,719,49,116
331,576,29,78,476,700,48,110
326,468,27,77,450,678,47,113
347,509,28,77,445,674,46,120
320,505,27,77,446,647,44,127
299,477,27,73,460,649,36,115
380,519,26,72,452,630,37,135
414,541,25,77,474,667,37,133
398,528,24,73,484,694,44,131
393,546,24,76,482,721,42,121
397,623,24,83,521,792,44,123
371,688,24,95,542,817,42,109
329,687,26,92,525,768,44,121
324,667,26,93,489,697,38,124
311,639,26,89,471,643,49,123
307,569,26,81,424,525,51,127
247,466,28,62,375,447,53,121
223,465,26,61,361,407,51,103
226,463,25,61,383,436,51,94
232,593,27,68,410,542,45,115
209,740,26,82,521,781,46,106
254,796,23,89,584,963,50,117
256,791,24,97,615,1031,51,109
254,850,26,106,617,1044,52,112
273,821,25,107,631,1056,50,120
313,728,26,101,588,952,47,131
284,702,28,110,541,822,39,121
291,714,29,114,571,810,40,127
328,691,28,113,578,827,39,128
342,651,27,108,537,760,43,117
325,645,29,104,493,746,43,111
328,821,29,95,574,910,47,108
328,828,26,90,553,951,44,104
292,838,26,84,560,968,45,96
258,843,26,84,572,976,49,88
280,823,24,98,570,957,53,96
263,637,22,94,503,812,51,95
291,627,24,86,458,736,52,102
305,611,25,95,479,719,57,124
303,578,25,104,466,697,52,118
287,647,25,163,480,798,48,128
293,621,26,169,460,776,64,129
258,583,25,176,447,724,71,129
237,596,25,180,409,696,67,115
278,621,24,197,476,768,68,120
269,590,24,157,475,666,68,110
261,585,24,158,486,671,66,118
266,584,22,158,513,715,58,120
260,529,21,156,502,744,59,116
283,526,21,137,454,679,59,124
305,526,22,143,448,677,60,138
301,534,22,136,422,624,45,129
293,549,22,150,413,608,44,127
311,564,22,149,455,651,44,135
257,557,23,146,472,670,47,129
215,519,22,142,427,628,50,105
241,536,22,160,466,693,49,110
230,522,23,158,449,671,49,107
194,479,22,157,412,628,49,97
246,497,23,162,404,629,47,112
242,479,25,162,438,649,39,114
225,480,23,147,410,589,41,129
271,531,23,131,467,672,40,135
277,615,26,175,500,669,53,138
236,601,25,177,495,665,50,123
248,612,24,179,463,649,57,129
245,589,27,194,486,678,59,110
206,520,26,197,458,646,63,108
228,468,26,168,459,647,53,108
219,430,25,162,442,622,52,107
243,423,26,148,483,646,52,123
251,445,24,132,467,649,50,124
241,471,26,139,450,628,48,118
225,438,25,136,441,627,47,120
221,458,27,134,444,637,48,117
187,472,27,166,433,629,41,94
179,492,27,168,437,601,44,97
183,497,25,159,457,598,43,97
175,503,24,161,443,642,53,97
178,528,23,162,452,653,53,104
172,512,21,150,463,671,56,99
169,497,24,169,483,740,57,106
159,504,26,190,508,759,55,117
189,539,27,190,515,710,44,112
192,529,28,189,509,701,49,110
196,540,27,246,521,696,52,117
239,538,24,248,486,610,51,111
253,562,23,261,465,636,50,103
242,538,22,254,462,636,57,100
252,529,20,266,477,654,56,99
260,574,21,211,470,712,51,85
231,550,20,193,472,714,50,83
228,491,21,158,458,674,54,87
231,474,23,172,456,668,49,123
225,477,25,187,484,657,46,127
227,369,25,186,505,605,44,134
217,380,27,183,533,650,43,132
209,442,26,181,560,685,47,134
204,598,24,183,683,907,49,110
187,664,23,148,713,1007,48,103
166,710,25,132,720,1050,47,105
169,714,24,129,738,1076,50,110
178,710,23,127,722,1061,40,98
163,583,23,98,595,872,40,87
174,502,24,109,527,762,45,99
179,429,23,111,520,674,45,95
170,390,22,102,460,594,41,84
167,317,24,100,437,568,43,91
165,298,26,106,423,556,38,90
143,272,24,92,412,541,30,74
160,289,24,92,326,523,36,70
156,280,26,127,291,492,36,78
167,325,24,136,328,488,36,85
157,310,22,130,351,476,35,86
160,292,21,125,351,467,35,91
139,323,20,125,388,503,27,90
142,314,18,97,398,532,28,83
127,323,20,80,392,560,25,68
160,385,22,83,400,603,27,75
156,388,23,82,424,617,26,70
156,364,23,76,419,610,30,66
172,397,23,69,431,610,29,72
175,358,23,89,403,580,47,80
163,307,21,85,372,529,48,74
161,312,20,84,345,509,48,73
161,302,22,84,312,485,48,77
166,303,22,82,443,468,50,90
171,308,22,67,526,502,43,90
158,287,22,64,562,529,41,86
175,301,25,66,578,542,41,90
176,320,23,71,603,576,38,92
157,295,25,71,514,593,34,76
147,282,26,62,441,573,24,78
165,351,27,63,400,577,27,81
156,334,27,62,365,566,27,76
153,328,27,55,316,525,30,88
145,321,27,54,314,516,35,102
169,333,26,70,294,507,48,102
170,321,26,86,344,488,49,104
171,357,24,86,372,495,51,106
211,452,26,94,400,509,53,99
216,470,26,103,424,522,52,88
197,492,27,114,436,536,40,88
197,461,26,130,417,558,42,100
211,444,27,132,408,558,42,101
194,370,27,129,388,561,43,99
201,364,26,131,367,536,42,100
199,344,24,113,362,518,43,90
190,366,25,80,346,502,38,70
179,373,24,80,334,485,37,67
160,365,24,82,340,476,31,66
148,369,24,69,329,527,37,81
155,411,23,71,385,585,40,90
164,409,21,81,402,603,47,91
179,426,22,80,416,630,45,93
172,410,21,80,426,638,46,99
170,390,20,82,441,607,45,86
170,416,20,89,396,587,49,85
157,648,20,87,551,743,48,90
158,763,19,84,616,847,48,91
166,813,20,83,624,866,48,82
184,845,21,86,627,908,42,81
191,849,22,76,669,919,35,80
191,737,23,73,582,827,33,74
171,629,24,70,500,715,49,72
171,669,21,77,574,765,50,69
165,715,24,84,588,821,51,68
142,673,23,93,580,817,51,62
141,626,21,96,547,777,49,62
143,612,22,104,544,755,44,62
139,557,22,98,513,796,42,77
129,501,19,86,528,733,43,79
137,491,19,78,485,689,47,82
142,505,20,78,467,688,43,83
129,510,22,68,481,718,42,101
135,449,21,69,426,579,48,99
147,433,21,75,399,567,48,103
197,456,22,85,434,590,45,110
209,432,24,87,466,573,48,122
221,462,21,89,518,651,44,112
222,503,22,99,552,704,42,108
214,498,22,100,536,648,41,102
166,473,22,91,505,637,47,100
171,528,21,84,494,665,47,90
176,494,22,96,455,579,47,95
171,550,24,86,428,581,46,91
181,574,25,87,437,595,47,96
181,580,25,87,440,596,46,97
188,603,23,90,490,676,45,98
189,618,25,100,516,700,46,89
187,541,25,114,500,653,48,99
198,518,24,119,485,655,50,105
229,583,24,131,506,685,56,103
212,573,24,137,450,649,59,98
200,561,22,139,435,640,60,100
203,582,20,155,486,653,57,96
201,551,20,155,490,649,60,95
167,505,20,162,501,647,51,100
165,468,20,164,544,684,46,101
181,438,21,159,538,689,43,96
184,395,21,142,481,675,43,99
185,405,21,145,508,667,38,92
185,446,21,142,579,737,39,82
203,434,23,130,569,655,42,86
218,462,22,130,570,620,43,99
213,468,21,133,569,601,42,89
197,491,20,132,566,642,52,100
201,501,21,129,506,614,57,98
194,565,19,159,531,674,54,96
169,559,19,158,504,674,56,85
162,577,21,175,504,676,56,94
172,604,21,178,524,722,48,95
164,571,21,175,486,654,39,98
158,496,22,154,440,620,48,99
187,476,22,150,462,634,56,111
201,469,22,183,481,650,56,104
242,446,22,225,474,662,54,112
267,451,22,238,509,716,57,110
274,453,24,245,474,665,53,112
278,500,25,257,453,662,46,115
278,581,24,225,535,776,46,127
266,574,24,213,526,746,52,114
244,546,23,204,497,692,50,115
246,560,22,192,525,723,56,113
214,527,25,182,546,705,59,104
217,488,27,168,472,587,58,96
201,539,27,117,483,624,54,94
201,556,29,96,537,658,56,92
191,526,26,100,513,625,50,92
209,535,25,103,499,624,42,91
201,491,22,114,489,664,43,91
189,426,22,126,476,588,47,109
206,446,21,155,547,670,45,122
206,460,21,177,581,704,45,123
198,473,21,194,584,726,50,117
215,476,23,208,603,706,54,121
217,492,23,205,634,728,49,103
199,490,25,199,568,660,53,92
208,579,27,190,581,777,50,96
204,672,26,177,624,898,45,101
221,757,26,159,649,955,43,95
215,774,26,152,618,974,49,93
226,763,24,141,573,971,46,93
234,709,23,123,541,877,52,88
237,605,24,108,488,744,52,91
207,480,23,106,435,641,52,92
226,406,22,109,401,551,47,90
219,376,20,105,404,505,46,89
204,353,21,108,407,490,40,102
230,361,22,105,391,484,40,115
243,342,22,108,378,478,41,116
221,341,22,124,376,482,40,114
237,335,24,149,365,464,38,114
227,372,25,148,425,536,39,103
200,433,24,150,452,572,42,89
184,454,25,141,447,573,36,94
197,455,25,148,440,563,37,105
179,454,27,119,442,550,37,101
173,403,25,113,371,454,40,100
159,303,25,111,337,381,35,95
182,307,23,120,335,343,42,90
179,349,25,91,353,365,43,79
178,353,22,89,333,372,45,78
181,347,22,91,351,375,40,81
187,350,21,96,343,374,39,73
167,320,21,91,342,379,38,66
158,255,21,88,351,359,42,67
149,287,21,97,384,367,43,97
148,287,21,100,373,362,44,93
140,310,21,92,393,376,46,93
129,315,22,85,401,400,44,101
125,329,23,93,388,406,42,107
114,310,22,91,376,398,40,81
122,324,23,88,371,417,39,88
126,299,23,93,354,396,38,88
127,333,24,94,372,384,35,83
135,355,22,86,381,385,33,87
146,351,23,84,366,374,44,93
151,350,25,96,361,347,45,86
166,358,25,96,358,347,45,89
168,331,25,96,339,371,52,91
161,291,26,97,321,360,47,80
165,311,26,105,333,402,38,80
169,312,23,93,312,389,38,80
154,330,23,85,347,405,43,91
159,331,23,91,329,380,40,93
165,362,23,90,345,393,49,92
160,335,23,75,381,382,49,92
156,318,24,76,412,422,53,111
163,300,23,75,408,446,58,108
153,298,22,71,423,466,56,109
145,268,21,81,412,475,49,106
143,276,21,86,371,471,53,111
137,285,24,85,368,471,54,97
132,283,24,86,332,437,51,122
128,255,24,81,307,396,55,117
126,290,26,78,312,378,58,118
128,280,27,73,312,358,58,122
145,310,25,76,323,343,56,123
137,299,26,75,338,344,50,92
148,340,26,86,361,426,51,94
156,331,23,78,385,485,49,93
175,342,21,76,392,500,44,79
161,349,24,82,387,525,45,99
188,375,23,88,391,540,50,106
181,346,24,83,378,486,53,106
176,355,25,85,360,456,51,111
166,392,28,84,362,474,60,112
175,474,26,87,364,567,59,100
164,712,26,86,503,769,65,90
169,793,25,90,567,896,63,94
167,812,23,85,595,924,67,99
165,811,22,89,610,936,59,110
149,763,22,80,620,894,60,105
132,560,20,73,512,749,47,110
132,449,22,71,432,630,48,106
149,429,22,80,400,592,48,109
158,498,21,86,388,646,50,92
166,710,22,93,533,807,50,89
168,739,24,107,572,900,52,88
173,744,22,122,609,930,55,100
170,763,21,133,632,971,51,99
185,727,21,145,632,920,51,104
198,574,19,146,498,778,48,104
206,532,19,148,499,696,46,107
213,575,19,147,464,665,39,102
206,547,21,157,424,612,44,95
180,536,22,175,439,640,47,101
165,477,23,184,457,622,50,105
148,465,22,187,402,564,52,103
136,427,25,192,425,541,52,99
147,414,24,181,463,577,47,101
149,420,24,153,464,591,50,103
140,417,24,134,439,594,48,98
152,466,26,120,505,686,49,94
154,448,24,109,475,673,50,95
147,441,23,98,458,632,52,107
150,458,23,94,444,608,43,94
149,490,23,94,446,598,42,112
142,469,22,92,387,551,38,111
146,471,23,76,418,602,36,109
173,507,26,79,417,624,38,98
172,493,25,74,421,645,39,101
180,487,25,86,448,706,45,96
198,492,25,94,476,675,48,102
196,508,24,91,454,631,48,100
175,486,24,87,462,616,46,94
194,494,24,95,457,587,48,101
194,515,23,93,451,577,47,92
174,530,22,83,424,621,45,83
182,526,21,91,427,622,49,97
180,511,19,87,404,609,48,99
158,486,19,78,413,646,45,107
147,464,21,89,406,626,42,99
148,418,19,92,384,573,44,103
131,404,21,83,417,641,40,96
125,437,23,85,448,651,49,96
120,488,24,87,449,674,51,98
135,493,24,81,452,652,52,120
137,483,26,83,466,685,51,119
144,488,26,85,455,622,50,114
151,464,26,83,424,614,47,118
147,443,25,80,445,593,46,112
155,400,23,66,423,580,45,90
161,430,24,57,417,554,45,99
169,475,24,72,428,581,49,102
165,493,23,73,446,628,44,100
167,465,23,74,413,580,42,89
161,468,23,79,401,582,39,93
161,457,22,82,420,561,46,99
152,422,19,69,415,586,47,103
156,496,22,69,419,610,51,108
149,503,23,66,431,618,51,113
157,519,23,60,441,624,54,119
149,510,24,56,437,645,47,103
133,510,23,56,430,668,48,111
146,428,23,55,426,617,46,106
151,403,22,55,402,623,45,103
133,400,22,55,425,628,42,104
148,448,21,55,439,638,47,108
175,475,24,54,456,634,43,95
158,493,22,55,455,642,43,91
160,500,23,55,447,619,41,85
157,472,23,54,446,618,41,73
143,458,22,53,440,633,40,74
139,480,22,50,419,572,40,76
139,525,21,54,483,661,42,82
146,528,21,55,510,696,46,88
148,540,21,52,495,698,47,91
164,555,23,53,488,684,45,98
150,523,22,62,484,684,47,111
153,539,25,65,485,680,44,105
146,561,25,66,500,686,43,105
140,566,25,65,509,712,43,106
125,528,25,64,502,690,41,102
122,518,25,63,500,687,40,85
117,450,23,55,452,622,53,89
123,507,24,54,457,670,54,85
144,536,24,57,465,681,53,94
149,573,23,58,452,681,54,88
144,543,24,49,436,661,54,93
159,526,24,51,447,659,48,104
167,453,24,52,445,605,45,111
165,499,23,57,534,663,45,100
166,473,24,59,551,680,42,103
175,482,24,60,557,690,41,100
183,472,25,61,539,668,38,104
188,513,25,66,537,672,42,103
177,560,26,66,550,746,43,100
168,623,26,66,585,826,44,96
169,647,24,73,618,873,44,107
157,665,24,76,626,891,47,90
136,657,23,82,609,885,56,94
148,546,22,80,493,731,55,98
154,459,21,82,439,614,57,99
150,443,22,77,390,573,59,85
158,462,20,77,345,523,52,98
161,408,21,90,311,482,38,87
163,410,21,104,338,483,39,96
163,415,21,107,350,501,41,95
157,379,23,115,362,475,44,93
146,329,23,120,383,522,45,82
158,338,25,112,396,524,44,84
149,344,24,98,392,522,44,73
161,350,25,116,369,494,44,82
166,379,23,115,369,485,37,95
164,355,23,105,350,422,38,93
194,369,22,96,331,401,39,98
190,352,24,97,303,387,41,97
195,333,21,65,308,387,38,92
199,298,20,55,294,385,37,88
195,317,19,56,297,405,37,88
153,292,18,56,295,402,37,80
163,273,18,55,316,416,39,96
139,285,20,54,340,446,36,98
145,317,21,52,343,450,36,103
154,304,23,64,337,446,52,109
154,325,23,75,360,465,56,109
173,353,24,77,376,479,55,111
198,344,24,81,353,491,55,107
197,361,23,86,355,506,56,98
206,376,24,77,356,505,40,97
219,378,23,85,339,514,41,109
230,381,23,93,310,510,38,114
238,438,24,96,302,482,39,116
234,426,24,95,282,474,39,112
245,430,25,104,281,475,38,113
263,425,24,90,280,459,30,107
234,449,24,84,310,478,31,87
229,408,24,78,342,485,42,92
249,423,26,75,353,479,41,98
249,438,23,68,354,498,45,107
225,422,25,68,360,515,48,98
248,374,23,77,351,487,48,106
232,391,22,82,332,504,40,105
210,383,20,82,344,525,41,127
200,363,21,79,371,554,44,126
205,377,20,81,396,589,41,136
208,395,24,76,417,609,39,129
211,376,24,71,426,613,37,124
212,355,25,78,433,613,41,99
205,367,26,82,407,569,38,88
217,382,26,83,392,551,37,81
205,427,25,81,372,562,36,85
202,440,23,87,359,531,37,91
230,463,24,83,341,512,37,101
258,477,23,86,349,520,33,102
239,470,25,86,329,474,42,102
240,422,25,93,322,444,51,108
265,396,26,92,340,473,51,110
249,375,26,92,339,476,55,107
242,359,25,92,352,482,56,103
261,366,23,100,421,545,50,112
276,422,22,95,427,558,45,106
256,423,23,94,422,551,46,102
257,456,23,94,441,584,39,102
244,454,23,91,431,572,43,105
239,458,24,79,380,529,44,103
212,440,26,85,390,518,42,107
212,423,25,82,372,488,48,122
220,406,26,81,354,442,45,122
228,441,28,81,347,437,41,122
234,439,27,79,327,414,46,128
242,423,25,77,306,399,48,139
240,456,25,77,330,418,42,129
257,453,26,74,335,455,46,130
241,412,24,84,338,453,47,127
242,394,25,85,352,462,43,121
239,390,26,74,336,453,41,111
234,501,24,83,331,516,44,120
210,741,23,90,460,726,43,131
223,834,22,81,503,904,45,141
216,866,22,82,556,974,50,142
207,905,20,87,631,1048,53,133
206,871,21,83,677,1062,52,126
188,746,21,73,632,971,53,114
177,705,24,72,630,873,51,104
158,698,26,116,606,831,49,113
174,663,28,127,562,759,46,130
180,625,27,125,502,697,48,123
185,603,28,128,464,690,46,134
189,698,26,129,507,784,44,144
182,755,24,94,525,881,44,137
191,766,21,79,511,909,44,124
226,785,22,76,527,933,45,139
226,747,21,90,527,912,43,127
222,608,21,94,470,812,53,130
223,495,23,87,426,688,50,117
204,441,23,84,425,667,50,122
165,396,25,86,405,636,51,105
165,431,23,83,398,625,53,114
165,457,23,80,402,614,44,105
177,502,22,87,441,639,44,118
190,555,23,94,426,638,44,114
211,575,23,100,457,698,39,133
205,577,25,101,488,709,44,127
200,551,27,106,488,694,45,122
190,539,27,99,453,659,51,119
187,485,28,94,446,618,50,133
173,518,27,93,455,617,51,114
176,530,26,76,416,587,50,112
211,555,26,73,417,603,48,124
235,533,27,72,409,598,42,118
264,569,26,83,414,631,41,116
263,542,24,82,406,605,42,120
261,555,27,92,429,620,40,128
250,550,26,98,390,580,41,113
244,557,23,115,401,575,47,114
222,523,24,111,403,560,47,99
250,562,26,108,382,587,56,112
256,564,26,102,380,597,56,118
255,579,27,92,387,601,59,124
253,563,28,77,378,611,60,134
262,583,29,76,409,616,63,140
247,585,27,85,417,571,53,135
296,558,25,104,384,528,55,132
315,546,26,108,388,522,54,136
355,574,25,109,403,540,49,138
374,613,24,114,390,579,46,135
391,594,24,120,425,613,51,133
384,614,24,104,474,653,52,132
372,624,23,117,486,682,48,125
364,639,26,139,481,671,50,122
384,727,26,144,534,747,53,128
393,776,27,144,522,785,54,132
385,803,26,155,529,807,52,124
400,809,25,150,542,817,52,124
427,829,22,137,552,831,54,129
389,721,23,157,491,725,49,116
363,639,23,157,495,677,45,106
362,563,27,152,449,601,43,114
353,511,27,162,401,542,50,122
300,437,29,169,384,487,45,106
289,417,26,154,441,467,50,111
352,480,26,170,408,394,50,117
365,479,23,170,442,442,50,117
386,562,24,189,446,441,44,122
402,582,23,206,427,478,45,134
434,592,25,204,353,500,44,150
396,582,25,199,322,482,47,159
430,586,26,226,259,454,53,181
425,499,26,218,269,468,52,174
400,467,26,201,282,428,51,166
372,471,27,209,287,400,57,151
381,422,26,206,330,442,54,146
313,408,28,215,343,417,55,114
294,404,29,225,383,447,56,117
329,417,29,235,397,478,58,119
351,404,26,235,419,506,50,124
314,390,27,240,421,532,51,111
332,369,24,213,465,569,41,108
321,358,23,198,429,540,42,102
281,361,24,181,429,561,40,107
234,342,24,184,410,550,46,98
249,334,24,188,372,496,43,101
225,328,26,179,300,463,43,100
199,314,26,158,344,484,46,105
188,263,24,154,312,443,48,93
221,285,26,151,343,448,44,94
231,306,27,136,385,501,46,92
214,299,25,154,408,525,59,93
215,304,24,171,410,534,56,78
212,312,25,170,427,549,54,79
201,293,24,152,398,568,50,88
193,340,24,145,381,560,50,101
208,371,25,118,368,556,36,110
209,396,25,94,324,544,34,120
231,409,26,92,343,550,35,122
279,423,25,85,368,542,35,123
268,397,25,74,378,547,34,129
257,403,24,76,416,553,36,117
279,403,23,78,435,564,40,110
268,392,21,80,416,568,40,114
211,396,21,82,412,568,41,109
218,393,19,77,388,561,42,102
272,345,19,69,346,561,46,104
261,328,22,68,353,552,42,115
270,343,25,59,355,532,43,119
261,309,24,55,332,511,44,116
252,286,24,54,343,494,41,104
202,288,24,50,332,490,36,102
195,313,22,46,315,491,38,87
181,290,21,46,317,499,48,105
184,304,25,47,331,525,49,109
186,328,26,51,356,567,54,114
168,341,27,54,392,581,55,113
157,327,27,52,411,598,56,116
154,351,28,54,415,617,47,90
147,372,26,60,413,614,49,86
134,343,26,70,390,581,42,95
148,352,26,84,356,544,41,99
144,334,26,103,337,525,43,100
129,298,24,112,323,509,46,109
115,285,24,111,349,539,42,110
102,290,22,121,342,538,49,108
74,263,20,121,341,569,54,106
70,268,20,109,368,575,48,101
64,283,21,103,381,574,46,86
71,268,21,111,365,561,45,78
78,269,23,97,382,580,39,56
84,277,24,101,382,579,41,53
83,262,25,100,338,566,46,73
85,270,23,98,446,549,52,75
83,299,24,93,626,524,56,76
77,314,25,95,672,522,54,74
70,307,24,94,677,519,52,74
74,338,26,115,703,566,54,64
83,333,26,118,625,586,52,86
110,335,30,124,449,606,55,97
107,313,32,119,375,605,55,97
106,342,32,110,382,602,52,95
109,310,40,83,342,549,57,92
106,325,42,78,361,541,56,73
88,299,78,74,329,505,56,77
96,299,82,74,304,477,57,80
103,293,91,78,283,473,62,80
106,290,91,82,273,463,54,76
103,273,90,79,264,451,56,79
91,271,61,67,291,475,51,66
99,272,54,67,309,482,51,80
107,253,35,59,319,492,49,80
111,318,24,59,362,587,53,110
115,345,23,60,404,652,55,125
143,376,21,64,444,698,54,133
176,422,23,74,470,716,55,149
177,425,22,77,479,712,52,164
175,416,23,79,448,638,42,152
179,395,22,76,417,589,40,141
193,370,25,77,354,514,44,145
209,341,25,74,310,472,43,138
247,376,28,76,305,460,44,136
257,412,30,77,315,474,47,137
272,412,30,81,330,469,41,150
310,426,29,90,352,473,41,155
318,449,29,82,360,495,40,154
413,461,28,85,347,501,42,160
438,434,27,91,360,507,42,173
472,478,27,97,351,500,51,181
471,469,28,112,334,488,47,176
521,562,29,136,349,484,51,201
461,555,28,136,342,468,51,192
496,585,29,145,349,454,60,193
516,578,28,144,372,446,52,194
517,612,28,141,382,464,57,196
508,503,28,133,377,462,54,169
511,507,27,131,399,469,53,171
478,488,26,127,400,473,42,166
475,523,28,143,396,470,46,161
455,515,27,131,378,454,41,150
406,528,26,120,362,443,47,157
385,520,24,125,369,450,53,163
398,511,25,125,350,446,52,159
397,497,26,106,331,462,49,150
391,490,26,107,355,499,52,151
377,489,27,105,347,515,46,136
378,459,27,104,331,521,39,120
340,453,26,90,333,530,38,114
259,438,24,101,340,579,47,106
278,414,24,96,341,562,46,118
287,413,24,94,359,541,55,113
287,449,24,91,384,539,54,105
283,431,23,96,403,537,57,113
306,397,22,84,423,479,53,131
325,412,24,90,423,503,53,140
331,408,23,94,419,543,44,147
329,415,24,100,389,540,45,156
332,453,24,95,370,543,44,149
316,447,25,94,344,558,49,132
325,487,26,113,341,543,50,118
300,481,25,111,338,522,50,113
280,456,28,106,335,525,52,99
273,423,28,104,326,522,52,100
263,441,30,108,312,519,45,106
192,421,28,88,298,516,41,110
198,415,29,105,299,509,41,115
199,407,27,108,295,500,55,130
193,413,27,122,316,515,54,127
211,399,24,123,329,502,54,123
208,362,24,118,343,512,55,108
201,365,24,114,359,535,53,105
254,391,22,117,369,537,42,95
256,379,21,103,385,535,46,99
247,364,22,99,406,555,48,100
278,367,22,105,398,546,48,102
284,365,22,96,390,532,53,114
242,379,22,94,397,549,47,110
273,430,23,95,366,535,43,111
323,459,22,96,340,508,57,119
303,444,21,96,353,539,58,122
304,441,23,90,350,537,55,107
307,391,21,77,341,518,55,107
285,407,22,75,376,542,55,99
216,373,22,72,375,550,39,84
220,390,24,65,367,517,42,89
217,389,21,69,383,539,40,88
206,456,22,72,397,557,40,86
197,381,21,83,402,545,44,91
230,411,23,85,413,568,46,93
224,396,21,85,420,573,42,87
218,407,22,85,438,579,41,92
218,366,22,88,454,587,39,93
239,377,22,88,417,566,34,97
210,398,22,89,408,546,36,115
191,418,23,97,434,541,39,110
200,414,22,105,385,491,40,105
201,419,24,111,356,463,44,101
171,419,26,102,359,465,44,100
158,386,24,101,356,449,39,72
165,359,23,119,300,439,38,78
173,347,24,114,314,448,41,82
178,367,24,117,313,442,47,111
185,405,21,127,345,458,49,110
209,505,23,126,335,530,51,116
228,768,24,109,498,834,49,116
229,837,25,111,577,989,51,117
225,852,26,101,611,1044,47,117
219,889,25,86,630,1067,47,117
202,852,25,108,652,1054,48,117
192,648,25,103,557,867,46,119
175,584,23,98,494,705,42,118
186,598,23,99,487,684,37,96
193,547,23,107,486,685,36,96
192,527,24,91,456,655,44,100
213,531,25,96,426,601,47,97
209,554,24,98,410,651,49,95
213,717,26,98,485,792,51,93
207,750,25,92,491,911,51,84
217,765,24,87,518,953,46,82
200,802,25,84,581,1017,47,90
205,831,25,86,621,1022,48,94
209,689,24,82,574,926,47,96
201,668,24,80,548,822,47,95
188,670,23,75,557,800,45,90
208,615,20,74,515,728,51,89
210,545,21,67,472,660,51,88
182,479,21,72,417,568,49,79
177,424,22,74,404,488,49,80
177,371,23,78,384,441,47,76
130,366,23,77,369,431,40,67
109,319,24,74,359,406,40,72
130,502,23,73,384,516,44,83
161,769,24,72,556,854,44,94
173,819,23,70,565,912,43,96
176,812,22,64,562,909,48,108
182,829,22,64,569,921,45,125
186,791,23,62,555,897,45,126
159,686,21,56,454,751,45,121
157,735,21,58,525,838,53,140
148,780,22,59,567,903,49,127
147,804,22,59,575,934,52,109
145,771,23,58,579,936,56,124
144,649,23,59,522,827,59,128
146,546,22,56,416,665,55,108
170,482,22,55,356,576,53,111
165,409,22,53,347,513,50,107
187,409,22,51,343,461,44,85
200,393,23,53,349,438,44,86
191,370,24,51,355,420,43,82
171,363,23,48,340,410,45,76
188,365,22,50,327,431,43,76
166,335,21,50,317,417,50,86
163,319,21,45,282,381,48,77
177,310,20,46,273,371,48,84
173,310,21,51,314,415,45,87
158,320,22,51,322,426,55,98
163,297,24,50,332,456,45,89
148,304,22,51,346,473,45,95
136,296,23,50,343,514,52,92
151,297,23,50,330,507,53,93
150,295,23,52,330,488,47,79
139,346,23,53,315,474,50,77
185,363,26,55,337,505,53,73
198,385,26,56,342,465,45,80
188,394,26,53,320,453,47,85
194,403,25,51,331,475,49,89
200,378,25,51,326,448,52,90
163,352,24,51,300,415,50,85
156,337,24,51,310,444,54,88
184,332,24,51,319,443,52,90
179,319,24,52,302,426,48,106
164,279,23,48,314,448,42,107
163,275,23,49,315,452,41,120
181,307,22,51,311,452,39,114
158,296,22,53,329,468,38,114
151,298,22,54,339,474,42,99
155,332,24,60,368,522,41,96
160,358,22,60,381,525,43,77
121,328,24,58,367,496,46,100
131,359,26,60,363,494,47,106
160,378,27,61,369,508,46,110
160,354,27,58,332,455,50,116
160,350,28,55,334,469,48,124
182,377,26,58,376,519,41,110
165,339,25,52,363,528,40,96
153,312,24,51,349,512,43,89
152,323,24,51,363,524,38,88
154,288,23,51,342,504,39,83
128,222,24,45,308,476,38,76
133,242,24,46,313,459,38,76
159,281,24,46,304,460,32,105
171,297,23,46,297,455,35,98
168,320,24,47,324,479,38,100
176,343,24,50,322,505,49,101
178,352,25,53,338,540,47,107
157,320,26,52,348,550,49,83
140,320,26,50,379,624,46,84
136,346,25,54,402,673,57,90
132,361,26,56,410,670,48,93
126,361,26,54,396,664,51,95
109,367,24,54,392,666,54,98
109,379,25,58,372,621,54,105
112,357,24,53,338,589,43,96
123,355,22,52,356,603,47,95
132,372,23,55,352,594,48,84
154,372,22,59,356,603,45,94
176,521,24,61,353,710,48,90
175,780,25,70,512,856,48,105
190,880,27,80,582,992,45,111
185,930,25,81,630,1059,40,117
165,954,24,82,665,1103,40,108
154,913,24,84,679,1044,42,113
157,724,21,79,581,932,47,104
135,597,20,70,508,797,53,109
133,499,19,64,460,700,54,105
146,450,20,62,398,607,52,102
131,374,17,51,368,588,51,93
123,330,18,51,366,575,49,89
117,304,18,48,354,544,41,74
126,309,21,55,363,569,39,83
120,317,22,53,400,600,43,95
121,289,24,61,406,603,41,101
134,310,23,61,420,603,36,104
127,326,24,63,409,582,34,105
137,363,22,63,395,588,41,101
131,370,21,63,361,574,39,113
138,393,22,57,354,576,39,113
130,393,25,59,317,564,38,108
132,509,24,58,361,652,43,105
118,722,25,67,475,795,37,102
114,826,26,69,549,885,35,86
116,892,25,73,568,931,44,90
111,889,24,76,581,970,46,99
114,843,23,78,568,951,45,101
116,676,23,69,483,836,49,100
127,566,23,65,393,741,48,88
121,441,23,63,373,686,42,82
128,444,22,61,373,659,42,77
125,421,22,56,358,622,47,92
129,386,21,57,348,612,43,97
131,462,22,60,370,641,44,109
139,732,22,72,537,854,40,108
146,796,23,70,553,907,40,105
157,836,24,75,584,973,29,89
165,878,24,74,605,981,29,81
160,818,23,71,590,941,41,78
169,612,23,55,453,729,42,76
179,565,22,53,456,687,44,85
175,552,23,47,452,683,45,93
162,490,21,43,445,675,47,98
158,509,21,41,455,689,42,88
159,479,22,41,435,685,49,87
142,446,22,43,422,665,45,83
135,400,21,43,400,583,44,76
148,474,22,46,442,659,44,80
156,490,22,54,462,691,61,85
143,492,23,55,462,716,55,94
152,501,22,57,446,676,57,94
152,501,24,62,440,670,66,93
155,491,24,62,441,675,72,88
165,507,25,62,439,673,64,94
163,527,25,67,458,666,65,91
168,497,25,66,454,679,69,102
210,534,24,60,464,709,67,111
222,570,24,63,445,685,61,117
218,573,24,57,452,682,53,120
231,584,24,55,452,689,56,118
246,624,25,61,467,700,60,118
228,614,24,66,452,649,57,121
222,545,25,69,441,625,57,122
222,578,26,75,482,682,60,116
242,600,25,73,476,680,56,118
224,600,24,69,467,673,46,112
207,566,25,67,454,657,42,111
215,588,24,67,456,641,43,106
222,602,22,66,439,679,40,106
213,583,22,72,448,699,40,109
230,539,22,71,419,667,48,101
272,539,22,70,435,677,50,101
270,614,22,69,464,733,49,119
280,591,22,65,429,630,49,126
293,577,24,69,418,585,49,120
284,591,23,75,442,609,39,121
299,610,24,73,448,639,36,112
342,567,24,72,408,605,34,113
354,603,26,72,474,646,37,105
326,581,25,63,495,633,41,113
329,579,26,54,483,646,46,113
332,571,25,57,484,649,43,125
293,503,26,54,490,601,45,111
308,446,24,61,444,601,50,135
329,505,22,64,492,712,56,150
335,590,23,67,496,742,54,151
295,628,24,70,536,763,56,143
296,651,24,71,557,804,56,155
312,630,24,67,564,799,57,139
304,620,25,64,525,757,54,118
285,582,23,66,549,747,53,119
284,556,25,66,508,717,55,127
277,533,24,62,462,662,55,109
211,526,23,62,427,635,59,105
202,507,23,62,398,606,60,104
218,464,24,62,359,572,62,125
206,426,23,58,349,564,63,132
217,410,23,59,348,556,61,156
207,397,24,56,365,550,48,156
195,395,23,59,353,539,44,156
205,382,23,57,346,516,43,139
235,384,24,56,358,518,39,126
221,396,24,59,368,537,41,95
224,392,25,63,346,528,44,86
236,374,26,60,352,526,40,94
222,413,26,61,388,562,40,88
203,419,24,65,377,560,43,98
191,398,24,68,376,549,44,101
192,375,23,64,396,568,45,119
178,395,24,72,394,574,47,115
175,380,24,74,396,566,54,119
185,402,26,75,414,585,50,113
202,437,29,71,405,572,54,117
218,448,28,75,383,535,51,108
215,472,27,68,383,529,53,110
213,436,26,63,344,482,46,112
207,419,24,62,311,427,48,106
218,447,19,62,310,435,41,97
192,437,20,58,287,425,42,87
199,393,19,60,268,393,35,71
217,458,21,67,334,474,34,94
202,452,21,74,377,511,33,100
174,427,23,72,437,543,47,109
183,445,23,74,464,582,48,113
182,435,24,72,475,606,48,127
181,372,23,69,460,587,47,113
186,389,22,65,440,591,47,110
180,330,21,67,388,565,33,98
175,317,21,65,386,551,32,91
188,313,21,67,388,545,31,78
167,329,22,66,377,518,35,73
153,316,21,61,378,505,31,72
184,328,22,54,368,504,31,72
181,335,22,56,362,501,32,76
164,345,22,58,369,496,32,86
169,351,20,57,426,519,32,81
181,360,21,61,422,506,34,86
148,347,20,63,428,505,33,92
158,336,21,63,417,497,36,93
170,331,21,57,405,493,39,93
174,397,21,55,331,537,46,104
178,709,20,62,555,823,51,108
175,791,21,64,620,1007,53,102
187,850,21,63,669,1079,57,102
169,862,21,66,684,1093,56,90
158,851,22,71,699,1089,52,110
151,623,23,64,546,916,49,103
159,588,23,69,496,752,49,103
151,523,26,68,450,675,41,108
193,511,26,66,431,647,46,131
195,483,25,63,403,597,48,117
193,472,24,58,381,546,50,117
195,397,22,48,329,463,47,120
195,376,19,52,289,389,47,111
155,369,19,53,279,378,40,85
161,375,19,52,283,380,38,85
179,407,19,52,300,405,30,98
184,417,22,59,324,419,37,98
175,413,23,53,346,434,38,105
185,405,21,53,357,443,40,115
183,388,21,55,372,442,38,109
172,321,21,55,384,436,46,98
224,320,20,52,396,439,48,109
237,362,21,54,396,433,47,108
244,403,24,53,383,419,53,111
292,416,25,51,369,421,52,113
306,472,26,51,345,394,49,116
295,490,26,53,299,367,56,106
285,461,26,53,282,364,57,106
302,496,25,61,285,363,52,93
262,492,26,68,278,346,55,112
255,459,25,69,298,353,55,138
238,462,29,72,314,357,47,178
248,464,28,71,301,360,51,199
234,402,29,67,320,371,54,206
256,405,28,59,311,353,52,194
261,396,29,61,280,346,52,184
310,375,28,58,376,336,53,167
336,421,29,61,445,340,50,146
457,466,30,65,521,355,46,157
508,491,32,72,543,381,50,206
521,611,31,75,572,414,47,201
498,619,28,76,531,455,42,185
542,630,30,77,498,455,53,213
480,598,28,76,414,439,61,245
552,621,30,79,393,450,63,230
568,570,32,77,365,424,64,240
615,586,33,78,328,376,72,254
580,580,31,79,296,382,69,257
621,641,31,76,274,369,63,222
526,616,27,69,264,336,58,210
496,558,25,68,251,333,74,197
436,548,26,71,263,341,68,188
447,523,25,67,281,351,64,157
353,448,25,73,309,407,66,150
410,436,26,73,322,413,69,151
515,493,25,76,355,445,62,181
533,477,26,72,361,479,64,179
544,473,25,76,355,458,67,186
556,494,27,71,350,434,65,197
503,486,27,72,352,460,62,189
423,412,28,73,324,430,59,179
460,504,29,71,359,420,54,193
445,521,30,71,401,439,53,185
456,541,30,77,403,426,57,175
452,575,31,76,401,411,62,175
425,578,30,71,413,435,63,170
396,516,27,74,379,431,75,173
362,481,28,77,347,449,88,180
313,430,26,78,334,461,92,175
292,354,26,86,313,452,91,171
301,355,26,88,286,430,90,151
272,355,29,98,298,427,85,124
303,366,29,96,262,382,75,110
313,380,29,89,269,362,69,110
368,414,29,83,308,386,69,133
362,407,29,84,307,395,72,151
353,418,29,77,327,405,68,157
323,439,29,74,395,469,78,169
327,427,27,80,380,489,80,174
280,413,27,77,382,507,82,154
271,435,27,75,400,528,85,142
263,423,26,70,361,521,90,173
272,400,26,71,312,492,78,166
283,399,26,68,335,499,73,163
299,437,25,65,346,582,73,169
337,440,25,69,370,608,66,171
335,412,22,68,388,621,62,133
382,480,21,67,383,622,63,142
414,555,23,70,393,634,65,145
409,598,24,69,380,551,59,167
452,642,25,74,370,544,74,177
468,670,27,71,366,552,75,178
468,630,30,74,373,574,77,170
441,584,29,72,358,570,87,164
478,560,35,97,342,561,88,172
430,544,36,91,321,531,78,153
440,528,35,96,334,535,87,160
407,532,34,91,327,509,91,177
422,556,35,108,338,516,83,191
428,511,28,87,347,527,97,165
459,521,30,105,364,537,99,201
482,608,32,110,361,534,88,202
505,623,32,112,373,565,96,189
509,605,30,93,365,561,102,175
479,618,33,96,373,587,90,177
447,566,29,73,363,591,89,145
421,450,28,65,341,571,88,134
387,435,28,62,341,563,75,125
383,424,29,72,337,545,64,140
398,437,29,70,309,499,65,133
410,469,31,77,340,516,55,128
400,473,29,78,368,536,55,131
416,445,29,79,355,518,52,138
417,460,28,75,397,546,51,128
378,439,25,77,420,572,52,134
365,426,23,74,401,572,59,143
354,443,24,78,407,578,61,143
347,444,26,81,421,582,58,144
319,427,24,82,384,572,58,145
315,396,25,76,375,540,62,142
287,387,26,75,359,505,53,128
266,385,25,66,326,477,49,122
265,399,23,65,295,455,50,114
272,380,23,59,304,439,53,113
289,483,24,61,333,533,48,109
290,513,25,66,330,552,50,117
284,499,24,64,364,602,58,126
289,535,24,63,384,622,59,143
287,548,26,67,392,642,55,136
282,456,24,65,360,579,53,141
282,445,23,66,368,584,55,140
306,443,24,66,351,544,53,135
269,379,23,65,340,525,53,124
234,370,22,66,339,518,82,154
307,396,24,68,349,530,80,166
327,412,27,66,361,525,80,163
324,453,28,65,370,533,84,162
344,480,29,66,378,551,84,160
356,479,29,66,369,537,65,138
284,465,28,63,364,543,64,120
278,423,26,62,347,537,76,124
267,389,26,64,320,515,66,128
270,398,26,57,305,512,65,132
327,428,25,54,292,504,67,154
349,461,24,57,270,465,68,156
345,469,23,57,275,464,57,167
343,479,22,56,265,459,66,178
325,495,23,56,262,439,66,170
275,464,25,63,311,500,59,142
243,431,24,66,325,528,64,155
233,452,25,69,354,548,61,139
213,431,24,67,399,576,57,136
203,374,23,79,411,595,56,130
168,384,21,78,408,564,53,131
170,400,24,73,436,570,51,108
172,363,24,66,410,547,55,118
175,376,25,70,385,510,48,127
181,410,25,62,383,497,49,155
224,419,27,73,342,478,58,165
224,404,25,73,316,458,53,170
216,430,24,80,337,460,64,174
220,397,23,83,329,480,65,170
215,370,23,88,323,480,70,152
215,371,25,79,337,478,64,144
250,390,26,88,321,472,65,155
258,384,27,88,326,467,54,155
252,388,29,84,351,448,56,147
249,403,29,78,347,442,46,145
218,415,27,76,354,449,46,141
181,416,27,67,375,454,42,125
223,449,26,65,344,454,36,109
241,485,23,65,370,532,34,101
260,473,22,72,381,566,37,104
263,461,22,82,389,593,36,107
251,451,22,82,392,586,46,115
212,415,23,85,421,581,66,140
218,389,25,88,383,530,66,134
233,436,26,83,384,488,65,132
222,441,25,76,367,434,72,142
258,468,27,73,348,442,74,141
269,462,26,77,322,431,65,142
276,467,26,76,320,402,69,148
261,428,25,74,298,395,69,148
292,420,25,76,301,407,63,142
295,450,25,102,298,387,58,151
280,451,25,109,302,403,63,130
294,504,26,111,320,419,64,121
358,608,32,146,324,417,67,146
407,616,34,151,336,428,67,152
395,592,33,137,361,446,63,138
416,608,33,128,369,448,53,138
412,553,31,144,365,466,43,137
400,488,26,128,390,501,41,120
367,530,26,137,377,512,41,123
390,575,27,146,371,533,43,139
381,591,27,147,357,529,38,144
374,621,28,150,332,498,42,153
349,604,28,140,313,490,43,153
512,644,30,152,308,459,47,193
555,630,30,156,285,418,46,189
592,624,29,160,285,435,48,202
643,640,33,147,290,456,50,217
716,645,34,154,271,420,53,238
636,561,30,128,289,448,49,207
667,544,36,126,285,450,53,223
693,603,40,129,276,417,54,222
729,670,38,127,298,430,57,234
718,690,41,137,359,525,56,244
697,702,41,141,369,525,55,242
655,718,38,135,424,572,55,234
630,670,35,133,452,602,53,236
544,565,35,129,441,590,48,208
550,569,31,111,429,547,46,220
575,599,30,114,424,558,46,230
555,567,29,107,401,531,43,251
512,554,25,98,386,525,42,238
542,594,24,107,392,524,40,252
466,594,24,108,366,511,38,224
429,587,26,98,388,510,38,210
452,650,27,102,357,511,35,180
459,647,29,101,350,495,44,199
410,629,28,94,353,503,44,186
408,635,29,87,348,493,42,169
399,592,29,89,315,469,44,169
358,577,31,95,335,481,47,160
371,586,33,96,343,493,40,141
426,675,34,100,347,494,45,175
433,682,35,96,360,500,49,193
439,699,34,94,361,498,47,193
448,683,32,84,366,486,45,210
442,678,32,86,406,476,47,209
390,568,32,89,384,465,42,193
425,591,31,88,380,467,38,206
452,604,33,95,372,455,43,227
439,582,32,97,350,437,47,224
528,666,35,107,330,452,45,233
534,686,34,99,340,445,51,228
520,702,37,105,329,445,50,200
505,727,36,108,343,458,50,185
494,714,35,108,336,451,48,180
419,625,32,103,314,437,49,185
398,590,32,101,314,426,43,176
326,465,28,97,323,422,42,166
384,415,30,96,314,426,39,178
450,446,32,98,322,435,35,203
409,426,29,88,317,417,39,186
428,497,30,92,341,448,38,181
444,514,30,95,334,432,41,197
382,492,26,84,338,418,43,188
295,472,27,86,348,429,47,170
340,555,29,94,426,524,44,194
349,544,28,95,445,573,45,204
470,601,30,94,439,564,45,226
483,636,30,98,426,553,44,244
514,634,30,101,410,540,43,249
484,562,29,92,332,459,41,229
516,595,30,99,283,380,48,231
404,520,27,93,284,380,45,201
361,475,26,91,300,403,44,181
404,474,26,85,314,419,49,175
457,528,28,87,304,404,53,186
424,460,27,74,320,385,48,179
426,461,27,70,328,399,51,196
459,470,28,73,333,383,53,193
395,443,27,72,332,358,50,183
355,391,26,70,342,376,44,169
328,374,26,73,327,380,48,160
312,393,29,77,378,397,47,141
267,415,29,76,377,431,45,122
271,444,28,71,368,426,47,113
320,491,29,74,369,422,47,132
350,487,28,74,375,433,46,147
357,457,25,70,315,408,49,154
379,448,24,68,321,386,48,176
382,480,26,72,342,405,42,185
338,457,26,67,329,386,45,196
298,483,27,67,342,395,41,194
290,522,30,73,348,416,37,183
269,502,31,78,338,412,39,189
288,489,30,78,339,394,45,177
306,459,28,76,336,402,43,150
408,523,30,83,318,383,42,177
413,497,29,82,330,371,49,195
405,494,29,78,335,368,48,178
380,463,29,76,339,392,45,195
357,464,30,78,369,418,50,201
273,381,29,75,380,437,51,178
277,433,28,82,363,431,47,181
381,496,28,87,350,426,47,193
389,539,28,90,321,415,48,186
382,542,27,90,285,388,43,181
376,557,26,90,263,354,53,188
384,521,26,78,259,349,51,183
288,455,26,71,259,325,53,175
281,389,27,65,273,306,58,162
296,368,25,66,299,319,58,177
287,318,25,59,301,322,52,169
261,308,26,73,324,342,51,151
254,315,24,73,339,374,49,147
263,390,24,81,345,393,45,161
248,397,25,80,352,405,43,159
230,407,27,91,374,440,47,150
245,398,25,85,365,432,48,149
243,425,25,90,380,439,48,141
293,409,26,94,394,450,47,170
322,415,26,98,382,443,64,183
329,430,25,92,384,430,60,190
345,520,29,98,400,439,63,210
357,552,30,98,372,424,65,211
293,541,31,84,351,419,75,174
287,565,31,82,367,438,62,198
291,568,31,82,330,418,63,190
273,510,28,75,311,415,63,181
286,481,26,70,320,440,64,182
324,472,26,74,316,429,48,194
312,448,27,79,286,403,47,162
296,452,28,86,316,414,44,160
316,464,28,92,309,412,41,153
307,440,30,100,304,394,42,145
301,452,28,103,321,418,57,125
320,466,29,112,341,451,58,100
321,440,28,115,358,486,63,132
291,451,28,114,390,516,70,137
298,456,27,118,407,547,72,145
271,454,26,117,406,546,60,152
239,423,25,111,390,537,62,156
227,415,25,105,365,523,58,131
246,409,25,107,339,499,48,127
238,445,25,109,328,465,42,132
220,412,24,112,310,456,58,137
221,424,24,109,314,456,54,133
228,423,25,116,322,463,54,132
205,389,27,110,327,489,54,118
192,339,25,101,340,531,53,107
220,360,28,98,356,546,38,112
243,377,27,104,351,558,40,108
259,379,28,118,347,563,49,115
293,477,29,128,345,560,51,120
300,478,30,131,323,553,52,122
290,488,30,137,305,535,51,131
275,503,32,147,368,588,50,130
263,505,33,152,387,589,48,125
265,451,32,158,406,585,51,141
308,566,31,162,454,604,54,149
316,570,30,165,480,624,53,125
313,553,28,157,444,579,56,124
310,598,28,154,472,605,50,132
298,567,28,141,462,617,42,112
259,482,28,138,421,598,44,106
281,502,26,128,406,597,46,118
278,517,28,143,398,591,42,126
285,476,26,125,504,540,46,138
261,506,26,129,997,527,50,143
276,466,25,123,1192,522,46,151
242,411,24,119,1467,501,47,150
255,371,26,121,1532,496,46,147
305,456,26,139,1496,520,53,139
314,437,26,132,1217,525,53,144
300,441,28,136,1143,541,51,133
331,494,29,150,893,578,53,131
318,494,27,129,817,590,54,149
275,408,26,106,818,598,48,157
293,412,27,137,818,575,46,168
289,410,26,156,660,552,61,165
248,342,23,145,648,525,61,164
265,385,28,146,641,501,64,154
260,405,28,147,672,476,61,133
246,417,29,122,712,502,64,118
244,414,30,92,715,499,52,118
289,441,31,85,573,507,52,118
272,411,27,87,534,529,54,105
268,397,28,84,470,543,54,117
257,380,26,109,429,541,55,115
245,366,27,123,421,550,57,128
215,349,26,124,394,532,53,128
214,351,27,125,373,516,58,154
206,333,26,130,362,508,57,146
202,303,24,115,326,480,56,156
215,359,24,112,289,479,54,154
193,362,25,125,270,496,55,159
192,354,25,126,280,502,48,139
208,388,26,131,307,515,53,141
204,400,27,123,314,532,51,127
204,396,26,117,372,613,53,118
224,401,25,100,409,669,55,162
235,421,25,101,394,673,55,160
229,405,23,92,390,674,50,184
231,392,24,93,407,687,50,182
237,415,25,96,386,641,49,194
224,401,25,95,364,582,47,164
215,427,25,91,377,566,58,167
210,440,26,90,362,556,58,144
220,446,25,95,359,532,58,144
196,405,24,90,354,504,56,155
181,425,23,109,387,540,62,143
173,387,20,107,410,553,51,139
223,413,22,114,438,565,52,141
239,421,23,110,447,586,54,154
234,422,25,117,436,594,55,130
246,413,26,106,417,557,52,147
253,410,30,114,390,537,50,159
212,355,29,109,375,511,47,151
188,367,29,115,367,492,49,143
191,371,29,120,383,467,55,136
183,367,29,119,396,527,54,124
182,363,24,114,407,542,56,125
166,401,24,110,392,548,67,134
158,415,25,112,398,550,65,124
176,441,24,101,389,554,62,127
171,438,24,105,361,499,60,135
175,433,26,117,358,485,60,126
175,420,26,117,374,485,51,113
179,383,25,106,352,473,51,119
161,330,27,95,332,450,46,138
154,326,27,95,325,424,45,121
158,318,26,76,327,437,51,117
163,281,25,86,328,441,51,124
156,286,25,92,361,456,56,127
150,319,24,91,374,487,55,128
157,338,24,85,388,501,57,129
138,375,23,88,384,486,55,135
140,383,24,85,369,470,60,157
164,390,26,90,368,454,54,161
178,386,24,104,348,414,56,152
201,388,25,110,484,401,57,163
197,356,27,109,571,395,59,154
207,404,28,129,623,385,48,132
205,400,26,122,640,360,46,136
200,390,27,123,663,381,52,125
210,374,26,125,578,383,46,107
210,389,25,133,505,402,41,109
213,381,22,111,455,424,42,110
204,393,23,118,424,446,47,103
204,379,22,107,409,462,42,109
190,381,24,117,400,478,42,111
197,367,24,112,391,480,43,118
178,321,25,117,423,526,50,126
192,301,26,121,415,531,50,124
189,313,29,134,415,525,52,139
183,306,28,139,412,528,66,161
198,365,32,140,399,519,65,165
224,388,31,156,346,456,68,158
233,421,31,168,349,454,67,159
250,435,28,166,330,440,62,151
262,468,28,156,314,413,50,133
271,503,24,159,317,423,49,122
266,500,23,145,328,440,48,118
258,480,22,133,317,426,46,129
253,476,24,125,352,461,49,131
251,469,25,129,358,482,49,136
240,459,27,123,351,489,50,134
251,448,28,129,358,503,40,141
246,463,30,120,366,535,41,123
300,535,30,140,369,527,44,130
316,575,30,132,406,547,43,142
331,562,29,138,406,548,50,156
341,597,30,133,415,539,50,146
387,649,29,140,427,516,52,174
351,611,27,120,401,498,52,182
349,572,29,130,365,462,53,169
330,554,27,138,362,442,46,156
386,593,29,142,354,435,46,187
343,519,28,137,356,439,52,212
338,493,30,141,358,441,45,206
320,496,28,133,354,457,48,204
336,495,29,115,360,466,50,210
232,411,28,99,348,466,50,186
215,428,27,106,336,480,46,131
260,433,25,107,350,523,49,130
272,438,24,107,376,524,47,145
266,448,24,106,390,538,54,152
271,432,20,106,394,538,55,149
280,420,21,99,397,535,54,159
237,423,24,110,390,504,52,151
219,397,25,105,370,495,58,135
203,357,25,117,362,471,48,138
214,362,25,118,355,465,45,142
207,375,26,115,347,445,51,127
199,357,24,90,345,431,55,125
191,331,24,93,349,427,45,119
185,320,23,86,342,415,45,97
165,360,26,92,355,426,45,96
171,341,26,90,350,427,39,93
172,381,26,91,355,428,38,84
181,396,26,96,367,436,40,134
173,403,26,88,382,449,41,148
172,358,23,77,368,434,41,146
168,338,22,77,367,424,39,148
165,298,22,86,359,421,40,146
161,333,23,86,334,406,40,124
169,348,21,83,317,389,41,104
169,348,22,86,341,402,40,122
168,390,23,87,343,431,42,130
179,456,24,88,428,536,44,141
168,465,25,89,461,566,44,125
202,491,26,88,482,584,44,136
201,497,26,91,470,574,46,141
202,478,25,98,475,554,46,130
225,451,25,100,397,446,40,133
231,423,24,91,354,398,41,138
197,368,23,93,394,377,50,129
206,375,25,91,400,391,51,117
218,384,25,88,390,379,52,130
202,346,24,84,414,383,51,113
198,343,27,83,410,392,57,119
207,354,28,81,353,394,49,117
197,354,26,75,335,366,46,105
182,339,26,73,336,398,42,96
180,320,26,72,299,376,43,104
171,292,22,71,329,373,34,90
162,280,24,78,344,383,45,124
159,268,24,81,352,384,47,136
152,298,24,86,366,375,48,136
129,330,22,82,378,401,47,134
134,342,24,86,357,388,47,135
149,356,21,81,353,381,38,108
143,368,21,84,374,423,40,97
164,368,24,78,369,426,41,98
184,344,24,82,368,425,42,108
199,355,25,83,384,466,41,110
188,346,24,82,376,463,49,112
189,324,24,78,349,431,47,128
178,322,22,75,338,436,42,130
158,316,23,73,319,430,41,123
147,316,23,78,320,398,44,121
162,317,23,78,322,412,33,118
181,364,25,81,343,423,34,133
188,341,23,87,381,437,37,136
192,349,22,93,415,466,36,145
184,340,22,94,416,476,32,143
177,338,22,95,434,490,39,148
161,284,22,93,441,514,41,116
145,296,24,89,429,522,39,104
136,286,24,75,398,486,39,97
189,278,24,78,381,476,44,125
185,278,23,75,342,440,43,140
189,313,23,79,328,410,38,137
188,290,22,83,306,372,37,138
193,334,23,84,333,402,39,130
142,346,23,73,330,415,42,118
137,348,24,79,348,441,38,102
149,355,24,80,330,418,45,106
144,396,26,81,375,458,46,105
140,363,26,78,378,450,45,104
137,364,27,100,389,440,40,83
138,362,27,100,394,425,52,95
132,347,25,102,412,452,52,116
140,308,22,103,366,416,53,127
144,334,22,107,367,403,52,129
146,344,21,85,386,408,51,146
145,348,21,82,374,417,42,134
141,341,22,78,377,428,45,129
187,364,24,71,398,459,46,130
200,359,24,63,374,479,46,129
196,344,22,63,383,472,47,115
227,332,24,58,371,469,46,110
234,350,24,54,349,462,38,96
292,443,25,57,321,429,36,109
314,484,27,63,331,423,44,118
330,526,27,65,303,454,47,120
319,529,26,73,310,439,56,123
317,516,28,71,338,435,56,121
261,432,31,80,371,459,57,126
220,383,28,80,382,470,52,129
209,399,30,89,409,494,54,141
193,409,31,83,452,534,43,138
195,413,29,88,451,560,45,145
162,413,24,76,446,586,45,123
165,405,28,72,434,584,47,125
172,316,26,60,384,540,39,109
184,305,27,60,338,520,43,114
196,336,27,51,315,505,38,113
222,352,27,54,310,463,41,125
244,360,22,50,309,450,37,113
238,361,22,48,327,469,40,121
244,381,22,52,342,478,35,129
232,348,21,55,362,493,39,128
220,324,21,52,381,540,48,131
194,317,23,54,388,566,48,143
186,365,23,56,396,578,52,136
186,387,21,50,398,589,54,126
177,398,24,50,380,571,52,124
184,410,23,51,368,552,44,111
182,408,23,50,380,544,45,89
193,383,23,49,369,527,44,90
169,328,22,50,383,521,42,87
221,364,22,57,406,553,40,91
207,344,21,56,401,550,42,87
213,394,20,63,406,562,40,98
225,396,21,62,426,583,35,100
226,411,21,62,403,591,37,99
186,388,21,57,397,577,39,94
182,389,22,58,402,575,34,88
178,338,23,47,363,552,36,80
174,354,22,53,353,542,36,77
181,337,21,53,347,514,34,80
175,306,20,54,359,539,36,72
186,330,22,54,360,529,38,90
176,339,22,56,380,536,40,90
144,315,22,51,373,544,45,98
139,329,23,52,405,589,48,106
131,319,22,52,385,566,48,106
108,294,22,51,365,573,45,91
129,291,22,51,381,597,44,90
142,298,23,51,380,591,37,80
139,307,23,52,342,552,35,77
142,343,23,50,344,550,29,78
155,347,22,48,339,532,33,84
135,338,20,46,314,491,31,95
141,390,21,52,331,526,33,97
153,391,20,53,357,561,38,98
177,384,21,52,368,589,38,99
171,384,21,51,373,612,37,93
185,402,24,55,378,638,39,91
185,354,25,53,378,628,44,100
175,335,25,49,363,611,38,95
153,311,23,48,356,600,39,109
149,302,24,47,352,594,40,109
166,350,24,50,354,588,39,111
148,333,23,47,349,587,33,105
167,349,25,49,349,577,42,121
164,393,26,53,358,575,46,109
163,390,25,55,351,571,49,117
134,325,24,50,360,561,48,109
141,325,26,51,362,559,47,109
136,319,23,48,368,564,43,94
147,260,24,48,363,545,39,88
146,282,27,55,374,552,36,85
145,287,25,55,365,552,40,113
139,303,23,55,354,527,39,104
116,304,26,53,339,516,38,104
108,309,24,48,314,499,38,109
100,326,21,44,313,476,40,104
106,327,22,44,297,458,34,78
104,317,22,48,310,467,34,82
114,332,20,48,335,479,37,92
114,328,21,49,335,487,37,99
123,297,22,47,355,505,34,102
124,292,24,48,382,525,40,107
140,324,24,50,368,527,42,116
136,320,25,54,383,539,44,120
145,353,26,58,409,556,46,111
169,375,25,62,394,556,48,130
171,386,22,62,395,545,46,127
168,370,23,59,407,537,46,124
175,369,24,58,365,508,41,119
159,360,24,55,353,495,42,119
132,375,24,53,367,493,39,97
172,408,25,55,357,489,37,118
179,404,25,53,333,480,36,118
178,409,24,54,367,487,34,115
186,410,23,55,357,484,30,131
190,392,25,59,343,456,34,134
146,352,25,57,359,463,36,114
146,343,26,59,361,453,38,116
159,314,26,57,336,433,41,112
167,303,26,57,338,430,40,116
188,299,23,51,325,432,39,118
193,320,23,56,314,438,36,118
182,344,22,60,356,475,34,128
162,362,22,65,410,560,33,128
158,389,23,66,427,561,36,113
125,404,26,69,443,567,33,108
142,403,27,67,431,567,33,111
138,390,28,62,411,537,30,85
154,410,27,60,360,449,33,115
146,379,27,57,322,436,31,112
148,345,25,52,300,417,35,110
125,329,25,47,299,392,35,105
133,321,23,58,282,402,41,110
127,314,24,59,276,405,38,84
149,360,24,62,351,464,38,90
149,404,24,64,381,499,38,93
170,401,21,67,397,525,40,99
161,412,21,60,432,539,38,93
148,390,21,57,457,553,40,91
118,346,20,59,424,521,39,96
120,292,19,57,428,514,38,94
89,318,19,57,475,548,34,87
109,333,17,57,470,559,29,103
113,377,19,65,478,574,28,99
121,397,18,61,490,592,38,86
118,404,19,64,476,584,38,89
116,374,19,60,426,538,38,90
107,380,23,64,412,532,42,74
104,351,23,58,372,505,45,71
99,338,26,59,349,476,36,72
109,377,25,57,362,492,36,89
111,433,26,64,369,511,38,112
109,405,24,60,363,488,34,112
110,386,24,58,361,496,28,111
111,387,21,57,363,510,28,110
96,346,21,58,358,500,26,93
112,295,21,59,348,490,34,66
110,290,21,57,355,513,38,73
107,289,22,57,384,521,40,79
100,312,21,59,392,523,41,76
98,333,21,59,406,552,41,78
81,329,21,57,433,567,32,72
79,356,20,62,450,571,29,64
84,363,20,62,436,574,33,69
92,334,23,62,427,568,32,70
115,321,24,61,434,563,33,79
122,323,24,57,414,556,34,91
126,306,25,54,397,558,39,93
125,319,26,53,402,556,36,91
133,332,24,53,409,555,38,92
117,317,25,55,383,537,39,86
113,298,25,52,388,540,39,78
116,291,25,54,376,534,36,97
116,267,25,52,378,527,41,115
103,246,25,52,389,533,37,115
113,271,24,54,397,545,36,116
120,296,25,60,387,524,35,116
125,372,24,59,444,558,34,100
138,388,24,61,457,585,29,71
139,419,24,65,441,567,44,80
143,433,26,64,438,558,44,112
143,441,24,65,442,568,47,111
182,482,28,64,381,506,46,119
198,485,28,66,364,469,44,128
228,464,28,61,370,485,31,130
367,564,31,83,352,471,39,190
450,604,32,90,330,440,39,201
477,607,30,92,364,486,39,202
496,615,31,98,349,460,45,215
526,654,30,102,336,439,57,223
478,641,27,89,358,439,52,165
501,634,27,85,358,431,51,179
550,604,31,105,339,379,56,211
590,613,30,112,332,397,58,203
579,622,32,116,328,387,45,206
618,656,34,134,312,380,51,219
567,645,34,134,328,399,52,205
584,715,31,131,319,414,49,205
543,712,31,124,344,423,42,199
525,708,32,120,365,446,41,182
453,652,29,99,433,540,36,157
471,710,29,97,464,585,36,149
374,609,26,80,533,577,38,98
394,650,30,82,515,552,41,114
387,645,28,85,507,548,40,118
376,605,30,93,457,447,40,125
339,516,30,94,419,387,40,151
332,545,30,100,330,371,35,148
364,536,26,103,372,405,33,137
436,536,25,99,374,406,33,155
488,562,24,97,365,410,36,167
520,599,26,107,372,390,36,161
524,615,27,113,378,401,34,164
493,580,29,106,344,377,34,167
454,562,28,104,344,353,33,156
437,529,29,96,356,362,30,148
531,663,30,116,374,415,38,185
540,681,29,104,376,410,40,184
577,786,30,124,411,427,43,200
573,797,35,129,551,421,43,198
576,855,35,133,543,415,43,196
441,738,33,107,530,399,34,147
445,708,33,111,529,390,31,147
386,585,32,93,521,390,28,125
371,571,28,92,364,413,29,117
355,549,25,87,360,393,29,121
347,537,25,85,351,358,30,118
294,503,25,79,333,367,28,108
316,526,25,82,302,345,29,114
319,557,25,76,297,331,33,119
325,499,24,82,301,346,41,122
370,568,26,84,288,338,42,156
392,606,29,86,334,328,43,170
411,572,27,76,343,342,46,174
415,536,27,77,355,344,43,176
436,578,30,78,382,368,37,176
464,530,29,81,384,392,40,172
483,519,27,80,355,405,39,163
439,585,29,87,366,418,34,155
444,565,27,91,352,414,32,154
402,495,28,81,309,388,31,139
351,467,29,78,321,372,26,113
299,489,28,77,311,362,27,110
301,452,28,74,290,335,29,96
275,453,28,67,307,324,27,89
279,493,27,68,326,319,27,93
259,515,26,63,315,328,31,93
262,452,25,58,336,330,33,93
260,428,25,65,354,365,34,112
273,481,26,70,354,400,38,113
333,520,27,82,351,405,39,124
338,487,25,82,381,465,37,119
369,491,26,87,368,470,37,132
386,528,25,82,361,450,36,122
414,574,24,86,360,429,33,130
358,535,24,73,375,459,34,121
359,539,26,75,358,401,37,125
329,551,27,77,372,414,36,105
288,505,29,74,370,433,38,97
287,475,30,75,365,437,39,99
296,455,29,75,356,416,36,99
297,441,26,72,367,424,34,100
289,449,27,65,350,406,33,108
302,462,23,63,347,402,28,135
261,391,22,53,354,424,28,126
244,380,23,51,335,403,31,124
227,416,24,54,313,404,27,126
224,427,23,50,331,447,29,125
218,402,22,52,349,451,30,103
226,418,24,55,368,473,41,112
250,445,23,64,398,537,41,128
246,426,25,63,413,541,41,124
257,422,26,71,414,562,45,124
266,426,28,74,432,607,48,125
264,420,28,74,412,582,37,134
267,484,29,71,407,581,37,123
296,470,28,75,391,580,37,135
309,474,29,73,369,533,41,142
319,474,28,71,325,475,39,149
306,453,28,71,334,484,40,139
291,354,26,67,310,445,40,136
296,383,26,62,348,467,39,129
284,415,26,66,371,490,41,137
272,406,26,72,366,507,41,126
289,437,26,70,364,526,40,123
290,475,26,73,386,548,40,128
313,499,28,82,342,535,43,129
348,465,26,74,328,533,33,118
367,503,25,74,355,543,33,120
374,485,27,73,340,516,34,131
419,495,28,80,365,518,42,134
398,481,26,71,398,544,39,126
386,463,25,74,408,552,41,127
372,468,24,74,434,567,43,130
367,496,22,77,456,598,43,122
334,465,22,73,424,597,36,132
328,502,23,85,411,596,37,135
319,551,24,87,413,608,34,134
322,523,23,80,360,585,31,131
304,492,24,77,343,569,28,121
278,500,24,77,334,541,27,105
264,445,24,63,311,502,24,99
238,401,23,56,299,476,26,82
218,397,24,59,302,452,27,82
234,413,25,59,299,447,30,90
231,380,23,52,325,474,33,101
240,418,23,55,355,500,34,105
264,414,24,59,364,510,32,114
262,409,25,58,388,550,31,109
258,391,24,58,387,556,33,107
237,397,23,56,377,557,29,99
219,370,22,53,374,567,31,100
186,337,21,47,360,547,31,107
194,342,21,48,333,516,34,117
212,354,22,46,336,511,32,127
233,348,23,51,353,528,31,120
233,319,23,55,332,511,30,116
232,310,24,58,364,540,32,123
229,295,23,58,361,547,29,121
204,293,23,59,372,560,34,115
178,306,24,54,364,554,34,121
188,316,24,53,370,569,40,136
168,343,24,52,337,550,39,124
164,374,25,54,345,555,39,117
192,399,24,56,318,531,34,115
211,410,23,56,293,494,34,103
218,415,25,53,289,488,26,86
240,430,25,59,316,497,26,77
234,434,25,57,336,493,24,72
215,408,25,59,363,522,23,63
209,404,24,62,415,538,22,63
189,411,24,68,434,552,21,60
219,461,28,74,423,566,25,86
249,460,31,78,432,580,24,87
252,457,34,78,427,567,33,107
267,467,34,80,390,568,34,118
281,495,33,82,365,543,39,126
284,439,31,82,356,513,38,131
320,460,28,83,338,494,39,153
364,495,29,101,323,481,40,155
366,492,29,97,314,466,39,150
425,551,33,109,337,488,44,180
404,532,31,101,349,503,41,165
395,533,31,102,363,527,50,156
392,522,28,83,377,558,45,153
417,564,28,85,406,578,47,156
360,484,25,62,406,566,41,112
368,504,25,64,402,576,43,116
337,499,25,72,399,558,32,121
331,548,26,85,393,531,34,116
314,503,26,87,369,518,31,121
319,505,25,91,361,504,29,127
306,507,26,90,362,476,31,120
315,495,27,89,345,464,38,111
288,486,26,81,362,487,38,107
258,478,23,78,366,494,42,103
238,458,24,78,377,502,45,103
243,456,23,77,385,510,42,103
250,428,25,68,386,510,36,102
249,433,25,65,369,502,36,99
241,437,27,64,350,474,38,98
245,440,26,59,336,461,36,91
266,465,28,64,323,462,39,113
258,479,25,64,308,454,39,105
252,446,25,63,320,459,38,104
263,435,24,61,334,467,34,100
262,424,24,62,353,486,31,102
236,391,21,56,367,486,31,99
213,410,23,53,390,492,29,97
200,357,23,54,375,462,28,97
201,382,24,56,364,449,28,97
182,409,24,54,343,421,29,91
200,390,25,53,310,392,25,76
192,351,24,53,282,365,28,77
196,353,23,50,270,356,31,78
196,335,21,47,264,350,32,73
201,310,21,49,255,350,31,76
173,334,21,51,272,364,34,75
183,356,19,49,299,395,33,90
163,364,20,49,314,450,32,89
135,350,20,48,335,469,28,91
213,346,22,47,354,476,33,100
221,333,21,47,381,481,31,97
219,327,23,50,386,490,30,81
226,358,23,50,403,487,28,77
245,431,25,55,437,524,30,75
180,452,24,58,452,583,29,66
185,466,26,58,444,613,30,62
171,464,27,59,452,624,30,69
162,455,29,59,460,624,29,69
123,385,27,58,419,598,26,73
151,384,26,57,390,550,26,85
134,426,27,55,393,532,24,86
155,407,25,52,362,500,34,89
154,390,24,50,395,516,34,88
166,403,26,51,394,533,39,94
163,398,25,57,417,556,37,90
191,427,23,62,422,560,37,94
182,456,24,68,441,575,34,95
207,479,23,68,392,565,39,121
204,468,21,67,515,556,36,112
187,518,22,62,549,542,38,106
154,443,22,56,635,543,40,103
156,453,20,52,691,547,37,98
132,444,23,55,705,538,35,69
127,466,24,58,639,552,34,77
126,397,26,58,597,545,30,72
140,418,26,61,487,521,29,77
140,379,27,56,386,510,25,74
137,375,27,61,352,492,23,71
137,344,25,56,308,448,24,59
142,355,24,54,298,448,31,67
124,347,24,53,287,441,32,58
117,360,24,53,273,422,32,56
112,348,23,46,276,428,30,56
106,340,23,46,274,422,30,58
90,315,23,46,269,405,25,54
100,295,21,45,307,435,23,51
107,278,21,47,312,438,27,57
99,262,21,49,310,425,30,59
113,303,23,54,341,470,30,64
126,318,24,55,350,474,31,62
129,332,26,56,339,461,30,65
121,360,25,57,378,498,29,64
153,417,27,58,384,518,25,65
143,394,26,55,372,494,25,61
140,411,25,56,400,506,21,78
130,393,23,54,393,498,23,85
133,366,25,51,368,464,23,83
120,312,22,51,372,446,28,78
129,309,23,50,358,431,28,93
117,267,22,47,323,401,28,79
124,266,23,47,331,404,28,70
126,310,20,49,324,408,25,77
115,313,20,45,327,421,22,76
116,335,20,48,342,432,23,71
124,345,19,52,340,433,23,72
125,373,18,55,335,441,25,82
123,346,18,57,353,450,26,77
132,321,18,58,338,436,28,90
125,303,16,56,341,436,33,83
118,308,19,53,349,451,33,81
118,355,21,58,396,504,34,75
115,437,23,61,489,602,33,72
97,478,25,65,511,638,32,64
117,504,26,66,512,636,31,68
118,514,25,67,510,629,34,69
115,468,24,61,465,573,33,69
108,387,23,52,357,454,32,75
135,347,20,51,327,393,31,71
137,333,20,50,327,372,31,75
160,324,20,51,335,387,31,87
163,307,22,52,342,383,31,87
167,315,22,54,339,373,32,87
158,342,25,53,332,375,38,97
145,307,25,50,321,367,33,89
131,304,25,52,358,341,34,82
154,338,24,51,341,338,35,84
169,340,22,50,338,339,35,82
159,298,21,46,363,329,31,70
159,306,20,50,381,379,33,69
154,295,19,47,348,387,31,65
138,282,19,47,374,397,31,55
120,284,20,48,386,432,29,54
124,315,22,55,367,424,27,49
122,336,22,52,373,400,27,50
119,349,22,53,373,402,32,46
112,361,22,54,352,383,35,49
122,354,23,58,337,330,36,66
120,323,22,50,325,333,35,64
125,298,21,50,285,313,34,67
120,282,23,50,286,315,29,67
118,296,24,49,315,349,28,65
131,326,24,48,323,379,30,53
131,331,22,50,332,385,31,55
128,326,23,47,360,407,30,50
150,336,23,49,354,414,30,55
149,313,20,47,357,427,27,62
141,312,21,45,372,437,28,62
143,318,24,51,380,441,33,64
140,330,24,54,387,442,34,82
155,323,24,52,394,439,34,84
156,297,24,52,376,423,37,89
147,264,23,52,354,399,33,88
145,283,23,47,366,446,28,93
150,280,23,46,349,448,27,78
113,283,25,49,359,463,28,71
108,344,25,53,363,465,24,70
105,346,24,51,387,479,30,79
94,332,23,50,386,454,31,72
93,332,22,50,374,454,31,74
117,343,21,51,371,461,32,81
118,305,22,49,370,451,32,79
119,303,23,50,353,449,33,73
144,308,23,53,363,475,36,86
149,330,25,56,373,477,35,89
158,328,24,55,355,451,35,86
221,334,25,56,358,479,34,95
234,346,24,58,362,479,30,96
246,425,25,60,374,502,29,90
264,449,24,62,375,509,31,93
267,470,24,65,384,534,32,93
241,466,23,66,392,517,36,105
327,534,24,73,396,537,37,135
391,520,24,75,358,478,38,143
479,581,26,77,346,474,41,189
571,683,27,83,354,495,43,222
608,700,27,83,357,517,41,216
663,713,29,91,336,491,44,225
679,736,31,102,330,489,46,245
643,702,31,110,331,462,43,222
657,681,30,115,319,427,42,224
687,670,32,117,307,421,46,244
676,681,30,115,322,423,50,238
646,643,28,104,343,466,46,221
658,690,33,120,368,521,55,236
600,603,34,111,391,541,54,214
562,614,34,116,389,559,51,204
549,662,40,132,401,572,51,234
536,651,38,130,377,536,52,239
517,590,35,113,362,520,42,214
555,640,35,127,332,496,51,229
514,648,35,123,309,449,51,216
428,529,28,97,300,451,44,162
435,572,30,98,322,474,43,150
424,585,28,90,314,463,44,169
345,586,25,70,340,491,34,139
368,598,26,70,382,515,33,138
399,605,27,78,362,509,34,147
365,557,26,79,369,519,31,140
358,511,26,81,382,522,32,117
328,442,26,79,357,509,31,111
313,392,25,80,370,520,31,112
255,353,23,70,385,527,27,108
258,382,23,71,388,532,31,110
232,403,22,70,393,549,33,114
240,415,23,75,442,560,35,157
232,420,25,71,408,570,37,192
229,422,25,70,432,587,39,205
223,403,25,66,423,577,36,224
230,397,25,64,413,585,39,243
214,419,25,59,373,575,37,221
236,478,25,66,375,543,36,197
258,489,26,71,327,502,34,182
255,482,26,73,328,496,35,158
259,487,28,72,318,461,31,138
266,465,28,65,311,449,31,142
230,404,26,56,315,462,33,132
201,400,24,47,333,490,33,124
224,422,26,45,353,519,33,127
214,416,24,45,354,546,31,120
197,409,22,46,373,580,33,105
243,396,24,52,388,597,28,106
249,411,25,56,412,627,27,110
227,405,24,60,421,630,29,121
216,388,24,59,452,636,33,112
217,388,24,58,442,623,31,110
171,390,23,54,410,599,32,108
163,377,22,50,382,567,33,109
151,344,22,45,352,559,33,87
155,360,20,46,317,553,28,85
179,348,22,46,305,532,30,101
185,358,21,47,332,559,30,100
195,328,22,48,359,574,31,98
229,352,22,55,356,560,30,121
222,328,22,56,361,553,29,123
198,318,22,56,372,557,28,113
248,343,22,56,360,530,29,112
270,372,23,61,331,514,28,112
258,381,24,59,324,499,32,92
269,373,24,57,317,477,31,96
263,412,25,58,354,551,33,97
228,380,25,58,370,554,32,102
245,448,27,67,397,574,33,109
244,449,27,66,416,609,26,107
250,478,28,72,427,633,29,118
270,470,27,74,398,579,32,116
289,491,26,74,393,602,36,122
268,471,25,65,375,577,37,112
265,492,26,65,355,549,37,114
284,482,25,63,341,542,39,105
316,509,27,65,333,536,41,113
310,487,26,63,321,504,38,106
327,478,27,69,310,499,39,135
359,511,25,77,349,548,39,148
356,528,25,76,381,576,37,145
326,528,24,76,378,601,33,140
305,566,23,74,406,637,32,143
302,538,22,69,442,649,29,156
253,479,22,56,439,640,28,145
227,451,22,56,419,604,35,140
215,414,21,49,420,579,33,144
213,391,22,50,424,569,33,137
150,376,21,46,395,552,32,96
174,365,20,48,364,509,32,88
170,400,20,47,371,514,24,85
160,406,22,51,383,516,27,73
192,394,24,54,363,494,29,79
203,385,25,56,365,499,28,63
176,389,25,54,383,499,27,61
176,383,26,57,382,495,25,61
196,368,25,54,386,499,26,64
158,365,23,52,380,490,27,55
149,376,23,53,380,492,26,58
161,390,22,56,363,490,27,61
149,356,22,51,339,464,27,59
125,348,23,50,315,443,23,54
134,357,24,47,315,434,23,70
130,355,24,45,309,432,24,76
119,330,25,43,326,447,26,84
148,353,24,49,350,459,31,97
153,385,22,51,366,464,35,112
152,355,21,53,377,470,34,104
164,360,22,56,385,462,35,101
204,368,23,59,368,437,36,106
194,360,23,54,355,435,36,115
206,360,24,54,342,430,34,118
206,374,24,54,325,413,36,124
221,383,23,53,317,415,36,126
190,370,25,47,322,421,41,120
191,388,24,48,313,413,38,102
199,357,24,46,328,423,37,99
214,346,24,48,326,424,36,98
219,358,26,45,327,427,37,102
214,355,23,50,356,438,28,97
215,357,24,48,351,436,29,100
205,370,24,52,336,436,28,83
195,399,21,51,356,456,27,82
165,389,22,56,397,501,29,80
179,398,23,56,419,575,33,97
185,398,22,63,463,629,35,103
217,434,23,64,473,642,37,119
318,529,25,72,465,656,40,123
357,546,25,72,430,631,38,125
385,592,26,79,377,565,34,120
422,608,26,80,340,545,34,132
443,578,26,77,329,526,40,134
391,499,25,74,323,503,38,131
369,469,25,75,320,501,38,125
349,458,25,70,327,499,40,120
302,452,25,66,365,502,37,98
236,455,24,68,373,516,35,80
223,456,26,67,379,516,36,81
221,509,27,69,413,539,37,83
242,484,25,69,414,547,35,96
235,460,25,69,387,525,36,95
244,451,26,71,386,518,33,92
240,447,24,70,395,542,30,110
229,388,24,66,379,535,31,120
243,414,25,67,384,529,31,118
277,415,27,66,382,527,33,122
278,409,26,69,365,509,29,127
288,410,27,69,341,482,31,108
290,409,25,69,323,468,30,96
266,388,27,67,298,445,31,93
248,371,25,66,286,429,29,93
252,389,25,63,317,459,30,90
240,363,24,65,313,448,31,113
259,380,25,66,308,438,33,120
302,487,25,71,338,474,34,128
302,493,26,69,342,468,34,124
309,488,25,68,346,468,35,125
335,522,26,67,378,515,33,106
334,543,27,74,379,529,33,110
292,436,23,69,390,505,31,94
292,522,26,79,410,543,32,98
284,523,27,78,407,530,31,95
244,499,28,76,409,498,31,89
261,490,26,72,427,499,31,94
264,517,28,77,397,484,34,97
293,517,29,78,386,462,34,99
319,552,29,85,368,450,32,105
322,564,29,84,331,426,31,110
307,558,29,82,310,409,32,101
315,547,28,80,321,429,34,115
316,500,26,77,303,400,34,123
289,477,25,73,317,415,34,120
311,510,27,79,330,440,36,130
318,501,28,78,318,426,36,153
316,485,27,75,322,420,34,143
329,532,27,80,334,433,42,160
359,518,27,80,323,430,43,169
374,544,26,86,342,432,43,170
358,560,27,86,351,436,39,144
409,604,28,96,352,458,39,151
386,533,30,94,363,468,32,140
399,647,30,108,422,533,31,147
413,600,30,100,453,570,32,147
435,642,30,105,475,583,36,158
423,670,30,103,489,562,34,160
456,685,29,102,470,542,40,158
436,617,27,84,419,472,38,145
535,728,28,96,372,402,39,175
597,723,28,95,361,394,44,209
647,745,27,99,349,396,51,251
708,776,28,112,351,397,54,271
738,771,28,117,352,393,59,282
685,701,27,119,350,409,59,280
669,704,26,121,362,386,57,258
619,662,26,115,357,418,50,219
558,653,25,102,356,421,44,197
525,722,26,111,368,427,39,192
476,693,25,100,394,473,38,164
435,693,28,93,359,479,36,165
473,674,27,88,353,448,38,174
442,641,28,92,382,469,42,191
443,621,28,81,361,453,41,190
440,595,29,77,355,407,40,185
485,632,29,83,373,429,40,190
417,617,29,85,375,414,37,179
410,663,28,81,356,389,29,155
439,649,28,76,362,400,35,157
447,668,29,81,336,385,35,174
359,572,28,76,326,348,33,171
352,554,27,72,325,348,39,171
340,501,26,66,324,352,39,163
275,408,23,63,330,334,32,144
260,358,22,63,317,310,32,137
273,381,23,62,312,296,33,124
355,526,27,75,309,305,31,146
427,561,28,81,313,327,37,163
429,569,29,83,317,349,39,174
442,619,30,83,355,407,39,169
478,620,30,87,385,451,42,172
477,555,30,84,386,471,41,166
446,564,30,83,386,472,39,158
448,596,30,81,372,464,37,149
470,583,28,83,357,447,38,149
473,597,27,80,328,431,38,165
464,607,25,80,505,421,36,159
427,563,22,75,621,431,34,155
435,553,23,77,622,430,35,156
390,520,22,73,610,423,36,152
373,505,24,75,615,431,35,135
347,495,23,69,470,427,34,123
408,549,25,73,303,423,32,122
466,556,25,77,315,449,33,147
486,588,25,77,352,456,32,146
470,605,25,78,352,461,28,150
452,552,25,73,363,478,31,153
410,496,23,69,355,443,31,155
355,464,23,66,355,419,32,129
374,467,26,70,340,429,34,140
356,423,25,67,338,417,36,129
347,455,26,70,344,417,33,122
349,466,28,73,363,460,33,120
301,439,28,69,349,463,32,130
242,402,24,63,340,466,30,116
263,451,26,69,339,484,31,121
258,412,26,64,315,459,35,118
251,394,24,61,293,445,36,117
291,437,26,59,307,453,34,106
303,426,27,64,298,417,33,113
278,359,26,56,298,388,31,103
259,381,27,64,330,414,37,135
250,430,28,69,327,406,37,143
212,382,25,66,348,438,38,140
196,392,26,63,388,492,38,140
187,415,26,61,393,525,44,144
194,466,25,60,402,563,37,111
183,404,24,53,426,578,40,118
274,447,26,64,412,570,44,115
269,448,27,61,394,566,45,110
278,420,26,63,420,573,39,105
281,360,25,57,381,519,38,112
272,400,26,60,351,504,36,90
174,362,24,56,374,510,33,92
245,411,26,60,359,502,31,98
242,417,25,58,348,509,34,108
240,445,26,60,416,569,37,104
285,474,24,66,449,648,42,114
284,477,24,62,456,670,40,110
279,479,21,60,472,676,40,110
279,497,22,61,450,664,42,118
288,481,20,61,423,647,43,118
257,421,21,56,423,590,42,109
256,433,23,56,396,593,45,110
195,371,22,56,408,616,47,100
189,405,21,59,447,638,43,98
161,388,23,56,446,655,40,95
133,395,23,52,456,685,33,94
144,380,24,52,466,662,31,92
154,388,24,53,452,652,28,91
159,370,25,52,473,636,28,64
182,386,24,59,451,606,29,61
212,403,24,58,403,559,30,68
210,411,22,58,391,557,30,72
213,424,23,60,393,542,30,78
205,388,23,57,320,508,28,79
186,374,23,52,332,511,27,76
154,347,23,50,335,506,32,74
154,349,22,51,329,512,30,74
136,350,22,52,319,511,31,62
140,353,22,53,317,541,32,64
143,346,21,52,329,558,31,69
146,396,22,57,353,591,27,68
141,389,23,60,377,612,26,68
146,401,22,59,396,628,29,83
141,401,22,59,400,632,29,81
133,392,24,61,404,621,31,78
127,348,25,57,390,593,31,78
116,355,25,56,358,566,34,85
162,323,24,53,377,591,32,88
171,329,24,53,366,565,31,90
173,346,24,52,348,555,32,93
177,364,25,54,362,574,33,90
193,358,25,53,370,565,31,84
159,345,25,51,319,512,30,75
159,338,24,50,348,528,32,90
170,392,25,55,371,592,32,91
166,401,23,53,355,602,30,92
155,408,22,54,352,597,31,91
151,412,23,54,349,605,35,91
140,407,23,54,326,607,37,75
148,368,21,51,335,567,35,71
144,331,21,50,369,558,34,67
148,334,22,50,400,601,36,83
161,394,21,59,442,614,32,88
180,425,24,58,470,637,32,91
167,403,24,56,449,635,30,90
189,436,24,59,427,641,30,96
186,455,25,59,400,616,34,98
170,399,23,47,373,600,36,88
156,380,21,49,327,560,33,86
154,385,22,47,306,527,36,87
128,359,22,44,296,505,35,83
119,322,21,43,297,491,29,61
118,349,22,49,323,529,25,63
110,373,23,49,359,542,28,62
105,395,23,51,377,566,27,60
138,388,23,54,392,556,29,60
146,390,22,56,412,574,28,63
137,370,24,53,392,538,28,63
147,323,22,55,374,533,25,66
158,354,23,56,384,530,28,83
133,356,23,55,376,540,27,82
155,348,24,53,352,507,30,78
178,357,23,56,354,498,29,83
191,388,25,56,356,493,28,80
200,351,25,57,345,472,33,82
220,366,28,57,360,466,32,93
235,432,29,62,365,486,30,100
225,455,29,63,358,479,34,99
243,478,28,70,375,485,34,99
239,498,27,68,369,489,28,86
297,577,25,80,366,496,34,91
331,559,22,78,372,486,42,137
435,607,24,94,353,463,44,162
499,640,23,88,318,438,46,177
524,656,24,95,324,423,50,183
546,664,27,88,308,407,53,189
527,662,28,88,328,418,50,162
500,651,28,79,385,467,48,164
480,664,31,87,468,500,47,162
494,652,31,82,476,525,43,178
436,636,29,87,496,530,35,170
442,639,30,87,473,513,30,168
461,638,31,104,445,487,33,180
425,616,28,102,359,468,34,177
428,612,31,107,348,456,36,171
474,568,31,105,316,443,39,177
537,598,32,109,324,447,44,193
494,575,30,88,302,443,40,174
510,546,30,94,325,463,42,173
503,547,28,88,334,458,41,163
529,619,31,98,339,488,41,174
470,570,30,93,348,487,38,158
497,590,31,103,350,471,42,164
513,626,34,109,342,461,42,171
484,606,32,106,326,446,40,170
447,660,31,99,366,437,40,160
497,694,33,104,376,472,42,185
473,675,31,95,388,497,40,175
455,656,29,85,382,497,37,180
508,670,32,98,402,531,40,190
504,537,28,90,380,526,38,184
513,627,30,104,367,502,44,185
568,667,32,118,378,524,46,206
552,647,32,113,386,524,52,197
521,738,33,107,366,534,52,203
491,735,33,106,380,553,53,209
467,640,33,101,394,573,50,211
426,645,30,102,378,571,47,196
425,640,30,102,384,581,40,188
442,533,29,104,390,560,38,175
442,536,29,107,385,548,35,176
424,667,29,104,375,549,31,148
394,636,29,87,388,527,33,156
371,635,30,90,381,519,36,167
362,643,29,88,392,541,37,192
374,664,30,92,369,531,40,185
426,589,31,89,379,540,39,188
405,560,31,93,397,559,35,190
442,586,31,93,411,556,35,186
485,687,33,114,405,541,35,188
491,669,31,110,410,549,33,187
527,629,38,125,398,516,52,243
528,633,36,122,395,516,52,232
539,647,36,125,392,530,54,240
489,554,33,106,378,516,53,223
481,544,33,107,364,484,54,223
356,532,24,82,363,494,39,177
351,528,24,81,331,458,39,173
296,496,23,70,326,419,35,178
280,460,25,72,376,420,39,168
249,447,25,69,377,433,40,171
232,426,25,66,362,407,39,143
260,437,28,72,390,455,40,138
253,409,28,70,377,462,39,108
260,436,27,71,353,474,39,137
284,470,29,74,378,489,36,149
335,516,28,75,404,516,37,167
315,528,25,72,422,519,37,170
332,542,25,76,439,535,43,186
335,541,26,71,423,518,40,167
342,547,26,73,404,507,40,170
288,500,25,68,384,481,37,150
303,520,26,65,333,435,43,153
298,508,26,66,305,402,42,166
271,457,24,63,339,405,42,163
248,445,24,62,333,394,41,149
247,444,25,64,338,411,40,149
229,403,24,64,347,413,32,139
199,399,25,58,405,429,25,96
211,431,26,59,371,424,28,101
213,422,24,54,373,421,27,89
200,405,27,54,369,418,31,87
217,406,26,59,376,447,30,91
226,424,26,62,330,448,31,103
213,449,24,64,418,550,31,98
200,463,25,66,477,624,35,101
237,500,22,66,492,634,35,104
235,472,21,61,477,602,34,116
256,456,20,61,472,602,34,138
276,424,22,63,390,495,32,147
290,389,21,59,328,401,39,150
319,409,21,65,314,380,39,153
332,442,23,68,321,393,40,142
397,567,29,86,321,378,48,154
388,564,28,83,348,388,48,178
386,571,30,87,329,372,42,179
351,546,32,87,329,348,44,181
338,531,32,87,323,340,51,188
247,390,29,70,313,325,44,168
238,373,30,69,299,321,44,151
227,358,29,66,312,340,42,147
229,322,27,59,315,343,40,149
219,323,26,59,335,357,35,145
208,404,24,57,348,386,32,130
202,414,25,60,356,393,37,115
191,438,23,60,373,423,36,113
186,455,25,63,377,441,40,106
204,469,25,64,401,502,37,105
187,433,25,62,415,509,37,109
215,454,25,63,433,541,33,103
258,474,26,66,455,549,40,125
256,489,26,62,439,541,36,131
240,508,27,61,399,482,35,125
261,483,24,59,375,458,38,141
274,480,25,65,347,413,44,168
246,471,24,62,285,369,39,162
247,444,23,64,292,359,38,158
261,449,23,70,300,360,41,161
262,452,24,71,305,383,38,144
235,443,24,66,311,393,31,119
235,414,24,65,358,431,31,110
237,416,24,66,362,462,33,102
212,366,24,59,386,471,38,109
181,371,24,57,377,458,39,111
168,362,23,56,374,473,39,105
167,372,24,62,362,469,38,113
148,389,23,63,352,441,39,119
137,368,22,60,333,438,31,110
161,365,23,62,336,426,29,120
180,373,24,63,327,404,29,120
175,342,22,54,303,380,30,107
181,344,21,51,305,379,32,111
215,398,21,60,302,379,34,113
217,391,22,60,307,409,35,120
224,412,24,65,299,393,37,119
234,425,25,70,286,385,40,143
234,419,26,71,305,421,35,165
221,394,26,63,304,421,38,167
205,404,24,63,312,436,37,154
198,361,22,53,367,492,38,156
197,363,23,50,362,492,35,140
218,381,24,51,356,484,35,135
227,384,25,57,388,514,38,145
227,371,26,56,380,494,39,147
238,375,26,57,333,491,35,147
231,396,24,63,390,519,34,147
209,382,22,60,395,511,35,150
208,388,23,65,432,493,36,139
233,391,24,66,448,523,37,139
209,380,23,64,444,489,38,149
201,343,24,57,408,457,42,143
194,320,24,58,407,483,40,123
167,287,23,49,347,494,32,118
143,305,21,51,354,517,32,121
144,305,21,51,389,542,30,98
177,366,23,52,389,565,28,100
184,366,22,51,395,570,26,94
204,382,22,53,398,574,30,107
204,356,26,54,376,550,31,103
206,351,27,53,357,548,33,127
194,329,26,55,391,567,30,128
198,344,27,56,367,557,36,127
181,325,25,58,359,541,35,127
170,330,22,58,352,521,37,140
172,382,20,61,334,521,35,123
158,345,20,59,313,508,35,127
137,324,20,57,328,497,30,114
178,332,21,54,317,529,31,110
170,327,22,52,342,549,28,95
164,280,22,49,355,547,35,92
192,311,22,54,345,556,35,87
225,325,23,58,357,571,37,96
207,318,23,58,395,576,36,93
238,341,23,60,404,594,36,106
251,381,24,60,408,608,37,138
243,362,25,58,417,597,37,139
225,347,23,57,414,607,36,135
204,341,23,56,403,591,36,128
165,297,22,54,406,590,36,130
147,262,22,57,421,605,30,98
141,293,23,58,423,617,33,115
154,307,24,60,413,603,32,134
219,361,28,68,399,622,33,165
286,433,30,74,377,605,34,164
298,479,30,72,357,571,35,171
305,489,29,71,334,541,31,157
313,506,30,71,326,530,31,156
284,496,28,63,307,478,32,132
300,458,25,57,313,470,32,151
309,470,25,65,324,474,33,172
382,485,25,72,335,487,37,198
377,462,24,70,355,510,37,190
381,474,24,73,359,539,35,187
359,504,25,76,388,568,39,172
341,432,24,70,403,578,37,140
249,409,25,63,397,584,33,105
386,571,30,79,405,583,40,141
414,549,30,76,419,563,41,157
411,534,31,80,385,542,39,151
430,570,33,82,358,528,39,158
503,679,36,97,362,511,42,176
435,641,32,93,351,488,34,149
547,793,32,99,357,493,44,203
590,843,31,99,380,498,45,230
602,852,29,98,378,511,49,239
586,769,26,87,370,529,48,233
637,744,28,107,371,541,53,251
595,619,30,111,334,538,63,230
613,599,30,123,304,522,68,224
610,567,31,124,296,494,65,225
647,676,33,132,330,542,66,234
659,659,31,122,316,528,67,247
612,638,33,126,346,531,51,221
571,623,32,111,353,535,42,206
614,690,33,117,366,567,44,207
593,575,31,114,379,527,46,207
557,622,31,106,390,550,41,188
615,637,27,105,416,568,46,237
598,603,27,103,422,576,46,229
559,544,28,98,422,569,45,223
501,546,26,86,373,548,40,206
470,482,27,81,348,524,39,197
469,487,25,67,308,514,32,152
481,547,27,84,283,490,38,150
456,523,25,80,262,459,39,144
487,567,27,84,283,466,41,196
474,598,26,90,286,468,46,192
429,623,28,91,298,482,44,181
410,588,26,83,330,510,40,183
439,609,26,84,338,524,39,193
467,584,27,88,351,527,44,153
451,591,25,84,377,544,37,142
408,533,24,82,375,534,38,143
392,522,24,76,406,517,38,163
348,513,24,73,414,524,38,160
275,502,23,71,390,516,42,156
259,419,22,62,375,493,43,157
349,458,23,67,391,473,43,177
357,453,24,66,342,509,43,164
400,443,24,70,341,502,42,165
389,459,24,66,373,510,30,156
404,479,24,67,363,520,28,155
330,496,23,68,354,537,32,129
349,486,27,74,420,510,32,128
302,474,27,72,408,508,31,110
310,448,29,72,388,495,32,113
310,434,29,72,406,485,33,114
294,350,30,65,382,464,28,112
249,345,27,57,305,450,27,100
273,353,27,60,318,444,34,131
291,361,23,59,329,447,35,140
286,360,28,71,351,474,34,151
307,383,26,69,365,479,35,154
314,378,24,71,370,486,36,158
304,396,25,67,419,532,31,134
276,419,27,69,440,567,31,127
288,443,24,63,448,575,30,113
251,420,25,63,444,591,29,97
247,416,26,61,439,584,33,90
230,449,25,64,396,557,31,89
218,435,25,63,370,528,29,106
192,399,23,58,320,491,29,103
213,414,22,61,321,493,33,111
211,411,22,59,328,509,28,107
213,343,21,56,313,490,32,110
238,369,21,59,324,488,33,90
264,389,22,63,338,481,31,93
260,382,23,63,332,468,29,88
280,427,24,64,347,481,31,97
286,457,23,67,372,501,38,100
283,454,26,66,376,547,38,115
265,463,25,67,383,586,42,126
251,480,26,69,399,602,42,123
241,467,25,74,402,602,40,121
235,466,26,74,397,614,31,113
211,437,25,77,387,588,31,97
198,401,24,73,380,571,28,82
186,390,22,72,378,574,25,78
164,360,22,66,348,553,25,74
173,353,22,65,339,537,26,103
165,358,19,56,331,521,29,100
195,377,22,66,316,509,34,127
209,339,21,64,298,477,37,134
226,339,21,63,310,483,36,148
209,311,21,62,290,464,37,133
251,331,23,67,335,498,38,143
236,354,20,59,385,536,37,117
244,401,21,63,387,537,36,118
234,436,25,69,390,537,37,106
243,449,24,68,414,566,38,135
214,445,23,66,385,533,35,124
225,439,26,68,349,492,32,127
255,425,27,68,376,523,36,125
305,393,24,64,364,510,39,135
297,407,29,66,336,476,37,115
353,489,30,70,337,486,38,145
374,490,30,71,325,481,41,155
362,485,29,69,293,443,37,164
344,537,30,70,333,458,33,154
344,520,27,70,334,455,32,146
329,434,25,70,334,443,43,148
322,450,24,73,352,461,41,145
324,456,23,73,355,485,42,131
300,421,22,77,328,481,45,133
312,461,23,77,352,502,45,139
279,521,23,74,337,485,34,111
306,540,22,76,334,471,35,118
298,603,25,82,352,484,32,130
347,659,28,85,357,497,33,160
354,659,27,82,402,495,33,163
458,635,31,89,412,526,40,184
435,637,31,92,417,532,39,178
460,586,31,90,405,500,40,172
451,510,28,84,393,470,36,157
439,481,29,85,345,457,36,149
367,486,26,85,349,435,37,134
356,464,26,78,328,423,36,133
339,444,24,75,313,416,37,127
327,476,26,76,309,421,41,115
343,474,24,76,301,406,40,121
296,443,24,64,277,396,36,104
293,405,23,54,278,392,38,111
254,397,22,54,289,383,38,116
294,403,23,53,289,381,35,125
279,387,26,53,286,390,37,116
269,352,24,55,300,389,35,126
258,410,25,63,317,411,35,127
282,500,26,75,399,499,34,138
209,521,25,76,448,577,35,134
203,525,22,78,463,593,34,138
202,556,23,80,461,588,29,127
255,520,24,77,444,565,32,121
256,449,24,65,370,488,30,109
253,378,24,61,346,411,28,94
291,470,29,67,329,388,29,95
280,448,29,65,351,410,30,92
244,460,29,66,363,423,28,91
226,456,29,66,362,413,28,86
241,502,30,73,332,393,29,98
213,445,28,69,324,378,31,97
219,454,29,73,311,393,30,102
216,483,27,74,369,404,30,102
210,494,26,72,501,431,35,135
192,454,24,66,515,441,32,127
256,446,24,67,522,444,30,139
262,425,23,61,510,415,32,139
249,373,24,63,476,405,31,133
250,379,24,62,349,407,29,97
268,381,24,64,324,404,33,106
213,400,23,64,358,410,34,106
237,443,26,71,370,424,35,126
282,538,27,71,359,415,37,157
278,522,27,75,360,392,36,159
260,516,26,73,365,387,37,165
260,496,25,67,310,376,38,165
243,479,25,73,318,360,37,156
209,391,23,75,308,356,42,132
256,406,23,79,268,347,46,157
272,382,24,79,248,316,46,152
325,397,23,80,251,304,44,151
379,446,24,81,253,312,44,166
396,461,26,78,280,313,43,168
437,470,25,71,296,333,39,150
442,565,27,73,324,369,39,153
420,569,30,80,339,396,42,153
428,602,30,90,374,396,43,152
444,600,29,100,394,462,41,159
532,676,33,123,398,460,41,219
541,612,31,121,377,454,39,215
584,649,32,122,373,457,40,220
588,736,32,121,331,458,42,219
600,758,32,114,299,405,42,218
547,736,30,95,333,433,42,170
533,728,31,99,345,423,42,166
482,707,29,93,342,420,39,157
448,559,26,83,342,430,36,161
403,502,26,82,329,408,32,154
373,499,26,74,296,382,31,142
384,530,26,72,280,395,34,170
413,511,24,76,287,375,37,178
409,490,25,66,276,364,37,161
453,548,25,74,311,395,40,166
388,476,25,77,309,381,38,158
369,438,24,75,333,381,35,126
325,421,25,71,352,429,34,117
301,451,26,71,359,428,32,132
209,377,24,62,367,472,31,118
240,369,24,61,388,500,31,121
268,408,23,69,379,505,33,128
262,449,25,73,368,480,32,134
270,465,23,74,373,497,34,130
321,485,25,81,334,439,39,140
342,496,25,79,299,421,40,139
332,476,27,75,346,439,40,141
328,447,25,69,324,431,40,125
343,439,28,66,324,415,36,107
311,426,27,60,347,425,34,105
280,503,27,65,353,441,40,134
281,536,25,63,329,441,38,150
283,544,24,68,445,491,37,152
295,512,23,70,430,506,40,163
303,514,24,69,429,536,38,158
291,422,23,60,447,551,31,137
284,378,25,62,428,547,32,131
303,393,28,58,350,556,32,132
276,392,27,54,363,558,27,121
265,396,26,55,342,545,25,122
278,402,26,56,325,533,33,119
266,414,25,54,347,532,34,100
234,377,23,53,319,511,38,102
216,408,23,56,328,515,39,107
207,407,24,57,360,532,38,100
173,420,23,60,363,570,34,98
180,444,23,66,343,581,33,100
170,431,21,65,345,575,32,100
170,396,22,62,341,578,32,104
158,366,22,57,315,560,33,108
181,388,23,61,321,531,30,111
253,355,23,55,318,512,30,125
286,418,23,59,325,507,31,139
296,456,21,58,332,506,31,144
292,455,23,60,362,539,35,145
295,418,22,58,385,549,36,150
227,458,24,56,392,578,40,134
182,471,23,50,416,611,36,113
163,451,25,49,403,614,41,117
186,503,24,51,403,589,37,115
169,511,25,47,388,568,39,113
178,490,23,47,388,539,37,115
187,428,23,46,348,504,36,113
193,406,21,50,365,526,33,90
178,364,22,52,334,507,34,91
166,357,24,52,329,529,32,96
154,328,24,52,325,532,30,90
153,310,23,54,338,533,32,97
168,316,24,53,352,513,32,99
169,289,24,48,388,547,33,96
166,269,24,46,381,544,30,81
186,298,25,50,405,557,31,87
177,380,25,47,411,556,27,84
142,394,24,44,385,548,22,74
140,399,24,47,374,539,19,67
159,407,23,46,380,522,21,63
140,377,22,43,355,506,24,67
152,311,24,43,338,499,25,65
153,297,25,46,346,494,28,73
147,308,25,44,322,495,31,84
154,320,24,48,299,496,32,90
152,318,22,50,303,504,29,87
138,311,25,52,314,516,30,83
142,315,25,50,309,512,29,77
153,332,26,51,317,481,32,75
133,308,26,46,324,481,30,72
123,306,27,44,327,468,33,65
125,315,24,44,321,457,34,68
126,292,23,45,336,471,32,66
108,252,21,42,375,510,36,63
97,270,21,45,388,527,36,61
113,311,22,49,414,558,35,63
120,302,22,48,456,574,33,68
112,306,21,50,663,586,36,69
111,332,25,56,922,583,28,60
119,324,24,56,1011,575,28,61
134,288,25,53,1013,541,29,66
123,320,25,52,1015,528,32,73
137,332,25,51,916,495,30,80
150,325,22,48,639,457,30,81
158,362,21,50,494,455,31,80
140,360,21,49,459,458,30,76
145,334,21,50,407,464,28,66
141,343,22,50,344,489,28,55
143,350,22,47,326,519,27,53
131,303,21,43,304,517,33,62
152,356,22,47,322,526,31,75
182,383,23,49,329,530,33,78
209,405,24,51,330,519,36,97
209,416,24,52,368,528,36,108
227,439,26,58,369,521,36,116
228,443,24,63,370,512,36,115
221,454,25,68,412,515,36,117
198,421,24,65,410,512,33,103
198,413,24,66,385,500,37,92
188,408,24,64,406,510,32,75
203,383,24,62,424,545,32,73
209,406,23,62,426,582,28,68
215,448,24,76,434,601,27,71
214,435,25,76,429,606,25,84
261,454,24,78,424,619,28,98
236,444,23,76,410,593,30,92
232,394,25,74,376,562,29,88
238,373,24,62,370,541,31,102
241,395,25,61,381,545,36,99
189,377,25,55,356,527,41,86
195,393,25,53,353,522,46,90
191,432,23,53,381,573,50,93
199,416,21,54,396,603,49,98
196,420,21,57,402,604,50,97
186,401,21,61,439,624,45,102
182,411,22,62,434,634,43,106
187,363,23,66,402,559,38,112
170,358,23,63,382,514,39,103
170,339,24,61,370,490,30,100
181,363,24,57,320,442,32,99
179,334,23,54,307,409,33,90
163,368,24,44,295,412,33,83
171,367,26,43,295,424,33,73
173,351,24,47,277,406,37,68
185,352,25,52,285,423,36,75
189,362,25,51,307,441,43,82
181,331,23,52,317,435,45,78
175,372,22,55,315,434,45,84
176,416,22,56,330,455,45,88
171,408,22,58,341,452,44,87
177,399,22,60,328,489,39,107
193,398,24,64,328,505,38,114
181,379,23,62,333,507,40,107
168,354,22,60,327,516,43,111
166,339,19,58,309,519,47,118
161,323,18,57,305,481,50,105
212,355,18,59,307,485,55,106
220,330,19,60,281,470,57,114
228,341,21,60,276,460,55,111
259,354,22,59,288,475,54,107
258,343,23,59,285,472,48,107
205,309,23,56,268,444,43,97
204,359,25,58,289,466,45,99
209,326,24,58,289,457,43,94
157,323,26,55,287,429,40,84
156,371,24,58,288,440,41,74
196,383,25,59,296,456,44,81
199,329,23,55,287,433,47,71
192,349,22,57,293,451,49,83
195,329,22,60,284,474,53,90
208,322,22,61,290,458,51,92
182,336,22,58,311,477,52,103
181,354,20,59,313,484,44,107
173,331,23,57,315,477,41,96
179,366,23,57,320,471,40,91
166,371,22,55,311,477,42,98
164,387,23,59,294,461,36,86
145,388,24,57,313,472,35,84
150,430,24,58,333,516,35,89
146,409,23,57,363,534,35,91
141,385,24,58,376,554,36,86
130,347,23,57,387,571,39,86
137,348,22,64,392,581,37,85
145,317,22,63,371,551,41,80
139,351,23,63,358,537,41,76
142,364,24,59,354,520,41,73
139,361,24,58,346,510,48,68
139,340,24,51,341,503,53,71
125,325,23,50,349,506,52,70
127,283,24,50,343,504,50,71
118,287,23,57,355,517,46,67
124,309,25,57,365,519,39,73
116,326,26,56,360,514,32,67
116,320,25,57,348,504,29,80
117,316,24,56,351,503,38,88
124,297,24,50,355,506,43,93
123,267,22,47,341,487,40,88
126,256,22,50,338,475,40,90
135,293,24,50,343,471,42,82
133,293,22,50,335,479,37,73
136,283,23,51,317,454,31,66
132,301,24,55,321,467,38,69
125,309,25,54,316,475,40,71
121,291,23,55,314,474,38,79
114,279,25,55,328,471,34,79
100,275,25,53,334,490,35,77
110,241,24,50,332,483,28,73
122,241,22,53,359,490,33,72
115,280,23,55,404,555,37,69
116,332,21,55,423,584,43,73
112,354,21,57,426,584,45,71
107,406,22,61,422,571,43,73
106,400,23,56,390,540,38,76
125,393,22,58,346,455,35,89
135,402,25,61,302,396,41,95
138,400,24,62,293,389,41,96
154,364,23,57,289,382,41,98
169,397,25,62,315,420,43,99
155,383,25,62,308,425,44,82
161,379,24,59,311,419,35,84
164,362,24,57,316,394,34,83
156,345,24,59,309,394,42,91
137,313,24,53,296,363,41,84
142,293,24,48,300,356,42,83
124,237,24,43,280,348,39,66
126,241,24,45,278,369,39,66
127,254,23,45,297,384,34,48
133,287,24,49,295,395,38,52
129,290,23,50,304,401,36,51
127,298,23,56,344,417,37,58
119,296,23,56,336,409,35,57
142,290,25,61,343,397,37,103
133,255,23,59,329,380,32,107
138,251,23,59,311,400,36,110
143,284,23,59,291,395,37,109
151,288,25,58,279,368,38,110
119,297,26,54,253,376,33,75
137,298,25,55,264,378,37,73
139,327,25,53,260,345,35,70
158,340,25,49,249,340,33,76
172,375,23,52,255,360,36,90
171,373,22,49,270,376,35,84
163,365,21,48,283,400,33,79
168,354,23,50,311,417,34,86
154,319,24,52,329,431,36,89
146,278,24,54,348,468,39,80
165,289,24,53,356,460,39,84
164,285,26,57,351,442,41,90
166,296,27,59,335,447,43,85
159,280,25,55,321,419,40,120
156,287,24,50,294,371,35,118
143,281,23,51,269,376,36,116
148,292,23,48,256,369,33,113
171,290,21,44,256,367,33,110
193,322,20,43,267,407,33,75
225,331,23,47,270,415,33,89
222,322,22,45,284,414,30,89
214,329,21,43,302,441,29,91
205,336,21,46,289,428,24,90
205,326,22,48,298,441,27,76
206,344,20,50,315,454,29,69
222,348,20,50,296,436,36,79
232,374,22,54,300,433,43,92
220,395,22,57,338,446,42,101
212,424,22,59,331,425,40,101
177,456,23,60,356,445,44,97
194,484,26,65,395,482,41,97
209,492,25,67,379,469,36,89
230,466,25,63,357,465,37,80
239,452,25,61,374,489,38,85
240,423,24,60,334,456,36,84
226,399,24,56,291,414,34,76
249,390,24,50,310,436,31,67
232,402,24,49,314,458,29,73
223,393,23,53,307,484,28,69
220,388,22,49,332,514,27,74
274,418,22,53,344,542,29,88
245,400,21,54,360,574,31,94
241,379,20,53,347,560,30,93
235,355,21,48,321,533,32,91
244,334,21,49,333,539,29,92
181,271,21,48,345,542,36,100
164,239,24,48,319,527,35,95
183,267,23,51,322,537,35,95
182,283,23,52,333,535,32,94
184,304,24,55,309,534,32,95
170,312,23,52,288,520,21,70
172,325,22,54,311,530,22,78
146,319,21,51,314,537,29,79
161,315,22,54,305,546,30,80
144,286,23,49,303,541,30,83
143,284,25,51,314,572,31,87
139,289,25,48,303,562,32,80
138,277,28,51,342,560,28,76
121,264,28,48,335,557,28,71
116,254,27,49,332,553,27,58
107,276,24,49,337,542,27,50
106,252,25,47,346,558,28,47
107,265,24,48,316,559,25,48
106,307,23,48,345,564,26,56
103,302,22,47,359,592,27,54
123,289,23,44,362,583,28,60
121,291,22,46,363,587,26,60
134,279,21,43,373,593,29,60
138,248,22,44,361,597,28,61
147,290,24,45,372,599,30,83
131,278,23,45,379,602,27,83
140,290,23,47,345,569,27,88
133,287,23,47,335,558,24,90
132,283,22,46,336,535,25,90
130,252,20,44,304,490,25,71
133,266,21,43,297,481,24,67
119,252,22,42,322,481,26,74
113,261,23,42,312,473,26,95
116,296,25,45,324,493,27,99
123,295,26,43,347,521,27,96
118,285,24,42,327,539,28,97
134,320,23,44,333,560,29,94
137,326,23,44,341,567,29,75
136,283,22,41,307,551,29,76
131,283,21,44,308,543,31,83
134,280,21,45,312,508,32,85
133,307,22,43,292,484,34,92
140,291,23,44,313,509,35,86
147,327,20,50,340,505,37,81
129,331,21,49,328,506,35,82
145,340,23,55,344,544,39,82
137,338,23,54,352,550,35,69
133,380,21,55,325,542,36,72
115,371,24,54,321,556,32,67
137,371,24,57,317,553,34,59
127,365,23,53,306,544,34,58
131,318,21,51,294,535,37,68
146,291,24,53,309,519,36,81
157,341,22,53,323,573,38,83
165,357,21,52,329,576,36,87
158,360,21,55,371,608,32,85
154,382,21,57,387,654,30,81
147,377,19,54,385,674,30,72
140,322,21,53,385,660,28,70
113,307,23,56,402,684,29,73
117,317,22,53,393,681,32,73
130,309,22,53,382,657,31,72
135,290,22,56,387,653,31,78
131,281,20,53,357,610,31,80
135,282,20,49,321,567,32,73
138,272,23,50,278,523,29,73
132,257,23,50,272,508,31,76
120,276,22,45,259,496,30,65
133,302,24,45,274,502,29,59
140,298,23,45,274,528,29,57
135,284,23,42,282,547,25,54
145,278,23,39,320,550,24,57
137,281,24,40,305,551,24,65
158,256,23,43,331,572,26,73
146,274,24,48,364,575,24,74
150,300,25,48,370,584,25,80
150,320,24,54,352,580,25,72
158,378,25,58,405,610,25,67
131,397,26,59,407,621,28,64
141,400,27,56,403,606,27,64
151,399,26,59,406,581,29,66
134,408,26,54,402,574,33,67
131,362,24,53,378,548,33,72
133,379,22,53,365,502,30,77
145,397,21,49,335,504,30,80
135,400,20,47,337,506,31,75
134,392,22,48,341,502,25,73
132,383,21,49,309,473,26,69
134,360,22,51,293,467,31,61
110,323,24,52,304,447,31,57
102,305,23,50,273,437,34,54
117,288,23,51,271,432,37,54
144,283,22,50,292,431,35,55
133,286,23,45,301,455,31,56
143,296,22,45,316,462,32,58
140,305,23,49,347,465,27,65
162,324,23,53,355,475,25,68
141,325,23,51,362,491,24,64
151,345,24,56,370,466,24,66
146,336,24,57,364,479,28,69
154,350,23,54,348,483,28,62
124,338,23,48,336,468,29,57
116,324,23,48,319,457,29,54
108,289,21,41,309,478,28,49
104,296,21,40,308,456,25,46
92,258,23,39,299,449,24,49
89,244,23,40,301,468,23,54
100,265,25,45,301,456,24,55
90,265,24,47,297,437,26,59
94,248,26,48,296,440,25,59
104,268,26,51,360,427,26,61
106,289,27,52,705,437,28,59
98,275,25,52,960,472,37,58
98,266,26,50,1313,487,37,59
102,297,25,49,1418,518,37,63
97,283,24,47,1419,534,36,62
86,275,24,47,1290,521,36,64
89,297,23,45,1225,515,25,68
94,295,22,45,868,510,24,65
88,255,22,44,692,468,23,60
94,264,21,45,666,468,23,60
101,241,21,44,652,457,23,59
102,220,20,42,400,421,24,57
98,223,20,42,631,422,24,54
92,244,21,46,732,432,27,58
82,241,20,46,876,405,25,55
99,268,20,46,991,457,26,52
98,301,20,51,1028,506,25,58
105,304,20,52,883,521,26,60
104,307,19,50,798,541,24,60
107,326,19,52,641,579,26,58
95,319,19,54,456,564,25,63
102,295,21,51,362,564,25,65
96,320,22,52,344,569,25,62
105,325,24,54,342,568,26,57
106,319,25,51,321,569,24,57
100,321,25,50,296,556,23,52
107,306,23,49,314,534,22,47
106,288,24,51,304,524,21,52
98,274,22,53,296,526,19,52
94,263,21,54,303,506,21,52
103,269,21,53,314,516,24,59
90,279,23,56,316,522,24,66
89,264,21,53,329,511,23,62
97,286,22,48,333,520,24,70
99,295,22,48,335,532,22,72
99,293,21,48,348,535,21,68
100,284,21,45,339,536,20,58
101,291,22,47,336,549,29,72
95,287,20,50,346,531,29,66
95,275,20,53,346,535,30,62
99,269,21,52,336,515,29,64
101,300,19,52,340,512,31,68
104,298,20,52,355,498,25,61
115,288,20,51,351,521,25,61
111,290,21,50,358,509,25,62
99,277,21,50,355,514,26,60
90,257,21,51,367,532,25,54
92,269,20,51,346,517,25,48
76,258,21,50,342,495,25,48
77,260,21,49,335,494,25,44
76,264,21,50,326,484,23,37
82,293,22,51,334,474,28,35
82,292,22,49,336,496,26,34
86,298,24,51,322,480,26,33
89,310,26,54,326,479,26,44
90,320,24,55,336,503,29,50
107,328,24,52,302,468,22,53
113,323,24,52,312,460,25,63
109,328,22,48,327,483,25,66
124,388,22,47,379,526,31,71
133,441,24,52,423,574,32,73
123,413,24,53,428,573,34,73
119,431,24,53,408,550,31,70
136,432,23,53,399,533,31,71
124,365,21,52,344,471,26,62
118,305,21,44,302,393,29,63
121,313,20,47,301,397,31,76
131,293,21,46,313,429,32,71
140,324,22,49,332,436,34,72
158,362,24,56,326,451,34,84
167,393,25,57,327,434,32,83
186,398,26,56,321,444,39,95
198,400,26,57,336,448,38,97
212,433,27,67,331,450,39,105
229,412,26,64,324,433,40,108
240,417,26,69,307,423,40,109
241,416,26,67,333,411,31,95
240,417,26,68,315,378,31,95
218,362,25,59,303,362,28,83
197,354,25,57,339,388,28,68
181,318,24,53,355,433,28,62
172,311,24,56,340,424,26,53
156,316,25,56,363,439,27,46
158,296,23,52,362,437,28,51
148,295,24,57,333,425,29,49
142,299,24,56,304,378,27,49
130,305,22,53,303,401,29,49
126,314,21,50,264,380,28,49
122,325,22,55,262,366,26,48
114,325,23,49,249,342,26,49
148,310,21,49,248,342,32,56
149,302,22,53,246,313,31,56
153,273,20,54,267,329,31,56
161,296,20,52,267,342,35,54
159,303,20,53,282,362,34,52
129,298,20,53,303,401,28,46
123,305,20,51,312,409,29,43
128,330,22,54,323,411,34,46
121,298,24,49,327,423,30,46
124,283,24,49,322,412,30,49
134,270,25,47,315,371,29,49
130,276,27,48,311,360,30,49
116,253,25,45,293,348,23,46
115,270,25,47,308,389,22,49
116,288,23,49,329,439,20,48
112,312,22,50,325,469,23,48
107,294,21,51,339,497,21,56
115,310,22,53,352,518,22,57
113,305,22,51,327,475,22,54
107,288,22,49,307,431,27,57
105,309,23,52,318,447,26,63
110,310,22,49,288,420,26,56
102,289,22,48,273,405,26,56
103,277,22,48,293,429,26,55
108,289,22,49,290,444,24,51
104,241,21,44,299,423,23,44
103,237,21,50,334,467,23,43
123,252,22,51,336,486,23,46
125,257,22,52,346,495,24,47
129,262,22,51,360,504,22,48
137,283,27,52,336,498,23,47
144,304,27,50,311,461,26,57
136,319,26,48,308,447,28,56
146,328,27,51,306,466,29,59
150,304,28,50,286,447,28,65
151,311,25,48,310,459,32,68
149,289,24,46,319,491,34,59
146,283,23,45,319,492,33,64
143,276,21,48,303,452,31,69
136,292,20,49,319,477,36,69
123,263,18,49,305,480,36,70
127,318,21,52,305,478,33,76
127,311,23,53,315,508,32,71
130,331,23,50,302,512,37,69
124,323,23,50,308,514,32,62
118,322,23,51,305,534,28,57
121,281,20,48,304,515,28,52
140,283,22,48,338,496,28,53
121,262,22,47,337,501,24,56
133,264,23,47,321,495,25,57
139,260,23,46,330,498,27,61
124,239,22,45,320,530,27,58
97,212,20,43,280,547,26,56
98,210,21,41,307,562,24,51
86,211,20,44,316,576,33,53
82,224,22,46,298,549,32,49
84,297,22,47,313,543,33,51
77,285,21,45,307,528,33,49
76,282,23,46,295,512,35,47
74,288,23,42,313,548,26,44
86,316,21,39,339,583,25,47
83,269,23,39,342,600,25,47
92,294,25,45,367,638,27,56
90,282,23,46,386,668,31,52
98,272,23,48,380,655,31,75
87,238,24,51,377,664,32,71
88,235,23,54,390,662,32,73
83,211,23,52,369,643,30,69
100,220,23,52,353,623,28,72
91,242,25,51,343,591,29,52
93,240,23,47,317,553,29,58
94,228,24,46,292,528,29,59
101,244,22,48,295,517,31,64
97,267,22,45,284,515,27,58
107,260,20,47,277,518,26,69
103,257,20,49,298,539,26,65
102,272,19,47,295,550,28,64
95,259,21,42,293,549,25,59
87,232,20,44,293,556,25,60
79,213,19,39,296,573,26,47
101,275,20,43,305,578,26,50
105,271,20,43,304,559,27,44
111,305,20,44,291,550,27,45
104,302,22,44,296,553,28,48
103,312,23,47,305,550,26,48
87,268,23,43,292,530,29,45
78,259,24,42,289,545,25,47
73,226,23,42,298,557,25,45
81,227,22,44,302,560,23,40
104,250,20,44,291,560,25,46
104,260,20,49,286,578,23,48
112,256,20,50,291,592,25,51
140,339,22,56,290,596,27,55
146,394,24,57,270,570,30,62
154,416,25,57,263,560,31,61
165,424,25,55,260,545,34,65
166,433,25,55,252,519,34,67
149,391,23,47,296,559,35,72
150,368,23,45,299,579,34,65
128,338,23,51,324,602,34,58
151,350,21,54,327,602,30,53
155,364,22,57,335,626,41,50
165,357,24,63,307,608,40,54
208,401,25,67,366,624,40,68
216,423,25,65,347,606,45,78
237,433,29,67,340,597,54,100
283,461,29,70,338,584,56,110
288,491,28,69,333,570,57,108
322,530,27,70,274,541,64,122
348,569,28,74,275,533,62,122
401,620,28,79,273,539,57,121
410,642,27,79,279,539,51,126
424,651,28,85,328,546,53,137
391,599,27,84,328,563,45,120
380,546,26,79,355,568,42,120
327,490,26,76,381,572,43,122
344,510,29,85,399,585,38,137
343,468,27,77,374,572,31,127
356,454,28,76,409,572,31,130
350,493,29,83,386,562,36,146
346,481,28,77,372,555,34,140
305,423,27,66,382,544,36,128
302,465,28,77,371,533,39,135
309,506,28,78,356,520,38,147
449,663,27,82,370,526,33,151
456,702,27,87,361,521,43,152
485,703,23,83,328,491,44,159
490,721,23,75,333,479,43,167
487,709,25,78,299,462,44,158
385,593,26,76,282,453,44,156
441,573,28,86,292,448,38,159
430,607,29,93,290,478,43,159
424,554,29,92,276,472,43,154
460,605,31,97,291,470,49,164
480,610,30,90,290,487,51,161
466,610,26,76,318,520,50,163
449,589,26,75,341,511,49,163
456,621,26,85,356,536,54,153
440,586,24,81,375,540,55,172
444,563,25,83,394,528,54,181
420,561,26,83,413,537,58,180
448,602,26,88,425,571,55,181
431,620,25,80,419,566,48,181
409,583,26,73,394,561,41,153
365,559,26,75,375,565,44,154
360,579,27,82,314,519,46,161
318,516,27,74,257,455,44,158
319,461,27,72,237,430,46,159
309,522,25,75,265,429,47,158
306,511,25,71,262,423,43,139
256,445,24,59,292,422,32,116
252,464,24,60,356,433,36,96
235,449,23,57,415,455,36,93
219,371,23,52,413,470,40,111
206,379,22,51,421,486,43,102
210,388,21,54,421,531,43,107
190,332,23,55,386,551,40,107
188,346,23,56,332,556,38,106
189,355,24,58,355,570,39,84
173,353,24,61,375,591,36,80
190,412,26,66,382,575,38,84
199,433,25,69,397,583,36,90
208,458,26,70,397,580,40,90
204,450,25,67,368,557,36,87
205,434,26,66,347,536,40,83
174,357,23,58,323,525,37,67
161,326,22,51,302,502,38,57
154,306,21,51,340,534,37,56
144,332,22,57,342,543,38,57
154,349,23,57,345,541,35,72
146,350,23,58,364,544,37,75
136,351,23,59,367,551,49,83
137,349,23,56,323,515,49,81
134,346,21,51,338,524,50,79
140,336,21,50,344,541,49,75
150,330,21,50,372,537,52,99
157,329,22,51,370,526,41,96
150,301,21,53,384,537,43,102
160,276,24,52,383,523,38,102
161,271,24,53,372,483,38,99
169,280,24,56,325,472,32,79
161,274,25,53,313,470,32,79
161,266,24,53,301,441,36,75
144,267,23,52,279,445,36,80
142,250,22,49,276,448,35,79
124,240,23,46,269,436,35,73
137,270,22,46,273,444,45,91
145,289,24,47,273,446,50,102
150,286,24,48,275,429,51,110
138,294,23,48,272,437,52,111
139,298,22,48,275,442,54,116
130,285,20,47,272,425,46,98
117,299,21,47,274,438,35,85
124,328,20,48,276,437,42,79
127,331,21,51,286,423,43,89
120,330,21,52,299,445,42,84
114,326,22,53,305,442,41,90
119,285,20,52,311,426,43,89
124,304,20,51,320,448,33,82
107,286,23,50,310,445,35,69
105,291,24,50,305,422,34,71
103,282,23,50,310,437,33,67
89,292,23,51,300,432,31,65
57,226,24,51,278,398,36,76
70,223,22,50,285,403,31,75
70,215,21,48,279,400,38,81
72,239,21,47,261,382,38,78
74,237,21,44,270,391,39,78
79,232,20,43,271,393,39,65
65,237,21,43,263,377,40,64
66,249,20,42,268,382,36,56
71,229,22,44,291,379,35,71
75,330,22,54,367,483,35,79
70,359,22,54,402,528,30,81
69,393,22,57,418,540,39,81
71,391,21,58,413,539,39,81
70,392,19,56,410,551,39,72
66,316,21,46,349,465,38,64
63,294,19,46,321,420,39,75
61,247,19,43,310,413,32,73
59,239,21,43,329,429,31,79
51,243,20,46,315,404,33,77
57,244,19,51,307,385,33,77
59,250,20,51,299,380,37,72
70,255,20,51,288,360,35,76
76,258,19,53,294,372,47,89
79,272,18,52,288,377,52,90
88,269,17,49,278,377,54,98
89,262,19,50,295,381,50,98
89,273,21,51,304,407,50,95
82,266,22,48,271,372,43,77
83,286,24,50,301,399,41,88
81,304,24,53,330,437,40,78
88,318,25,51,334,463,41,75
80,308,23,54,356,477,42,82
82,321,24,53,401,521,39,80
84,292,23,52,395,520,33,71
78,265,24,49,380,493,32,73
69,236,24,49,364,485,29,66
76,269,25,45,357,473,29,68
90,299,23,47,332,453,34,69
87,325,22,45,324,464,37,63
83,341,21,47,321,460,34,62
82,355,20,47,327,435,41,71
85,355,20,47,301,424,43,74
93,323,21,48,290,389,39,74
99,297,20,49,291,384,40,75
100,293,19,47,286,414,41,78
102,288,20,47,287,424,36,71
97,257,19,49,310,430,33,56
98,262,20,48,334,452,45,70
89,297,22,51,327,436,58,73
94,285,23,54,335,417,61,70
99,270,24,54,326,406,62,69
107,264,24,52,313,386,63,74
114,281,24,53,291,375,56,66
137,261,25,52,305,385,41,68
160,296,24,58,305,390,45,77
162,308,24,59,309,403,58,84
167,317,24,61,311,435,60,84
156,297,24,59,293,422,59,84
139,295,22,57,294,416,57,83
124,292,21,48,278,406,52,77
131,316,21,47,276,402,36,77
143,365,20,48,259,370,37,75
158,393,21,48,260,379,35,80
187,410,23,52,250,372,38,84
198,407,23,59,261,362,44,97
210,398,24,61,269,365,51,107
245,387,24,67,300,420,48,112
240,416,23,68,377,545,52,111
236,401,22,71,395,579,51,107
232,406,23,70,394,621,47,95
222,407,24,70,397,616,36,83
212,458,23,69,397,599,35,93
205,400,25,73,334,506,45,87
200,416,26,71,304,467,46,85
197,418,26,67,321,451,44,85
202,419,24,64,307,457,45,80
166,334,25,61,278,436,49,69
169,338,22,53,274,426,41,71
189,322,22,58,287,443,40,73
194,308,21,56,261,432,42,79
202,349,24,62,268,450,42,86
197,347,23,60,285,482,39,79
205,368,24,62,291,496,34,80
183,372,25,67,289,507,43,79
173,375,24,69,305,525,45,77
176,369,24,69,294,507,47,98
196,376,24,69,340,562,48,100
202,359,24,68,336,564,49,99
206,365,23,57,332,550,44,99
213,360,24,58,328,537,40,107
217,354,24,55,342,567,36,99
206,348,23,55,292,510,36,97
189,344,22,58,300,513,32,97
175,314,25,57,296,531,29,95
160,298,24,58,292,534,30,84
140,266,23,56,282,524,30,63
122,251,24,53,290,517,29,60
118,241,24,52,256,488,29,57
115,247,20,49,265,475,35,55
112,251,22,44,280,475,33,49
85,265,22,41,306,539,34,44
75,275,21,45,332,590,34,52
89,297,21,45,376,645,34,61
86,295,22,46,392,684,24,58
86,303,21,50,395,706,25,63
80,282,20,51,405,687,23,61
88,290,19,49,391,682,24,54
88,304,21,50,375,656,26,59
92,308,20,51,370,617,32,59
99,320,22,47,341,589,33,61
101,303,23,49,307,560,37,67
97,279,24,46,285,513,35,68
106,256,22,43,268,506,34,59
107,255,24,41,254,527,30,63
108,228,23,41,268,532,36,61
117,243,23,38,269,532,33,62
131,255,25,39,293,556,35,64
120,258,26,41,297,564,36,69
119,239,25,43,300,568,35,71
113,234,24,46,306,573,30,69
104,229,23,47,300,570,30,69
90,216,21,47,274,555,29,65
84,223,19,49,283,555,28,57
94,239,19,48,270,539,34,52
102,255,20,49,270,541,34,52
101,247,21,48,280,547,36,52
116,367,23,49,276,543,38,57
133,416,24,47,279,549,37,64
131,485,26,46,276,548,37,66
133,477,25,42,282,554,38,68
139,485,24,48,284,562,35,63
131,410,24,47,291,575,32,58
115,352,22,48,277,569,34,50
120,275,22,49,276,561,30,57
113,279,23,50,264,548,32,76
112,284,24,46,252,535,33,78
116,287,24,48,252,518,34,77
122,285,26,46,244,525,31,77
122,259,26,43,258,535,32,71
150,290,25,45,258,542,29,57
175,316,25,44,254,557,28,68
174,317,25,46,278,577,29,76
178,317,25,48,298,582,33,82
208,334,24,51,296,594,36,92
228,379,25,57,313,605,34,98
209,345,26,59,321,589,37,92
225,416,26,62,305,576,39,106
243,423,25,61,333,565,35,112
295,451,25,65,346,548,33,123
309,430,25,60,319,531,41,118
332,481,25,64,356,584,38,130
388,465,24,63,351,571,36,127
409,515,24,71,340,581,38,128
445,501,25,70,339,589,38,122
455,494,24,73,366,597,31,124
474,513,23,73,333,562,30,114
470,514,25,73,346,580,29,113
466,494,24,68,326,548,26,119
460,561,26,72,315,549,29,134
442,586,26,72,301,532,28,134
494,588,26,75,307,506,33,153
486,572,25,70,294,491,33,150
464,561,26,70,301,490,35,141
414,585,24,78,321,482,35,125
400,560,24,74,313,483,37,126
311,605,24,76,354,559,32,102
255,595,23,78,388,604,33,95
283,602,24,79,394,618,30,97
294,537,22,68,391,639,28,95
293,517,22,69,399,647,26,86
280,400,23,56,354,589,30,85
282,440,24,61,322,534,29,89
254,432,24,56,294,522,30,79
196,394,26,53,269,499,29,69
188,409,26,51,271,490,30,73
175,419,24,51,275,483,28,70
173,393,24,48,282,520,27,61
205,390,24,58,302,526,27,77
199,371,22,56,318,523,26,73
196,362,21,56,319,537,27,72
205,335,21,59,328,547,27,80
195,293,21,58,351,531,27,78
166,251,21,51,350,529,26,65
166,247,22,52,332,506,28,66
186,281,22,58,325,475,30,69
181,299,22,58,311,465,30,58
177,301,23,57,272,453,30,57
162,316,22,57,255,434,30,59
169,329,22,58,272,450,31,61
145,283,23,51,274,453,28,49
125,285,23,51,294,442,26,45
128,286,22,51,308,433,28,50
121,273,23,47,296,427,29,42
114,275,24,46,305,418,27,36
100,280,24,47,321,441,26,36
105,275,24,47,306,481,26,38
92,283,24,48,315,491,27,33
114,303,24,51,346,525,25,39
142,309,23,53,338,547,26,43
163,323,23,58,329,547,27,46
162,318,22,56,348,538,31,51
162,298,24,58,328,534,31,56
157,296,23,60,312,511,31,60
159,338,25,60,319,489,33,76
189,327,24,56,301,470,37,81
190,336,24,54,275,432,35,82
222,354,25,55,268,402,34,85
250,375,25,54,259,408,35,83
260,342,23,53,245,403,35,89
249,377,25,54,253,394,29,101
269,444,28,59,299,458,32,110
272,469,26,54,312,478,34,115
262,450,27,56,323,478,38,118
252,494,26,58,327,502,39,108
237,474,26,57,346,551,40,111
228,401,23,51,318,515,38,108
205,379,22,55,321,539,37,103
215,397,22,57,325,553,31,109
213,355,25,59,336,542,30,104
226,394,23,62,316,524,29,86
241,453,25,65,311,519,32,81
253,495,27,66,311,496,31,89
234,480,25,64,298,484,32,93
216,452,23,60,277,460,31,93
204,431,23,57,303,426,33,109
200,417,22,58,349,495,33,129
220,388,23,61,379,532,34,137
217,393,23,60,392,527,34,138
242,403,22,62,388,553,36,156
297,486,27,75,364,556,39,161
316,499,27,79,326,512,37,149
310,491,26,78,297,490,38,148
321,500,27,76,276,496,44,143
372,555,29,85,322,505,45,160
333,466,25,74,351,524,64,161
315,477,27,92,357,519,68,165
308,469,28,115,359,495,68,163
319,478,29,125,404,506,64,172
296,436,28,119,370,466,70,168
298,484,28,121,373,450,51,168
297,431,25,105,363,443,43,161
282,440,24,81,362,440,43,153
282,448,22,68,313,404,45,144
247,434,23,66,330,425,34,114
263,424,22,64,292,411,35,104
258,475,22,72,286,401,37,123
276,506,26,79,290,431,36,124
265,555,26,80,327,489,35,130
282,582,24,86,347,513,37,135
285,566,26,87,360,530,38,133
275,527,26,79,364,546,40,114
264,493,23,71,376,561,41,112
255,450,25,73,384,594,41,116
210,421,25,68,384,609,39,106
185,426,24,67,395,618,38,114
182,401,25,66,388,599,35,114
187,395,25,65,367,554,34,119
181,352,21,62,318,456,32,102
203,413,24,66,289,400,36,114
189,389,24,64,277,373,34,96
206,407,24,63,275,369,37,93
193,403,24,64,279,386,37,87
186,390,25,62,296,426,40,91
165,305,22,57,292,420,36,77
161,333,22,57,294,401,38,104
143,334,23,62,305,416,35,116
149,323,23,57,289,403,34,117
159,330,21,57,286,374,36,110
149,328,21,56,278,375,36,107
190,321,23,58,257,371,33,87
187,306,21,53,250,356,33,68
186,303,21,57,261,369,34,68
207,357,21,55,254,361,28,70
210,347,22,53,267,371,30,88
175,330,18,52,307,432,30,80
191,347,20,56,303,418,29,90
185,360,21,56,319,421,28,91
169,295,22,56,315,421,35,96
161,305,22,56,327,429,34,89
163,310,22,53,295,366,33,88
138,296,23,51,295,378,32,86
135,299,24,48,273,356,34,93
112,302,23,47,274,340,27,88
125,300,22,44,241,301,26,90
145,298,24,49,237,330,26,89
144,283,22,46,252,342,34,86
143,267,20,44,255,384,30,74
164,280,20,48,265,408,30,74
157,289,20,51,293,437,30,74
161,289,20,50,297,447,33,96
173,339,22,54,295,453,28,110
194,342,21,59,311,431,29,113
185,348,21,56,297,449,29,122
190,354,23,55,277,423,31,115
174,357,24,57,324,431,30,105
165,328,22,56,332,455,28,88
141,312,24,52,313,448,27,82
131,300,24,55,323,448,27,68
121,274,21,55,347,487,26,67
119,264,20,53,305,468,25,57
110,253,23,51,284,422,27,54
117,266,22,54,290,423,27,63
105,271,22,50,298,421,26,65
112,272,22,51,286,384,26,65
112,314,22,48,288,405,25,72
128,327,20,51,299,430,26,78
123,327,20,46,302,423,25,72
160,371,22,50,322,490,28,72
159,380,24,48,321,516,30,69
161,339,24,46,325,498,30,59
153,316,24,43,328,511,30,55
146,316,23,47,331,542,30,55
124,260,23,48,316,474,29,49
126,259,21,48,318,475,29,55
126,266,21,50,312,485,29,62
128,277,21,51,291,451,26,59
134,272,21,50,283,436,27,61
123,265,21,45,263,437,26,62
114,242,22,42,236,397,22,60
99,249,21,43,224,381,22,53
98,242,21,44,235,405,25,54
109,264,23,41,236,404,26,53
113,269,22,43,240,422,27,50
121,280,22,46,252,463,26,43
118,262,22,43,257,474,26,41
110,266,21,43,272,485,27,52
100,255,19,45,281,505,26,52
89,240,20,43,271,484,29,67
81,243,19,43,293,500,29,66
98,258,19,45,311,526,29,69
103,241,20,45,302,516,27,62
104,245,23,45,312,521,27,61
130,264,24,49,326,538,26,68
134,278,25,51,304,528,30,71
143,288,25,51,299,535,31,68
140,291,25,51,308,546,34,66
142,297,25,52,284,550,34,69
125,276,23,48,284,567,33,60
128,283,24,47,299,571,30,69
104,276,24,46,275,542,36,70
104,280,24,45,268,539,31,69
98,294,24,41,278,540,31,67
104,363,25,43,312,604,32,57
102,374,25,48,319,616,31,53
118,390,26,52,345,641,23,58
122,396,25,52,353,680,29,77
120,368,22,53,360,694,31,77
114,330,23,54,342,649,30,80
128,300,21,50,346,673,32,77
115,275,21,49,363,692,32,86
117,274,21,51,403,675,30,75
124,279,24,53,384,656,26,72
126,270,22,51,382,640,26,73
104,277,24,51,367,594,29,71
103,271,23,47,334,559,28,60
119,288,23,50,276,533,24,61
113,302,21,48,284,524,29,76
126,308,21,48,259,512,32,96
157,325,20,49,248,516,30,104
181,345,20,51,250,514,31,106
177,336,21,46,242,527,35,121
180,321,22,48,251,543,33,120
213,364,23,54,266,571,31,118
201,340,22,51,264,576,31,111
187,353,22,51,276,589,31,108
188,340,21,53,276,566,27,87
190,353,22,49,271,557,25,80
156,310,26,46,266,545,23,53
151,341,27,52,279,558,21,55
144,313,27,53,341,548,25,54
142,340,27,52,336,573,27,57
137,363,25,56,345,599,29,67
114,341,21,55,341,584,29,72
115,316,20,50,344,585,32,72
119,363,19,52,281,595,31,73
111,343,19,51,305,575,30,71
115,337,19,51,319,571,27,64
115,330,20,50,319,563,29,61
100,319,21,49,304,520,30,57
108,288,21,47,296,499,29,55
120,343,21,50,284,504,28,55
117,327,23,49,259,479,31,53
121,335,24,48,262,502,31,53
126,332,23,49,277,538,27,55
121,317,23,49,274,553,26,65
108,247,22,45,305,565,26,66
105,253,23,46,335,579,25,62
101,251,22,49,345,565,22,59
99,262,25,49,338,557,24,55
92,247,25,45,344,541,21,40
93,260,25,47,314,522,23,42
91,251,23,46,275,508,22,49
88,248,23,42,278,509,25,49
92,280,21,43,296,511,27,55
107,290,21,44,284,519,28,70
100,297,21,45,298,537,28,68
107,299,20,45,318,536,28,67
111,316,21,46,303,546,26,67
104,276,20,45,292,533,24,63
86,273,21,44,297,519,24,49
93,279,22,42,283,509,24,56
87,291,24,40,261,488,24,52
80,296,25,41,264,463,24,53
78,314,24,39,263,476,22,54
73,316,23,41,283,489,23,52
71,296,24,43,301,505,22,43
69,298,22,47,343,579,26,46
80,284,23,48,357,598,25,42
84,291,23,50,364,594,28,42
87,288,22,50,358,623,27,40
87,299,21,48,379,646,28,50
85,297,22,45,367,623,25,52
85,317,21,46,354,621,29,54
86,309,20,45,343,613,28,57
98,338,22,46,340,576,29,60
95,328,23,47,298,535,28,50
99,311,23,45,272,497,29,54
87,285,22,44,270,486,25,57
92,279,22,44,267,500,25,58
89,251,23,44,258,500,26,59
91,260,22,42,286,507,28,62
88,253,21,43,293,519,27,57
88,271,20,43,316,531,28,50
85,276,22,46,332,520,26,48
77,264,21,49,350,533,26,48
71,263,22,51,329,521,28,49
76,264,21,50,321,492,28,48
77,241,23,50,306,472,27,53
74,239,22,46,286,456,25,54
79,275,22,43,262,430,27,53
83,271,19,40,257,422,23,52
78,290,20,43,255,424,23,52
78,297,22,45,270,423,24,49
85,294,22,43,271,428,28,45
79,259,23,44,272,426,26,50
84,264,23,45,296,450,27,53
81,250,22,42,304,471,27,55
86,258,21,43,301,507,28,55
93,293,24,46,319,538,32,59
91,299,23,45,335,576,32,51
87,289,24,46,322,575,33,55
90,285,26,50,330,581,34,54
91,314,25,52,330,579,34,59
74,287,21,53,318,579,28,60
85,286,22,54,326,567,27,66
90,307,23,55,334,565,25,57
95,305,23,51,324,555,29,59
97,277,23,50,323,532,27,55
107,285,23,48,320,514,29,60
106,314,24,52,295,504,29,56
106,304,22,49,286,497,28,57
119,303,21,50,281,506,23,55
122,324,23,50,314,533,26,55
113,310,23,49,319,540,25,42
122,299,23,45,353,546,25,40
128,305,23,46,350,550,26,45
115,315,22,49,371,552,28,42
108,310,21,50,348,537,26,37
117,308,22,52,352,543,25,40
125,293,21,52,318,530,24,46
124,304,22,54,341,529,24,40
122,298,23,53,336,549,23,45
130,274,21,52,332,530,25,49
126,276,21,52,326,517,31,47
109,296,24,54,328,520,31,47
100,277,24,50,307,501,31,50
95,264,23,50,285,442,30,51
80,267,23,49,266,464,31,50
71,256,23,46,254,431,24,51
85,235,21,43,262,453,25,50
97,232,19,43,266,499,28,54
104,259,20,44,288,524,30,55
103,245,20,43,285,514,31,57
116,254,19,44,310,553,32,57
104,238,18,43,298,529,32,60
97,233,19,42,303,492,29,53
99,246,20,42,320,513,30,53
99,250,21,44,326,507,27,54
83,255,20,48,330,501,27,52
81,281,19,49,361,528,27,50
75,289,20,52,364,526,30,50
66,270,20,54,352,502,28,48
74,278,20,53,376,512,25,41
80,274,20,50,356,489,23,44
84,277,21,52,328,453,22,46
87,299,20,52,334,466,21,46
89,293,20,50,304,436,22,46
89,285,19,50,274,417,24,50
89,292,21,51,272,416,25,50
89,264,21,48,262,402,25,43
91,239,23,48,232,378,26,46
90,234,23,46,239,381,27,45
91,226,24,49,235,382,25,47
88,202,23,47,243,382,28,46
79,202,23,46,252,387,28,49
80,287,22,51,322,519,29,53
81,389,22,57,383,598,30,53
82,395,22,55,392,610,30,55
89,418,23,60,402,609,28,56
113,429,23,63,408,621,28,59
121,396,23,60,386,555,25,54
139,352,22,58,344,486,25,58
135,367,23,57,339,468,25,52
134,357,22,52,328,456,25,49
129,349,22,52,316,435,24,42
119,326,22,50,283,378,24,47
95,268,24,49,269,346,23,41
97,247,24,46,256,332,26,45
98,255,23,47,253,345,24,48
85,264,22,48,260,338,24,50
82,257,22,49,269,361,25,50
79,264,21,46,260,372,24,50
80,256,21,46,279,381,21,48
98,239,22,46,284,379,25,52
98,242,23,42,283,395,25,52
97,247,22,42,287,391,25,51
108,251,21,45,314,425,31,54
106,278,19,47,301,419,32,54
95,302,19,53,312,430,31,49
90,306,17,54,323,454,31,53
92,313,18,55,325,463,32,53
80,305,18,53,318,448,25,52
80,299,21,52,318,453,24,51
71,280,20,44,296,438,21,48
70,255,21,46,278,405,21,43
68,238,20,43,276,398,19,37
67,229,20,42,253,376,21,33
83,238,19,43,264,381,22,38
92,215,20,43,275,387,23,38
99,235,20,41,274,382,23,43
103,255,21,46,275,367,23,49
115,267,20,46,276,380,23,50
115,265,20,49,265,375,28,54
104,277,21,52,264,355,33,58
100,262,23,50,277,401,33,56
94,257,22,52,267,407,34,56
78,254,22,55,273,385,33,63
63,228,21,52,274,371,35,61
78,236,20,50,270,386,34,60
78,242,20,54,266,340,35,62
111,276,23,51,260,356,37,69
138,291,23,50,269,400,40,68
153,298,22,51,286,418,35,68
161,309,23,52,341,428,32,79
160,420,22,50,336,447,31,88
166,497,19,52,341,430,31,96
169,521,21,55,324,399,27,97
211,548,22,66,328,437,34,113
275,577,22,69,265,413,32,117
340,553,21,71,261,390,35,126
369,494,22,70,270,410,36,145
409,505,20,69,267,399,38,161
402,480,22,64,242,376,31,152
404,469,22,70,262,440,33,150
411,477,23,72,273,461,34,150
390,478,23,74,275,500,32,130
349,450,23,76,305,558,29,112
354,517,23,78,302,537,31,119
302,513,24,69,283,508,30,115
255,480,23,69,276,513,27,102
250,501,26,69,262,454,27,95
259,510,27,67,234,404,29,93
244,451,26,60,250,445,28,81
250,437,25,64,275,472,29,87
226,418,26,59,290,501,28,86
232,363,23,59,305,536,28,87
215,343,22,59,305,550,29,90
201,331,21,57,306,572,31,90
189,315,20,53,300,563,30,86
183,299,20,55,280,539,34,82
170,307,19,51,283,559,32,76
159,297,20,50,300,564,31,72
151,313,21,51,287,543,29,71
153,311,23,50,285,569,28,59
148,309,23,50,308,598,25,60
124,296,23,49,313,590,24,54
118,279,23,48,310,596,23,45
118,271,22,47,324,587,20,44
119,286,23,50,309,567,31,49
134,302,23,49,307,558,31,50
133,314,23,48,317,560,33,53
141,336,22,45,298,562,32,53
153,322,24,50,301,583,32,57
150,310,23,46,308,568,25,64
126,286,22,44,280,540,29,61
140,280,22,46,247,517,27,73
152,308,21,48,258,507,31,78
137,302,21,42,237,496,32,72
142,301,21,45,248,514,30,65
145,328,21,51,285,550,27,66
153,328,21,52,295,568,26,55
139,308,22,53,320,593,22,52
145,317,22,57,346,614,20,57
143,333,23,57,349,642,23,59
140,365,23,57,345,635,22,58
116,360,22,59,334,620,22,53
125,366,21,57,302,587,21,50
114,370,22,55,278,552,21,45
122,364,20,52,286,543,19,45
124,305,22,48,264,523,18,43
136,308,22,44,265,524,18,49
124,289,23,45,289,568,24,52
125,305,21,45,316,633,25,49
120,296,21,44,298,620,25,45
130,309,21,46,306,632,26,47
118,316,21,48,320,654,27,42
146,330,21,53,308,636,23,40
145,292,22,54,277,574,25,41
139,290,22,54,273,556,26,46
132,290,18,52,273,557,26,45
156,289,21,52,290,548,30,52
158,285,20,48,302,555,30,54
192,308,21,50,297,576,29,61
192,312,23,55,315,597,29,65
203,340,24,63,322,598,30,72
199,348,23,61,286,590,27,71
207,352,24,65,274,583,26,85
186,358,23,64,286,583,25,87
196,368,24,62,267,578,24,88
192,372,24,57,268,561,23,86
191,374,23,61,258,545,22,83
160,351,22,55,246,526,22,66
149,326,22,53,248,504,22,57
133,306,21,50,291,493,21,45
124,319,22,47,293,513,20,37
116,291,22,40,309,531,19,35
117,313,23,42,315,541,22,32
121,344,21,45,320,563,23,33
122,358,22,46,297,582,25,35
142,319,20,47,299,578,28,39
142,336,20,48,305,577,27,43
137,316,20,48,318,574,26,54
136,285,21,48,309,552,31,56
141,297,19,49,300,537,30,66
124,282,20,48,279,518,30,68
119,270,23,48,264,493,32,67
123,271,23,46,244,495,32,59
128,287,24,51,244,488,25,58
121,256,25,52,252,486,25,43
103,265,24,55,266,514,23,40
95,254,21,53,276,528,26,39
86,253,21,54,291,526,27,40
81,278,20,52,298,547,28,43
80,288,19,50,287,532,27,42
77,282,20,46,268,500,27,38
75,283,20,45,268,499,23,37
70,278,22,42,268,499,22,34
68,247,23,39,282,484,24,38
70,253,24,40,290,498,25,37
90,304,26,48,347,550,25,39
96,316,27,49,354,554,24,41
102,335,25,49,378,562,23,42
118,395,25,50,354,554,27,46
141,380,22,50,358,541,33,49
146,342,20,44,312,501,33,54
150,355,19,44,297,478,33,55
154,361,19,48,254,450,34,62
141,299,18,45,260,446,31,57
120,301,19,43,232,432,26,56
104,324,20,44,244,429,25,50
91,304,21,44,252,425,28,49
82,291,22,41,262,439,28,44
91,305,23,48,301,500,26,46
111,323,23,52,309,521,26,45
120,307,22,54,312,514,25,47
126,309,20,54,340,530,24,51
130,305,21,56,346,526,23,48
121,293,20,53,319,477,23,50
101,298,20,50,332,459,25,52
97,287,19,48,317,446,26,52
104,305,20,51,286,426,23,58
112,300,19,49,274,426,25,58
135,322,21,46,262,418,25,53
141,320,21,45,247,436,27,54
143,333,21,45,262,442,27,53
132,324,21,43,276,454,27,44
149,371,23,44,276,442,25,60
145,358,23,45,289,444,26,65
162,365,23,49,285,422,22,69
184,398,24,50,276,441,22,76
214,404,25,55,269,433,25,79
234,371,26,55,271,467,29,75
238,376,24,57,264,493,28,74
246,355,22,60,275,510,29,75
264,417,23,62,280,494,29,94
264,411,20,68,287,515,35,102
328,485,24,77,283,503,34,124
346,486,25,79,286,483,35,131
368,500,25,77,278,490,41,148
383,468,24,79,274,499,44,153
390,507,26,74,261,476,40,151
356,442,22,65,252,472,45,148
352,478,23,72,281,507,47,155
359,499,24,75,285,488,43,156
355,510,25,75,285,495,46,149
369,536,24,79,288,505,47,156
344,554,25,82,308,512,42,143
326,524,25,73,278,483,40,129
338,576,25,79,338,524,41,120
358,597,25,81,329,528,35,121
345,581,29,81,344,568,36,116
354,614,29,83,342,570,35,119
380,634,29,89,369,582,36,118
336,568,30,81,337,581,37,108
299,545,30,81,348,575,37,97
287,534,29,77,352,560,32,84
295,513,28,83,370,587,35,96
271,479,28,80,363,569,34,97
272,511,26,83,376,569,35,109
264,452,26,77,384,580,33,111
266,416,25,80,367,552,36,117
241,421,27,75,339,512,34,107
306,476,25,89,329,521,35,118
310,450,25,87,288,476,36,107
296,451,27,87,264,437,37,98
293,469,25,83,260,443,38,98
282,423,21,76,248,420,38,91
195,374,22,57,230,389,37,75
201,352,23,57,236,403,32,75
221,398,22,60,239,408,33,83
209,385,23,59,250,420,36,87
246,381,24,66,288,460,35,103
289,453,25,69,290,477,36,120
286,450,25,71,311,481,38,125
305,443,26,84,351,506,37,129
377,501,24,88,353,505,39,143
376,550,25,87,361,524,37,140
342,491,24,86,359,511,40,128
331,485,22,83,332,489,37,120
309,461,22,72,300,469,37,111
214,435,24,72,292,450,30,82
198,371,23,73,256,390,33,83
215,382,22,79,260,400,29,81
224,394,23,81,262,402,29,80
225,431,23,80,249,399,30,81
243,440,27,81,238,383,30,90
247,478,27,83,255,390,29,91
249,475,27,78,253,385,29,91
283,524,27,94,344,501,32,109
287,539,26,95,401,570,31,118
291,515,22,102,410,600,32,124
296,519,24,102,409,617,30,125
319,542,25,110,416,614,45,156
312,545,26,101,361,535,46,153
305,511,28,102,322,469,48,149
