55,225,440,232,238,77,143,157
58,228,552,249,251,80,119,151
60,252,512,239,285,87,99,156
61,245,543,245,286,86,96,158
62,258,537,220,293,82,103,169
64,256,561,226,288,75,116,190
65,274,458,234,325,83,124,208
64,271,475,235,299,73,130,208
64,268,415,217,317,81,221,210
60,275,419,230,314,81,234,205
63,316,419,228,312,80,229,129
59,349,434,204,264,74,227,97
60,337,447,205,244,79,235,93
62,355,459,211,219,76,189,163
70,351,446,197,196,72,170,188
69,311,469,196,222,75,175,188
66,246,448,188,252,68,189,209
68,267,426,204,243,63,178,214
65,230,391,182,248,62,157,172
71,259,439,212,266,63,156,143
68,270,407,204,233,65,142,139
66,261,383,228,219,72,116,98
67,271,426,219,212,74,108,83
70,299,533,234,231,72,72,62
55,268,509,220,222,70,59,49
55,266,506,225,225,66,62,54
56,288,517,228,300,58,65,54
67,278,481,212,293,51,74,66
68,305,439,223,310,51,83,129
70,299,460,228,338,67,90,133
69,292,479,221,343,73,100,136
75,312,470,193,263,74,106,143
61,291,491,208,277,85,101,139
61,260,445,222,272,86,98,132
59,260,434,212,300,79,102,151
59,267,462,221,306,76,95,158
51,240,486,219,311,79,129,190
61,271,497,218,309,70,200,235
63,261,496,192,301,79,314,244
69,289,496,202,234,79,325,246
70,293,473,189,226,80,328,238
68,281,459,206,226,80,315,214
61,264,440,210,232,83,277,164
54,258,472,242,205,74,149,114
50,221,452,263,197,74,118,91
58,254,421,273,208,68,105,90
61,265,479,289,217,76,111,77
64,283,499,284,205,73,114,119
74,277,469,259,197,67,105,195
71,271,454,233,195,70,119,197
67,236,455,226,171,77,119,200
76,252,389,203,168,64,111,203
80,239,390,210,193,79,126,211
80,284,427,229,211,90,119,174
87,301,476,217,212,89,120,198
86,299,475,219,241,91,119,205
80,305,495,231,247,97,123,216
74,297,474,222,221,85,111,194
67,257,446,200,205,75,127,218
67,247,409,199,204,73,119,202
66,229,445,220,182,64,118,195
64,227,431,207,184,57,140,185
65,253,543,254,205,72,136,182
59,247,551,250,210,75,121,144
58,297,560,258,215,77,129,135
58,297,529,239,208,77,130,145
56,265,528,232,209,86,104,140
62,243,405,173,192,77,102,190
65,260,388,195,193,73,110,171
62,189,389,197,229,69,105,170
64,196,405,217,239,68,113,190
67,208,450,219,234,63,113,193
73,199,474,216,238,73,111,188
70,184,462,191,230,76,105,188
74,201,445,185,217,81,106,191
77,199,409,160,205,84,96,191
81,216,352,176,187,81,103,210
67,203,291,174,184,70,100,172
68,208,349,180,204,76,98,178
60,212,330,172,168,72,85,178
58,207,381,189,178,67,90,179
49,180,377,162,215,81,80,151
57,201,392,168,210,84,80,165
63,213,336,183,194,80,76,168
62,212,332,176,192,84,68,174
57,220,308,176,175,88,63,153
61,244,317,197,220,76,64,169
70,261,309,201,267,88,65,200
72,240,354,226,266,84,62,201
72,221,384,244,265,79,67,197
75,242,444,258,273,75,59,185
72,210,439,243,218,75,64,171
68,174,437,234,159,56,69,181
65,168,451,217,183,57,66,181
67,185,455,203,202,56,66,183
65,143,394,186,206,56,67,184
66,156,391,194,211,58,59,186
56,196,418,241,228,60,55,144
55,204,358,219,205,60,56,140
57,222,372,225,189,59,53,145
57,226,377,237,210,63,56,168
67,261,359,235,190,60,57,168
65,255,366,202,224,60,50,145
70,262,360,210,257,66,52,209
67,234,326,213,277,74,52,198
68,252,329,205,257,85,53,183
58,209,358,211,283,88,54,183
58,191,327,203,248,90,56,181
55,176,331,200,238,94,59,181
53,184,318,191,227,93,64,184
49,150,337,178,220,79,59,190
49,171,317,153,197,78,56,191
54,150,350,161,239,79,63,245
46,167,343,163,241,65,61,192
48,178,362,163,250,61,53,189
49,189,337,154,261,67,59,184
47,167,360,175,272,64,63,183
44,164,342,192,260,54,60,121
43,152,353,192,258,64,54,113
46,139,339,189,259,73,60,177
50,150,354,189,263,67,59,176
51,162,329,201,250,65,58,177
53,214,401,224,319,78,54,170
59,225,432,232,309,77,53,201
57,229,430,250,321,70,46,148
58,218,415,260,317,82,48,191
58,217,441,243,340,97,46,187
54,211,413,217,253,93,47,190
54,195,376,214,248,92,47,181
53,188,376,205,209,97,46,181
48,184,375,193,202,88,46,133
45,183,342,205,165,76,49,134
47,155,293,185,194,84,47,126
47,154,310,178,208,82,51,120
53,183,329,163,212,74,54,137
53,188,357,189,213,78,50,139
61,215,390,171,208,78,47,136
66,200,373,171,227,63,51,177
69,240,388,168,220,60,54,190
66,228,438,209,227,63,54,177
76,287,428,186,231,61,51,179
82,309,428,198,235,66,53,179
82,350,491,192,197,69,56,160
84,357,470,187,208,73,48,117
85,359,413,138,206,73,46,115
78,339,395,126,192,68,43,126
74,320,373,138,223,65,45,154
72,294,352,151,239,63,48,161
63,266,374,193,217,58,50,172
64,268,367,219,269,58,57,196
74,256,374,228,279,62,60,216
68,268,396,216,248,53,57,200
67,251,351,219,243,52,53,177
66,239,322,199,275,56,51,168
67,273,357,177,232,54,44,155
60,256,404,181,227,50,44,185
60,221,376,177,230,54,45,193
57,255,361,187,222,57,42,193
60,255,356,172,186,61,49,219
60,229,342,185,159,65,50,231
57,267,322,207,157,66,53,183
55,264,333,215,143,75,52,173
60,239,354,208,124,74,55,173
74,269,377,224,139,68,50,179
72,274,398,215,159,65,48,151
70,257,404,213,188,68,44,143
74,266,402,210,232,54,43,148
69,256,399,198,266,53,44,154
56,269,417,183,259,59,43,151
52,243,396,194,267,59,47,146
52,210,342,180,252,56,45,143
47,215,342,181,216,60,48,141
49,224,338,187,188,60,44,162
42,189,289,211,200,54,44,120
52,213,275,191,205,49,41,142
53,219,290,190,194,49,46,144
52,214,314,194,200,44,43,178
53,224,318,196,198,47,42,149
53,215,358,180,180,52,43,150
48,230,359,190,163,53,44,131
51,238,368,183,165,57,42,169
51,244,351,215,190,66,42,140
51,251,405,211,194,74,44,141
59,308,445,239,212,72,42,138
56,286,460,240,229,72,41,190
66,309,458,249,228,68,40,167
69,297,462,225,212,65,43,176
71,289,405,240,246,53,48,193
72,253,356,202,234,53,55,198
83,295,387,210,205,56,64,155
77,281,456,234,259,61,69,148
79,282,445,222,248,56,72,170
79,288,462,205,200,59,71,163
74,282,443,203,208,64,65,160
67,239,401,189,216,68,58,157
76,266,308,186,195,80,64,189
75,272,299,186,204,84,64,178
71,265,290,186,236,87,66,167
74,273,352,203,231,84,75,198
73,308,385,213,237,86,81,201
62,283,451,218,249,70,74,168
63,312,473,230,249,74,73,152
74,338,473,226,219,71,75,225
80,352,443,215,217,69,79,238
82,341,475,208,213,64,77,234
78,338,422,165,173,68,77,239
81,314,405,177,183,58,76,274
73,294,431,195,200,60,71,226
70,272,438,201,210,64,60,188
63,253,389,202,201,65,49,195
75,287,400,199,202,63,50,207
82,312,395,170,201,68,53,231
85,300,388,174,177,63,55,232
85,277,418,166,180,58,54,235
96,286,429,184,200,53,64,236
85,253,418,180,194,56,59,220
81,225,483,202,176,57,61,179
78,236,481,209,244,68,59,169
74,238,436,215,253,72,59,157
70,223,406,197,237,77,58,178
74,234,421,196,233,72,67,270
69,259,325,174,246,77,71,250
72,282,311,153,194,68,72,253
72,285,309,146,164,63,72,256
62,279,423,171,191,67,66,252
75,267,458,201,197,70,69,261
80,287,504,236,189,67,63,259
78,262,504,229,193,70,60,267
77,254,500,236,216,71,63,307
82,298,408,218,217,64,63,301
72,334,380,224,221,65,55,223
65,291,380,214,231,59,54,215
64,288,356,214,235,58,52,201
64,322,431,222,221,72,53,223
67,331,434,224,205,77,52,230
66,305,413,238,248,78,51,219
66,303,376,216,242,79,51,220
75,355,419,231,257,84,63,220
78,343,348,223,264,74,66,131
75,319,437,221,259,77,66,153
76,324,472,215,228,80,64,157
76,340,473,224,232,81,65,155
84,334,438,215,202,73,56,156
80,349,435,204,231,79,53,185
80,350,358,206,240,70,55,145
78,330,297,173,296,79,55,173
75,321,284,159,297,85,52,174
59,281,320,175,336,93,53,173
58,249,329,191,323,89,50,178
51,224,387,200,318,87,48,175
58,253,395,194,264,74,50,148
59,244,397,218,292,90,50,143
56,262,393,204,263,89,54,158
63,294,406,218,270,88,59,154
68,290,351,221,282,100,57,155
58,261,371,238,281,102,53,148
59,265,352,228,242,80,56,150
71,224,361,232,227,77,55,211
67,206,422,243,204,80,55,182
66,267,425,227,197,64,58,186
71,278,401,203,181,64,59,194
87,338,431,199,200,65,66,212
86,339,403,194,210,58,61,179
93,333,345,139,204,50,62,184
98,325,409,155,192,53,59,178
94,328,424,181,184,56,58,171
91,282,407,177,158,59,62,207
81,277,407,168,150,61,60,172
86,338,390,179,148,60,61,165
81,305,336,174,213,93,62,168
85,341,380,197,242,97,64,167
77,361,408,195,246,94,54,84
87,383,412,205,239,97,54,139
72,315,428,213,247,101,46,143
73,310,387,208,245,75,45,141
71,265,316,171,268,77,44,143
67,224,314,180,306,82,43,141
55,212,331,207,314,80,44,81
55,238,311,210,317,78,43,61
50,255,375,227,278,74,45,54
52,266,438,247,296,65,46,46
50,252,412,239,268,68,51,70
48,232,433,207,257,66,50,73
60,229,467,205,263,63,54,130
62,229,464,202,261,66,60,148
74,276,406,176,213,64,73,163
75,281,466,204,233,60,69,159
88,332,459,222,242,63,71,189
84,334,480,225,266,75,74,237
96,339,478,222,294,80,71,237
84,301,506,221,292,81,58,229
89,321,463,200,271,81,56,228
91,310,535,198,277,81,58,235
87,301,524,192,245,82,52,164
76,299,517,199,208,80,51,169
75,284,501,222,211,77,50,169
67,266,522,229,219,77,56,166
42,213,465,248,208,79,51,115
43,212,441,262,231,70,53,100
45,228,430,253,246,70,57,59
59,283,483,246,222,70,64,55
74,287,495,280,223,69,80,61
75,289,463,258,219,62,85,72
86,298,461,257,205,62,86,76
84,286,453,260,198,56,80,72
82,312,402,266,220,55,76,67
74,318,371,238,224,53,55,59
77,389,449,289,245,59,58,46
71,424,562,366,245,56,57,38
73,441,613,411,297,59,61,56
77,466,621,427,282,58,69,107
88,479,648,437,272,58,76,112
94,475,684,471,279,52,74,117
97,461,609,412,271,58,77,121
111,475,592,424,222,63,104,122
109,428,729,410,240,65,105,81
107,441,734,397,240,64,108,94
112,414,682,342,250,78,111,92
113,416,678,333,246,78,113,100
106,419,688,274,236,72,92,92
110,420,619,310,221,71,93,93
118,413,586,312,226,104,91,81
110,403,555,305,188,99,92,75
108,380,581,313,199,101,90,66
105,362,608,364,215,104,94,73
109,410,529,323,220,110,88,72
97,404,555,339,208,79,81,67
105,425,622,353,206,77,87,69
107,454,655,395,217,71,88,67
114,452,671,401,273,81,100,69
119,431,696,406,299,80,109,78
115,414,729,398,302,81,108,77
105,384,680,369,310,80,97,73
109,352,619,355,326,86,104,72
104,363,525,289,271,74,97,68
100,342,506,297,296,75,88,58
120,429,475,303,308,83,92,64
126,441,575,327,291,82,93,66
119,437,597,321,290,84,88,62
135,413,707,338,291,95,102,76
134,412,767,366,259,91,107,80
126,334,852,408,266,84,115,80
124,399,804,402,283,86,119,79
129,448,836,390,254,83,124,81
123,486,829,397,295,68,127,77
134,495,859,358,284,62,151,90
138,504,780,303,263,60,151,93
137,484,801,294,253,66,152,95
136,437,761,274,249,59,145,94
128,442,760,300,214,63,137,87
112,474,743,393,200,71,111,72
98,465,711,387,200,73,103,63
107,456,675,378,192,63,105,67
102,456,669,407,206,61,110,70
111,539,800,366,226,65,117,76
111,491,811,368,253,71,129,79
137,566,889,406,328,73,138,90
130,554,889,417,334,76,138,87
137,574,948,415,329,85,135,88
135,505,872,470,334,93,129,83
170,580,882,420,315,84,132,104
157,514,865,395,232,86,129,101
208,615,903,469,235,87,147,120
204,608,980,501,298,89,148,118
205,607,941,481,273,84,161,128
177,560,1003,567,282,80,146,111
171,542,962,577,295,79,138,104
108,419,968,518,284,76,118,86
132,453,858,515,231,68,133,94
138,395,885,568,225,59,132,93
135,347,810,498,221,63,139,93
138,372,880,529,206,76,163,95
138,436,1013,663,217,83,189,99
126,478,1067,685,194,83,189,110
136,575,1061,649,194,87,182,103
180,665,1042,647,240,103,200,127
178,652,985,620,276,100,189,130
182,653,907,520,311,100,180,138
194,604,821,506,325,102,195,140
181,606,1033,510,354,119,198,141
141,503,994,476,321,106,185,122
165,593,999,541,322,99,215,134
154,532,941,501,288,95,201,120
132,538,962,442,281,96,177,102
149,473,677,405,230,71,179,108
166,538,741,433,231,72,181,117
171,446,788,374,237,88,177,132
197,481,912,492,268,95,225,163
200,474,907,536,261,92,223,164
187,451,952,558,268,103,214,159
167,375,895,532,274,143,208,166
168,574,896,517,257,149,192,195
160,601,779,406,214,146,163,191
205,646,811,381,263,149,201,218
213,641,768,381,298,146,209,219
232,707,815,433,295,108,213,214
222,606,786,440,270,86,199,167
207,568,803,457,284,98,180,147
176,503,766,447,261,101,160,109
170,534,783,406,247,93,148,101
191,529,735,361,246,89,146,94
191,560,797,348,254,92,150,99
224,677,771,400,258,79,165,108
217,689,763,371,238,69,144,99
219,691,746,388,210,78,145,106
213,752,849,466,236,105,193,135
209,683,733,448,241,108,203,134
173,569,694,388,229,116,217,123
167,581,736,436,271,123,224,123
163,578,719,449,274,116,229,117
128,443,656,374,246,104,200,88
119,457,827,413,234,101,195,93
132,460,866,430,249,102,191,104
131,490,819,387,216,100,184,102
142,525,894,392,222,106,197,114
149,568,872,398,222,102,189,108
174,631,860,374,225,98,195,113
192,693,867,394,217,102,187,116
197,675,918,404,215,100,197,124
183,630,831,356,225,95,181,112
186,620,822,414,271,94,189,114
168,559,690,393,286,97,168,101
136,473,639,361,280,90,145,83
127,444,653,349,273,86,135,73
124,426,684,368,257,86,131,72
105,328,671,273,202,82,117,73
112,311,662,289,212,89,124,84
120,353,738,318,216,82,139,92
123,334,646,308,203,88,132,97
129,374,689,317,231,90,129,100
130,429,699,335,239,90,112,91
141,485,742,399,276,84,141,101
163,477,698,355,297,79,155,116
165,499,704,373,304,72,152,113
167,545,696,361,303,75,160,116
163,512,701,376,341,74,170,126
144,502,748,296,296,71,163,113
110,487,765,353,268,75,134,88
111,484,784,355,260,71,140,88
105,492,781,357,230,78,131,78
116,524,853,377,177,90,126,65
113,500,827,382,159,90,122,71
135,540,819,355,169,88,132,88
139,569,848,420,216,88,149,95
139,507,810,425,227,81,159,103
136,501,738,428,226,68,154,99
139,523,765,428,252,70,133,96
116,485,722,413,245,83,129,87
121,474,669,368,228,84,116,87
120,477,622,369,256,84,122,82
118,454,641,318,264,90,135,87
115,433,629,313,245,86,162,85
123,489,697,329,263,85,182,90
108,459,829,353,272,105,174,91
105,490,875,372,240,110,164,91
137,600,930,419,242,115,243,103
140,621,900,437,237,114,231,102
173,659,864,430,232,109,223,101
176,665,786,405,250,92,227,95
185,724,808,373,245,83,224,94
161,641,792,353,229,72,127,75
164,663,836,361,241,71,147,84
126,585,840,340,240,72,140,78
148,623,826,351,221,70,136,81
153,539,803,358,231,79,147,91
156,553,725,346,242,78,147,93
154,507,701,354,252,87,124,87
153,486,700,377,236,106,131,88
134,439,760,330,211,114,132,89
116,402,729,318,200,107,120,78
115,416,761,289,205,107,115,76
123,395,707,259,176,99,111,86
117,406,665,232,171,71,88,125
114,376,629,256,163,55,95,126
110,358,637,257,206,63,100,132
106,336,628,259,193,68,109,134
96,327,609,244,202,66,109,131
106,384,643,271,216,71,113,95
96,389,562,243,232,78,100,85
97,428,596,242,244,75,103,77
124,513,627,341,256,82,122,99
126,521,635,337,262,86,123,95
135,514,655,326,282,86,124,98
150,560,747,385,285,85,132,107
157,532,741,396,268,86,132,111
134,421,678,304,257,79,107,89
134,451,742,315,248,79,126,95
119,406,698,308,252,83,120,96
101,364,672,276,250,87,111,88
87,381,633,258,253,87,102,79
101,474,632,280,269,91,101,81
107,455,559,282,272,92,78,76
119,471,553,272,251,87,82,69
116,479,482,224,234,83,82,64
124,487,492,219,246,90,90,70
111,404,470,219,250,104,90,64
110,464,508,267,242,102,89,62
100,450,546,304,236,109,87,60
111,437,547,343,262,110,93,64
102,430,603,363,275,121,97,62
103,434,588,370,247,104,97,63
95,370,595,346,260,108,95,57
121,438,596,340,271,96,115,72
116,474,632,318,275,97,112,71
148,578,671,318,252,81,110,80
154,626,795,421,273,90,121,90
157,610,815,453,283,92,124,93
136,564,797,442,269,95,101,78
154,627,859,456,256,98,124,105
137,563,832,444,229,93,119,99
136,527,820,364,249,87,119,95
136,531,783,319,248,92,117,95
148,546,832,361,267,102,126,105
133,464,730,336,250,92,105,78
127,474,697,355,258,90,105,76
119,450,622,350,227,87,91,70
114,484,669,362,200,73,91,69
107,476,647,335,174,60,97,61
119,538,715,458,210,61,128,79
113,494,739,454,205,60,127,79
119,547,734,456,206,52,128,80
117,516,728,448,213,53,129,88
115,525,709,453,300,87,122,87
96,433,621,366,309,94,91,74
102,453,617,450,353,97,94,75
94,384,694,479,374,109,94,81
127,430,675,511,382,124,123,92
121,403,798,533,326,99,122,90
125,427,903,521,310,98,121,93
126,436,963,513,324,102,132,99
144,495,913,522,306,100,148,111
118,466,883,479,306,81,122,95
121,488,764,459,321,86,117,91
131,528,651,442,310,82,118,91
136,526,548,373,240,75,106,86
126,475,607,336,223,66,94,75
125,465,647,357,208,67,98,76
123,437,666,347,215,61,96,76
111,331,719,351,219,93,114,83
97,299,682,328,221,96,110,79
89,325,710,354,230,96,99,69
105,355,725,376,265,103,123,86
106,353,692,364,244,104,126,86
104,396,720,383,241,80,107,77
124,396,771,400,253,76,130,88
124,372,717,369,257,72,142,95
129,396,673,340,216,56,137,89
152,424,755,332,190,53,160,106
158,473,684,305,201,48,158,103
145,502,666,295,227,58,143,97
143,512,642,310,213,65,130,90
134,534,674,302,217,77,112,81
114,508,639,300,237,79,85,65
109,444,606,305,232,79,98,70
107,421,591,305,229,87,89,65
117,417,565,353,270,91,117,77
107,316,525,348,263,81,123,76
108,358,551,428,273,86,124,73
104,360,634,478,359,103,121,72
99,347,648,512,341,97,127,72
102,401,774,500,309,96,109,63
108,440,801,517,320,104,108,70
108,431,778,476,311,102,108,71
110,424,722,428,198,86,106,73
120,427,704,396,203,80,113,79
116,403,579,368,206,71,118,80
114,394,560,385,226,63,122,81
118,448,528,397,241,58,117,77
117,463,591,400,257,67,124,81
113,464,603,421,309,73,122,82
114,510,725,478,314,76,121,81
114,510,743,463,295,75,120,78
106,474,766,437,309,86,121,81
100,463,759,445,312,81,112,71
98,471,803,422,255,76,102,64
91,404,781,381,258,77,92,61
97,415,833,414,283,85,129,84
103,420,819,403,249,78,133,85
128,510,793,447,253,85,158,111
127,483,759,437,317,116,163,115
131,480,655,394,319,116,165,117
124,446,544,355,303,109,129,98
110,398,534,411,307,115,123,92
79,283,716,382,306,108,92,62
77,278,716,440,245,75,84,55
62,257,771,467,259,79,81,53
94,392,817,464,263,83,90,60
100,414,809,418,248,72,88,62
100,412,686,388,240,71,81,61
99,456,681,331,227,68,83,60
102,463,680,323,219,65,83,59
75,380,757,352,268,78,81,56
85,380,764,363,283,86,99,70
84,363,740,366,274,87,99,70
86,331,785,400,278,90,108,74
89,350,808,444,275,90,112,74
88,408,724,411,209,77,109,71
77,402,779,420,200,68,102,61
97,474,811,466,229,73,110,66
95,478,744,440,231,76,98,59
92,483,743,381,209,71,89,58
90,406,697,396,241,85,87,57
90,419,645,385,234,92,68,50
70,373,642,336,201,87,48,41
81,407,706,323,203,86,55,46
83,367,663,300,213,114,60,45
86,391,737,309,201,123,65,51
85,411,728,295,199,121,70,51
90,383,748,304,235,129,89,58
107,445,714,320,238,134,87,63
109,458,717,329,269,115,95,69
106,450,642,284,292,111,98,70
113,455,625,276,311,109,97,71
108,459,594,288,309,99,88,66
76,338,573,285,313,93,89,56
75,351,594,335,282,93,87,53
88,355,629,385,263,74,87,51
81,326,665,392,245,72,86,52
82,326,658,392,239,83,78,51
84,330,669,394,226,78,80,56
80,325,596,346,244,70,71,51
66,341,579,343,229,69,69,50
74,397,668,427,243,80,87,59
74,396,651,423,249,79,90,61
77,403,638,419,277,85,92,61
80,397,694,449,274,88,106,67
82,378,760,479,276,90,113,68
89,305,674,477,291,103,137,80
88,304,675,454,273,106,142,86
88,330,644,448,261,102,140,85
94,345,605,439,259,101,132,84
99,384,560,381,248,102,122,83
84,374,516,313,259,80,81,65
88,395,496,315,251,67,74,60
92,397,527,349,253,67,74,64
85,376,478,301,271,70,66,59
82,392,388,291,279,66,68,57
82,407,493,276,294,83,64,55
83,400,513,292,301,83,58,52
79,372,503,247,286,92,58,49
73,378,548,259,249,93,61,48
65,316,591,236,246,94,57,47
77,328,548,256,177,78,78,55
76,316,506,254,165,80,80,54
99,377,555,368,200,70,91,57
103,378,590,421,260,82,107,68
105,372,580,429,267,83,111,70
107,395,552,414,270,82,106,69
105,444,626,408,278,80,104,68
101,439,668,344,264,77,105,69
105,454,620,300,235,67,86,60
103,454,604,306,270,66,82,57
110,495,604,314,269,71,90,59
114,459,550,316,269,70,95,64
108,434,472,316,282,70,93,62
118,441,525,326,272,65,104,67
192,564,549,346,275,92,147,118
189,507,547,332,286,97,136,118
222,562,586,344,284,100,142,130
229,603,683,334,258,100,141,130
231,653,714,303,260,98,159,133
182,610,765,332,249,95,130,96
191,610,779,335,244,90,148,103
171,599,806,316,254,103,154,103
205,670,735,311,253,107,166,119
197,619,675,340,245,110,145,116
199,595,646,301,206,96,147,117
205,661,696,299,182,92,141,115
235,662,796,362,202,86,187,135
197,566,821,372,220,83,177,119
196,550,864,347,238,84,179,119
190,562,944,346,243,80,172,115
189,589,988,418,260,91,171,117
171,627,920,408,239,81,115,89
177,649,908,395,254,80,114,93
180,670,963,432,233,93,111,92
181,697,982,521,273,99,119,93
184,678,995,548,282,97,125,93
169,686,1053,628,274,94,130,85
171,680,1048,645,251,95,126,85
188,733,1044,652,252,84,138,101
199,744,1065,670,218,79,143,107
257,823,1044,642,209,82,158,134
250,787,983,571,214,97,158,138
263,825,1021,579,232,99,167,144
255,793,999,597,302,101,161,135
258,772,860,548,312,105,165,133
195,649,839,530,312,98,148,107
184,632,836,508,324,94,136,97
172,602,887,504,335,92,134,99
162,561,809,449,291,89,129,96
179,549,825,394,269,84,134,103
199,583,792,386,302,102,150,114
218,582,760,364,297,98,168,127
210,554,626,309,265,95,164,120
248,638,699,359,279,102,194,141
240,661,761,426,308,106,204,148
218,667,790,418,272,92,186,136
202,660,828,478,289,90,171,124
198,646,904,522,297,93,173,124
163,592,870,514,309,98,156,108
144,554,896,473,288,92,131,89
149,537,901,478,293,96,134,95
146,540,881,465,281,92,134,94
148,521,771,427,276,93,135,96
134,494,780,389,233,80,123,89
131,520,673,359,257,79,114,84
124,494,624,395,300,80,122,82
121,463,596,350,292,80,116,78
147,550,704,417,347,98,141,102
143,540,641,427,342,93,133,98
134,465,627,422,330,92,130,96
126,435,608,405,338,94,124,98
130,463,696,423,333,94,129,101
106,413,621,352,295,75,91,73
109,406,628,342,300,77,101,73
127,452,658,338,311,87,106,81
124,469,752,383,271,79,107,72
128,488,670,372,279,77,108,73
120,437,672,392,272,77,108,70
127,532,738,407,266,79,101,70
109,523,778,436,237,67,98,59
105,509,668,355,203,62,87,55
95,499,676,331,190,64,86,51
98,528,673,297,181,63,82,51
103,508,704,333,219,71,90,65
111,485,640,323,248,72,98,74
157,530,764,382,276,80,146,109
159,495,723,381,287,86,149,111
156,477,752,409,328,85,152,113
147,419,763,509,334,91,152,105
149,452,823,553,321,97,154,106
110,431,830,581,292,101,116,80
107,450,960,598,274,95,120,81
103,429,971,590,222,101,123,80
108,438,992,501,185,97,129,91
123,425,955,469,182,96,135,91
119,383,926,438,193,95,167,104
119,396,814,440,225,95,161,102
133,382,815,427,225,91,171,109
135,390,839,422,230,86,168,106
125,379,927,379,218,81,158,105
120,355,875,333,247,71,118,88
118,377,898,328,237,77,120,89
101,377,838,317,225,72,96,76
100,382,692,282,233,76,96,71
94,376,584,404,250,75,118,77
100,403,553,402,227,79,131,84
115,365,539,407,264,80,167,102
119,374,556,446,280,82,173,105
116,381,565,447,281,82,172,105
133,419,579,378,297,90,166,109
129,446,614,391,287,85,153,101
119,450,630,385,267,82,108,81
116,470,645,347,284,95,101,78
122,449,703,350,295,92,105,80
99,441,709,310,263,81,90,61
95,426,724,292,287,82,90,65
93,416,691,290,294,86,94,66
106,411,732,342,275,72,111,76
90,383,710,351,255,72,100,67
84,334,682,364,262,78,99,68
80,269,699,394,245,77,105,67
93,286,818,481,215,83,123,77
76,255,819,487,202,80,117,69
83,257,819,495,203,77,115,73
97,296,833,539,209,83,128,81
101,303,847,556,253,93,125,81
89,264,760,476,241,81,106,73
97,328,747,490,268,89,114,81
110,391,847,514,264,98,139,102
98,358,799,463,286,98,128,96
105,422,784,482,256,98,159,109
116,464,792,509,308,107,178,118
181,584,872,475,307,112,213,145
184,570,743,452,329,104,209,137
184,576,753,494,336,100,210,136
179,528,675,418,342,90,186,124
176,565,764,396,326,95,175,118
119,473,649,386,324,85,131,81
97,439,648,345,304,97,113,69
93,433,636,269,262,95,105,67
107,515,673,329,269,102,118,74
100,465,595,346,243,89,107,67
80,443,704,342,217,91,99,68
83,448,802,383,243,82,109,76
84,451,805,388,271,87,113,79
64,370,788,351,275,87,99,75
66,378,749,314,278,86,107,77
77,380,694,308,296,86,98,71
84,401,654,268,277,85,100,72
87,427,690,271,263,81,96,70
110,432,706,339,265,81,125,89
121,463,662,339,308,88,127,94
116,399,576,327,303,85,126,92
122,412,527,346,303,90,125,91
119,388,446,334,299,90,125,90
106,390,393,268,281,80,102,72
86,305,364,252,227,69,91,61
83,308,349,265,230,66,84,57
68,359,477,304,227,69,81,61
66,351,537,317,232,69,80,60
68,424,636,364,224,84,76,59
72,433,704,401,236,86,78,63
72,441,771,455,226,98,89,67
78,383,705,422,223,86,75,58
87,406,731,442,257,91,85,67
83,315,686,433,265,86,100,72
80,308,654,413,255,88,100,70
86,378,639,335,255,76,92,68
76,355,599,309,249,82,90,62
72,409,547,264,211,78,81,53
71,429,560,221,243,71,62,45
82,440,625,255,268,73,80,55
79,399,630,285,265,75,81,53
81,398,657,364,281,78,85,54
83,350,716,376,281,82,96,60
85,353,715,404,239,87,94,60
81,363,732,402,207,82,82,55
79,344,746,409,231,85,86,56
81,350,742,391,214,81,92,60
76,319,670,384,206,72,78,51
81,335,709,348,239,73,83,55
78,361,714,359,242,83,91,61
79,398,731,342,222,86,95,66
72,398,713,305,249,85,90,63
75,400,726,355,296,89,104,72
69,373,699,395,275,90,102,70
71,353,653,420,281,81,95,61
77,342,581,419,307,73,88,57
77,332,653,446,293,75,91,57
81,400,677,409,268,78,80,53
79,392,658,395,307,74,80,49
75,419,684,335,323,76,79,58
65,391,707,342,317,84,81,59
71,431,714,299,325,84,88,66
65,376,668,293,352,81,83,59
68,365,697,276,338,88,76,61
79,351,625,261,321,90,79,62
90,470,718,303,321,82,95,68
86,436,638,303,306,87,89,63
91,434,641,303,261,89,101,71
106,487,663,398,227,82,123,83
113,470,716,436,217,85,138,88
131,476,705,460,221,94,131,92
135,483,705,461,218,87,129,95
133,476,718,463,205,81,126,92
122,434,645,386,231,77,111,83
112,433,572,358,269,70,84,71
78,304,462,289,253,54,77,55
87,327,503,283,258,49,77,56
85,351,512,287,275,57,68,52
79,358,538,275,283,63,63,48
75,351,590,274,243,66,70,49
78,350,568,262,251,69,67,48
96,461,561,295,276,86,69,49
96,445,536,288,269,83,68,49
104,433,613,329,342,86,81,57
109,498,682,335,414,83,86,56
109,504,664,329,405,83,87,57
94,409,670,296,387,65,87,54
100,425,705,338,392,62,96,61
115,464,639,272,309,54,104,67
116,386,653,253,234,65,99,70
115,414,735,272,259,77,111,80
111,401,754,280,271,82,111,84
110,393,771,274,275,84,109,82
84,431,772,268,277,84,88,70
82,437,669,257,268,79,89,71
81,397,568,233,250,67,83,64
72,371,499,211,228,64,74,56
68,356,434,171,205,71,68,52
67,239,443,191,290,89,70,54
67,219,457,195,290,93,68,54
68,243,455,209,269,90,53,48
71,248,504,241,266,91,64,53
71,308,554,224,288,90,76,60
70,313,506,226,206,82,71,57
67,315,481,240,212,73,71,53
66,298,549,238,209,75,72,55
64,314,516,212,219,70,64,49
74,290,519,268,205,69,73,50
72,277,516,253,204,57,74,50
71,302,576,262,209,56,77,49
71,332,599,264,231,58,78,48
73,350,609,272,238,63,81,49
68,363,671,250,234,55,76,52
68,374,721,294,242,59,77,53
67,345,693,289,256,61,71,52
67,305,636,295,267,72,74,53
60,266,665,292,263,72,69,52
56,265,601,257,259,74,55,41
65,319,588,228,253,75,84,60
66,358,635,291,236,81,109,72
78,394,648,276,204,67,109,72
84,396,597,277,195,63,109,73
89,372,530,320,285,73,110,74
88,335,491,319,286,69,93,61
86,324,500,242,271,68,69,50
83,335,499,253,284,76,72,49
76,333,543,268,296,84,71,46
68,333,577,272,208,75,71,44
67,364,579,254,211,76,72,47
71,358,550,278,225,78,69,48
66,366,580,291,210,74,71,48
73,388,537,283,228,66,68,51
78,406,515,230,226,65,71,54
85,408,552,245,221,76,75,51
79,392,548,217,218,69,73,47
79,412,568,234,246,65,72,47
80,404,604,223,221,80,80,48
77,406,702,266,228,96,82,46
73,365,678,246,215,86,75,47
82,371,706,260,213,91,90,61
82,306,680,228,198,104,90,65
75,307,665,226,222,97,86,63
87,326,571,173,223,94,82,67
97,365,549,188,250,99,80,66
93,365,491,172,234,93,65,56
107,389,450,174,215,78,69,58
114,378,432,169,208,90,72,58
105,341,431,205,197,76,72,54
105,365,474,215,169,69,83,61
105,368,439,229,249,89,79,59
93,335,465,225,253,90,81,59
86,335,507,242,238,76,82,61
86,333,499,226,285,92,83,61
72,302,511,230,305,100,78,56
80,317,562,223,250,87,87,61
79,350,526,207,255,83,79,56
78,361,486,195,267,88,76,53
84,403,499,197,221,73,80,58
77,360,452,190,208,60,74,56
75,364,442,203,222,55,64,52
76,358,494,251,220,58,66,53
80,365,488,255,224,46,63,53
76,434,523,250,253,59,55,46
78,467,552,233,282,62,55,43
71,453,519,227,293,72,54,41
63,423,480,191,286,80,49,34
59,416,530,180,268,87,48,36
57,309,523,186,233,78,46,36
71,331,580,235,201,81,70,51
74,332,596,241,198,79,74,53
74,345,592,231,208,73,74,56
72,363,580,246,246,74,73,54
83,406,564,245,268,71,77,55
80,419,546,206,246,71,62,46
86,478,570,212,225,73,58,44
93,486,566,208,218,70,60,46
101,496,548,189,180,65,68,50
97,484,546,183,151,72,64,51
90,444,492,190,160,67,58,51
86,433,516,198,150,67,60,52
81,417,539,195,155,73,60,49
76,411,553,201,157,73,65,53
65,367,536,195,177,70,64,50
69,386,577,178,172,73,62,48
66,350,565,170,204,72,66,50
66,357,553,204,207,84,67,49
67,360,534,199,225,88,65,42
70,376,514,195,220,90,67,43
66,335,442,206,239,98,71,45
68,319,350,197,235,99,67,43
67,320,321,183,238,86,66,43
67,290,319,189,218,79,62,50
68,297,371,208,217,89,64,50
67,321,438,206,204,92,72,55
68,400,640,234,209,91,91,69
66,402,674,251,203,91,91,70
56,389,680,274,199,95,89,65
50,385,714,269,191,85,92,67
53,379,685,268,207,81,83,62
54,292,497,240,233,77,61,47
65,307,505,225,235,80,68,53
66,309,512,193,244,77,66,53
68,277,463,191,269,93,60,54
67,252,478,205,262,81,62,53
68,304,496,205,250,82,59,52
57,275,458,204,274,96,61,46
58,282,438,228,356,100,60,47
58,293,439,237,376,93,63,47
61,312,448,234,372,97,65,50
53,238,468,228,354,98,64,50
55,276,483,236,359,94,53,47
58,277,525,219,275,94,59,51
56,273,517,216,233,90,54,47
55,253,487,217,245,87,49,44
63,262,496,236,256,84,53,46
58,217,489,228,214,66,52,47
63,275,481,235,215,60,50,45
65,290,453,267,209,59,60,50
69,293,450,261,213,67,82,60
64,300,570,246,192,73,87,63
67,300,569,239,215,79,87,63
71,312,543,238,219,79,83,61
72,314,620,218,220,77,82,60
68,322,624,213,201,70,60,48
71,337,495,204,208,62,52,41
74,344,535,217,179,59,55,41
61,278,549,220,200,59,56,39
69,278,503,203,212,59,49,36
65,281,497,201,208,61,48,34
65,284,547,210,198,60,57,37
73,318,538,206,218,55,62,44
84,339,547,200,255,62,68,50
77,320,531,203,250,68,72,51
84,358,577,212,274,77,72,53
82,331,542,206,274,81,68,52
72,308,514,200,262,81,65,48
72,340,513,200,201,78,66,46
83,405,583,186,175,80,63,46
83,386,556,176,147,72,84,54
84,394,565,230,191,81,83,54
83,390,553,228,202,83,82,53
84,379,662,305,228,82,81,55
75,331,685,313,255,72,83,53
66,318,673,311,260,70,65,43
67,300,648,290,273,64,63,48
81,330,689,306,273,65,68,56
77,327,616,238,260,63,66,52
75,325,566,227,264,65,60,51
82,367,614,240,251,67,68,52
79,388,737,231,236,78,90,60
73,396,745,207,299,79,84,54
70,409,714,189,295,80,82,54
75,430,698,202,278,80,82,54
79,448,700,240,307,79,76,56
91,458,659,251,289,66,56,49
85,434,684,260,219,62,62,50
88,451,678,262,252,63,61,49
92,445,694,268,246,64,69,54
80,397,714,233,214,64,67,51
66,385,657,250,231,68,69,51
74,407,632,279,261,85,84,60
77,374,693,306,225,83,88,65
72,360,683,296,223,81,86,64
80,386,677,302,218,82,88,65
82,379,680,291,200,91,82,60
72,364,661,292,198,82,63,48
71,357,591,254,196,83,59,44
67,329,604,254,215,94,59,42
61,310,568,259,213,93,53,38
72,298,523,262,216,77,69,45
79,293,491,234,211,71,67,45
88,302,567,245,221,84,78,56
87,307,487,242,199,72,76,55
85,286,450,232,206,73,78,56
82,292,450,228,236,76,65,52
77,264,435,233,246,71,66,51
75,335,376,228,246,59,52,42
81,400,456,228,268,65,54,47
85,398,467,240,267,71,57,47
79,409,573,225,236,66,57,46
79,412,596,206,193,75,63,48
65,328,576,224,220,73,60,44
59,267,544,220,201,70,56,39
57,288,540,209,213,74,53,37
58,285,520,202,245,77,53,38
63,299,497,223,248,73,52,38
73,355,516,211,230,75,58,40
73,355,545,242,251,80,61,40
83,383,538,224,250,77,60,43
85,385,505,230,248,84,61,45
83,392,520,248,252,84,62,46
82,397,498,280,247,83,59,45
87,403,480,276,217,78,67,48
84,380,509,292,218,86,72,47
80,381,496,315,177,82,75,42
83,381,542,308,184,84,74,42
73,332,550,282,187,86,71,39
74,325,563,263,193,81,63,40
83,355,592,262,172,66,64,46
84,346,638,240,201,75,64,51
83,353,599,221,174,71,63,50
107,386,576,205,154,66,70,59
122,463,627,231,169,66,80,65
120,439,605,281,177,70,78,64
126,480,577,276,159,57,77,63
124,460,588,288,177,60,77,64
114,473,618,313,211,65,77,61
105,429,614,296,201,73,70,60
100,442,603,253,203,76,70,58
95,417,597,249,207,77,68,57
98,444,592,231,198,73,65,56
94,453,583,220,207,69,62,53
106,462,551,257,227,62,82,58
109,460,658,280,228,64,85,64
113,482,627,279,230,59,92,67
112,476,651,279,239,62,95,69
112,424,658,265,203,63,97,68
88,381,637,230,199,65,78,56
77,352,546,193,210,61,71,45
70,322,619,203,213,75,72,46
84,312,594,213,223,79,77,51
87,340,619,219,245,82,78,53
87,333,583,222,231,82,78,53
94,325,569,218,244,91,85,62
96,375,509,241,249,90,80,61
110,445,529,289,251,84,94,69
103,413,474,305,238,81,91,66
110,442,489,317,279,92,94,69
107,453,507,325,265,78,87,63
103,387,503,312,247,70,83,58
76,341,513,267,254,75,66,48
74,352,522,244,271,90,63,47
69,332,531,233,242,76,68,46
62,331,492,211,243,79,65,43
61,345,446,185,249,77,63,43
62,321,357,171,232,71,55,37
75,339,470,193,210,51,74,50
73,324,494,174,209,50,72,48
96,372,532,196,199,45,83,57
101,396,621,205,185,43,85,56
105,392,688,203,237,46,85,56
101,383,631,176,239,47,78,54
102,461,743,241,225,50,73,54
99,448,797,260,251,57,74,57
93,422,764,255,270,60,76,59
92,420,703,250,228,57,80,61
93,457,763,267,217,56,73,55
94,379,716,304,222,72,87,63
128,566,761,324,200,74,94,68
138,587,873,372,190,78,103,71
152,663,983,403,199,82,108,74
162,716,1010,414,229,87,118,84
164,716,954,382,223,72,122,83
136,588,950,381,241,74,110,74
155,626,920,431,269,81,127,88
145,560,824,426,252,78,119,86
145,494,785,445,252,77,113,84
148,510,863,462,268,91,109,87
142,532,911,501,244,92,111,86
114,489,866,462,278,92,88,76
109,507,922,486,284,93,97,76
93,478,942,482,302,92,99,70
76,462,885,456,290,82,89,64
87,395,721,410,307,75,98,69
98,370,699,439,248,65,101,67
96,319,619,401,246,70,94,65
108,370,539,418,225,65,109,70
119,455,594,426,224,65,113,79
115,542,696,427,229,70,111,75
102,539,668,354,229,73,102,69
113,562,762,421,248,67,105,72
120,565,725,408,275,76,102,77
121,523,774,390,289,77,101,71
118,466,742,359,266,83,102,72
126,488,856,392,282,82,104,75
116,455,830,323,262,80,102,71
113,438,890,299,213,78,100,68
141,570,867,375,219,82,119,73
145,572,885,403,247,89,120,76
175,612,803,386,236,94,131,89
175,611,732,382,231,93,130,88
169,607,713,369,233,94,125,86
140,468,697,289,223,90,105,92
140,492,688,270,226,69,92,130
110,466,667,271,239,58,86,132
117,486,697,271,262,67,94,134
118,463,645,264,262,61,88,133
117,480,587,290,282,62,85,125
111,413,474,284,310,77,84,80
101,379,509,273,294,83,71,60
89,361,589,287,286,78,60,54
77,336,602,312,286,78,59,46
74,330,650,334,251,78,64,46
79,353,745,356,184,65,64,45
71,319,716,346,182,57,61,41
89,327,660,357,196,60,89,65
97,355,655,325,189,59,88,67
102,344,628,281,226,62,87,70
113,382,544,234,249,64,99,74
113,397,549,237,248,64,100,76
102,385,509,213,261,58,81,62
122,447,521,259,294,61,93,73
121,453,502,297,290,60,99,72
114,411,515,294,285,60,92,71
119,416,487,291,283,59,89,70
115,434,517,277,251,62,82,66
91,393,585,263,233,65,65,53
83,363,574,228,213,59,47,45
74,360,583,258,269,63,48,37
64,343,603,267,279,72,56,39
66,337,564,270,289,74,67,41
80,313,526,245,291,70,79,48
90,354,494,239,289,71,84,53
94,403,549,293,272,72,84,56
104,424,566,300,276,69,91,62
102,418,646,288,275,79,86,59
93,406,687,300,272,83,83,55
88,373,710,299,294,86,85,56
83,350,640,224,251,82,89,58
70,328,609,203,234,76,77,51
70,312,625,234,300,66,79,56
70,346,539,217,302,72,78,55
73,337,562,250,316,72,78,56
75,329,569,247,331,76,72,57
77,324,587,281,345,76,76,60
80,358,524,307,355,81,80,61
85,372,587,314,345,72,75,61
77,370,545,289,311,82,67,54
82,384,584,308,287,81,64,54
80,375,637,293,276,82,59,50
76,359,686,288,178,75,52,50
88,406,647,283,169,84,53,53
101,445,642,289,165,70,65,61
98,419,596,259,164,68,62,56
102,456,520,266,161,67,70,59
104,467,515,220,170,68,72,57
88,384,489,236,202,61,78,55
82,357,480,216,217,58,72,51
86,385,516,247,241,54,77,53
93,426,620,266,250,57,73,52
88,413,569,271,244,59,70,48
84,436,626,258,227,67,66,47
75,425,647,258,225,66,67,43
65,390,608,252,207,67,61,38
51,300,546,230,196,68,68,40
59,336,563,240,183,65,72,44
68,336,555,275,181,47,71,45
72,340,547,277,187,51,66,45
73,328,570,266,195,52,68,45
73,329,510,252,205,48,58,40
73,330,454,225,210,55,48,38
82,322,497,193,207,68,47,41
87,331,499,219,226,68,53,44
93,363,497,218,216,71,50,49
96,374,538,214,223,79,50,51
92,316,592,224,262,79,56,51
97,360,556,223,263,72,81,67
92,344,600,222,253,72,80,64
87,361,615,233,250,70,82,63
110,349,617,228,244,63,98,74
115,358,579,219,247,67,96,75
100,313,512,204,255,72,78,60
101,314,480,195,236,67,78,61
103,286,474,202,261,65,78,61
71,282,437,211,286,77,59,46
71,325,477,236,252,80,65,49
68,335,498,253,252,81,60,48
81,378,496,252,270,88,62,54
77,371,556,258,242,90,62,49
81,373,536,256,207,80,64,52
79,358,549,278,206,70,61,51
79,320,576,274,196,71,61,49
63,270,557,290,211,66,58,42
87,353,542,281,225,68,66,52
91,361,587,314,217,66,66,52
89,382,547,284,237,66,62,46
107,455,512,279,242,57,66,55
112,456,530,249,217,57,71,59
92,378,498,237,224,80,66,52
87,382,499,228,247,83,73,55
85,341,471,210,225,85,71,55
60,254,464,225,234,84,67,46
55,282,472,232,223,87,60,41
63,318,445,230,202,72,57,42
61,343,456,189,203,76,43,35
64,336,480,205,200,79,48,36
70,358,558,191,187,80,49,39
70,352,527,185,194,77,50,39
78,378,540,199,194,71,59,42
90,386,488,199,193,79,63,51
88,386,464,212,201,74,62,50
88,403,415,222,188,73,66,51
87,381,397,226,183,74,66,51
75,336,426,227,192,77,58,48
61,279,483,229,167,73,52,37
68,296,527,222,164,84,53,43
63,262,554,204,202,85,46,39
66,303,604,202,208,87,51,43
63,307,558,193,196,82,49,39
63,308,549,193,227,76,50,41
70,322,542,188,227,66,49,43
70,297,487,185,196,65,48,42
68,295,449,180,186,66,44,38
69,278,506,177,192,73,42,40
73,284,476,170,176,67,44,44
60,271,431,145,175,69,42,37
58,265,451,150,171,68,42,36
61,252,446,165,191,63,48,42
71,297,497,190,229,62,53,44
68,291,506,195,243,62,52,42
72,334,549,203,245,57,50,43
74,337,630,236,258,69,52,46
79,349,670,246,254,75,47,41
86,416,611,241,227,73,60,50
82,419,589,236,204,72,59,47
88,384,575,231,203,79,65,52
89,386,455,201,190,77,64,51
85,399,430,211,206,77,74,56
67,307,426,192,204,74,63,45
70,305,467,193,197,74,67,48
59,291,462,213,185,68,64,44
60,296,452,205,214,66,66,45
57,230,451,203,187,53,55,38
68,285,455,196,241,66,51,41
73,330,459,203,243,70,49,42
74,333,520,181,253,77,57,42
77,344,577,194,245,80,56,39
74,361,559,166,254,83,57,39
72,324,562,163,193,75,62,44
65,277,528,165,197,83,61,42
68,302,493,235,216,80,53,39
64,280,485,236,196,73,59,48
63,276,517,261,187,71,60,47
68,319,478,271,203,73,68,44
76,348,521,299,206,60,73,47
74,349,519,260,193,62,72,48
73,373,553,258,192,58,69,41
81,400,546,265,185,67,75,53
73,366,651,328,224,64,67,53
67,335,664,303,223,63,69,54
76,319,661,326,214,60,72,57
80,299,633,341,248,65,83,62
89,299,682,327,254,58,89,63
110,323,629,289,207,64,98,72
124,373,669,331,204,64,104,79
132,409,669,314,203,68,105,83
133,415,674,300,174,65,97,80
125,406,658,339,206,80,96,76
113,434,711,322,215,79,86,68
113,462,667,295,226,83,88,68
99,446,720,306,244,85,86,63
108,542,746,304,248,88,88,70
108,548,748,247,232,77,92,74
172,597,713,331,258,81,141,104
174,580,753,333,252,78,138,103
193,620,767,339,255,74,144,111
200,601,763,376,259,75,149,113
206,620,759,394,259,75,146,112
191,678,816,406,292,75,138,99
182,649,812,394,297,77,147,102
170,609,805,412,279,74,146,95
174,614,856,400,291,75,149,96
177,598,877,436,298,76,155,96
160,580,896,392,236,71,141,94
164,605,865,400,212,66,132,88
162,654,895,389,215,68,135,88
149,625,863,384,191,66,136,86
144,620,844,346,170,63,129,83
124,518,756,321,176,61,116,76
116,503,766,307,218,66,109,72
116,442,712,284,210,73,112,76
121,403,680,315,197,73,116,79
130,452,717,326,220,73,138,93
138,455,763,390,225,79,157,102
138,446,761,420,197,81,162,103
163,478,813,500,322,83,182,123
170,569,859,547,348,84,198,129
161,510,797,543,342,86,192,123
192,654,845,541,343,82,189,129
199,668,879,531,349,89,188,130
200,727,960,482,263,92,169,120
208,694,1006,463,268,100,148,119
211,718,1122,522,249,117,146,121
172,586,1094,467,296,118,126,104
171,592,1079,451,279,107,133,106
168,525,934,423,263,99,139,105
173,586,826,345,243,92,144,109
174,585,688,216,258,72,145,111
183,614,706,227,192,69,146,111
187,676,754,262,239,81,148,111
171,668,765,297,266,86,139,102
140,595,778,325,267,88,134,89
156,611,791,334,288,92,133,91
155,592,733,342,311,97,138,93
155,591,684,353,277,92,130,90
150,599,705,330,251,83,124,86
167,633,724,368,282,93,152,105
165,673,714,370,250,84,159,106
177,734,775,421,235,84,158,109
200,698,896,408,253,93,194,132
208,661,896,391,275,99,203,140
210,643,896,330,241,98,190,141
203,572,889,353,260,99,179,138
192,455,800,272,262,92,174,132
184,528,663,323,258,82,149,116
192,574,623,346,249,87,150,113
172,559,632,399,242,74,130,90
171,590,648,377,221,85,131,87
191,608,695,411,238,95,168,114
169,508,709,368,229,99,155,107
157,496,778,360,216,97,147,104
191,545,808,345,237,103,169,124
186,509,852,342,259,100,167,122
157,530,908,352,240,91,138,101
153,524,889,355,247,84,134,100
161,519,872,348,243,75,145,104
119,444,859,316,222,75,134,90
115,432,812,300,240,62,131,88
129,443,776,273,233,60,125,89
134,472,780,269,222,65,129,90
118,460,766,306,255,68,128,89
145,587,764,296,259,60,118,93
149,602,726,303,226,71,117,95
144,582,639,293,259,77,117,94
158,629,711,339,288,93,128,109
159,608,701,363,270,95,129,109
128,465,638,358,283,97,123,96
124,467,642,379,278,98,129,94
135,467,749,386,248,96,143,106
109,347,661,339,269,81,132,89
109,382,739,368,271,87,126,83
114,389,755,379,262,91,126,85
110,361,791,393,286,93,120,84
82,384,730,383,292,94,103,65
87,422,732,402,277,102,106,66
80,419,655,318,266,96,107,69
94,475,706,372,284,99,119,83
142,567,653,336,254,90,132,97
145,531,646,346,248,89,126,95
146,524,646,333,235,88,123,95
156,564,651,349,243,88,121,96
144,527,647,324,212,72,104,82
105,470,705,333,248,91,85,63
132,582,752,348,277,109,111,85
128,565,716,333,257,99,108,86
112,512,696,315,250,99,99,78
124,514,648,334,297,127,110,86
130,477,621,348,290,120,137,102
138,396,639,358,282,108,163,110
145,405,662,370,290,109,170,109
143,393,693,422,331,113,169,110
151,432,717,426,313,88,168,112
141,452,695,407,292,79,146,96
107,401,672,405,265,74,96,67
109,435,681,399,261,75,82,65
115,469,675,346,194,68,83,65
103,436,668,301,211,77,94,71
112,451,727,321,241,91,103,81
111,441,791,299,249,98,106,85
127,509,842,297,251,99,119,96
127,495,829,302,267,113,120,99
129,524,789,296,230,110,107,95
123,486,759,292,196,100,100,101
129,503,644,259,188,97,116,120
209,540,624,349,228,121,178,166
211,518,576,346,279,111,180,166
213,503,584,330,281,107,191,167
218,519,626,363,311,119,201,166
218,514,603,371,317,114,193,152
184,478,544,368,324,105,199,139
189,482,543,370,302,122,208,143
209,541,574,420,309,124,221,155
204,526,509,388,310,111,213,148
210,569,599,389,316,116,222,154
178,503,575,326,291,102,172,122
179,552,671,375,264,77,170,126
143,481,636,328,258,68,133,99
162,540,733,327,233,70,136,104
161,527,714,337,258,63,131,102
142,514,730,319,250,61,121,90
140,489,701,286,246,71,109,80
162,545,742,373,277,81,143,96
147,497,640,391,305,82,150,96
157,547,660,392,282,85,143,97
158,540,661,415,295,93,143,102
157,574,623,412,326,85,144,99
133,501,546,323,296,80,111,84
144,511,574,333,280,91,131,97
121,423,467,320,283,90,125,87
117,462,514,303,267,90,122,81
101,382,539,276,227,91,113,76
117,511,656,314,266,96,121,82
98,503,623,262,256,85,83,58
95,490,643,275,274,100,82,52
90,468,578,258,267,90,83,51
100,509,593,257,255,88,89,54
88,412,497,201,205,80,80,53
88,417,494,196,209,79,78,53
83,389,554,214,194,66,71,54
93,387,612,222,202,67,75,58
82,330,582,230,244,75,67,55
73,297,657,244,250,75,67,47
73,319,644,266,247,73,68,44
77,340,554,226,245,65,71,45
67,329,527,233,261,66,72,43
70,366,493,225,247,61,77,46
93,452,364,221,256,60,81,56
92,430,445,201,254,60,79,54
87,427,472,198,240,58,72,51
90,434,491,175,221,53,62,49
90,413,554,177,206,54,63,48
66,354,560,167,203,57,58,40
74,379,519,169,215,61,66,45
73,374,512,163,205,69,69,46
68,394,565,174,203,76,70,44
67,390,555,195,219,76,81,54
79,364,556,197,202,71,81,55
71,316,563,204,176,84,75,52
77,346,595,231,177,85,73,57
74,287,507,248,200,77,72,57
74,283,501,224,167,75,57,47
62,273,505,234,213,80,56,46
69,304,506,224,232,64,60,48
70,264,495,205,232,60,66,47
71,260,479,176,213,61,69,46
74,287,465,180,217,59,69,47
72,272,434,163,194,55,64,46
83,330,441,166,172,53,65,46
78,344,453,186,167,51,61,43
77,343,445,193,174,54,56,44
75,309,561,209,204,51,60,44
75,318,577,210,184,55,57,40
57,248,562,206,180,53,52,37
62,243,578,265,293,70,56,41
71,267,612,265,299,70,59,43
68,271,481,281,282,71,52,42
73,283,465,279,299,76,67,48
73,265,488,292,313,79,67,47
82,310,476,236,210,62,62,47
74,310,455,263,243,65,63,47
79,331,522,226,247,71,64,48
79,317,557,223,238,65,53,46
80,316,522,209,231,67,54,46
80,347,529,214,248,73,58,44
80,340,522,188,216,71,55,43
86,336,495,211,239,66,54,48
81,333,502,225,223,79,52,46
83,353,521,230,207,78,56,48
75,277,474,229,210,79,52,46
75,261,489,232,194,77,51,46
61,229,445,207,152,78,52,41
64,257,397,188,223,67,51,41
61,257,411,195,241,62,47,39
61,260,400,181,225,59,46,41
64,333,446,183,232,66,46,39
78,353,441,190,235,74,54,47
82,378,464,193,184,71,58,48
83,380,451,187,193,72,56,49
86,390,458,179,190,77,58,52
83,333,451,177,211,79,60,52
74,328,485,199,215,77,49,47
78,301,503,214,227,84,54,47
75,281,486,201,213,86,55,49
64,243,475,194,216,79,50,42
74,323,546,219,208,78,53,44
75,316,542,208,219,73,55,39
62,297,564,193,195,61,47,38
60,292,584,195,185,60,49,38
66,301,646,206,224,62,59,43
66,314,594,171,212,58,56,44
63,323,630,174,204,60,59,47
67,332,580,184,239,74,62,49
68,354,552,199,238,73,61,46
73,352,504,202,228,72,59,50
72,336,516,213,277,73,63,51
70,321,441,200,272,70,59,48
73,380,479,235,272,67,63,51
101,452,521,239,270,71,78,59
111,497,602,248,248,73,84,55
146,589,633,312,209,74,109,72
157,614,647,318,217,78,117,76
164,640,716,342,213,81,123,81
155,650,755,337,220,83,116,78
149,617,738,345,285,91,114,78
148,600,735,311,282,89,113,84
172,659,855,324,291,92,131,100
174,618,824,270,283,88,126,98
170,575,789,259,293,87,126,98
181,592,793,255,241,80,128,102
157,520,782,209,237,79,117,92
124,469,660,201,245,80,94,72
117,440,641,214,254,71,94,73
130,426,672,232,244,70,99,79
124,468,676,219,233,64,98,76
122,453,702,253,223,63,86,71
117,404,704,290,202,60,79,69
139,434,718,291,213,71,107,86
128,421,799,322,223,74,115,86
140,398,870,332,246,84,135,102
151,552,906,338,261,81,141,103
176,639,961,356,255,82,150,113
210,690,1069,419,255,94,185,140
236,741,1047,464,291,114,204,156
235,722,993,471,286,110,200,153
236,659,971,471,270,110,203,155
252,602,981,467,309,120,229,173
242,690,990,508,357,121,220,160
232,655,982,466,321,105,213,155
256,792,1082,486,367,116,215,155
281,791,1091,533,390,127,251,179
288,858,1125,556,375,123,242,168
280,790,1060,484,313,109,222,157
310,868,1132,504,341,103,245,171
286,750,1022,534,289,90,247,169
266,740,1029,483,271,75,217,148
248,713,997,453,293,76,202,136
314,752,993,471,329,91,259,187
278,668,849,458,302,92,227,164
292,734,927,433,300,91,230,169
343,860,937,474,335,101,250,186
336,839,995,466,293,94,247,187
270,760,962,475,246,79,187,135
283,764,958,493,331,88,203,153
270,733,867,482,329,87,187,145
210,630,831,471,286,87,157,121
207,664,702,474,326,91,160,118
213,705,715,464,335,93,171,129
215,703,770,458,274,91,188,137
207,658,747,421,275,100,187,135
186,584,687,366,276,88,177,128
193,521,708,358,240,84,175,135
171,476,776,365,226,82,160,123
150,464,728,316,205,77,117,92
167,537,750,342,221,68,129,96
166,526,738,372,268,70,129,95
149,509,682,356,269,81,121,87
154,533,538,309,279,91,117,83
162,547,579,338,292,93,137,97
145,500,617,330,298,90,124,90
140,519,626,316,264,97,121,88
140,553,781,448,274,93,122,88
135,532,825,484,295,86,127,86
140,603,823,501,276,84,103,79
141,592,786,491,257,88,100,80
137,567,793,494,259,78,100,79
137,552,704,411,267,71,111,83
146,555,673,403,265,65,130,96
134,448,661,363,267,61,131,95
139,471,686,359,266,61,133,96
145,463,679,350,250,59,136,98
164,471,626,338,272,68,148,109
148,428,612,319,274,80,146,105
136,415,570,321,329,86,145,101
130,411,551,416,399,95,149,101
127,417,517,415,399,95,149,100
90,343,482,376,362,87,124,80
88,353,490,354,379,90,93,62
93,367,473,340,335,89,76,55
102,339,486,345,286,93,115,83
98,373,477,334,285,95,111,81
112,402,623,356,313,106,135,96
108,383,650,455,268,95,139,95
113,410,697,515,267,95,149,97
124,520,721,439,226,85,117,76
134,550,811,524,239,86,122,82
134,569,726,510,200,76,98,70
140,588,668,442,197,83,103,76
137,562,698,387,201,83,96,77
130,517,732,399,204,82,98,81
126,481,699,313,192,77,100,79
119,431,690,323,222,84,106,80
119,432,764,306,210,78,103,81
111,422,734,319,235,75,97,76
103,388,666,312,275,71,95,69
101,397,695,310,274,72,88,65
109,435,725,305,253,61,79,62
114,436,664,321,300,61,76,63
113,448,667,294,283,58,75,61
108,426,699,314,241,66,74,63
122,419,664,384,283,81,110,87
122,434,648,400,310,89,120,93
130,465,673,442,297,111,142,105
136,521,647,449,295,115,144,106
139,566,631,448,295,113,141,103
135,565,600,415,251,102,128,89
127,546,560,406,225,95,125,84
120,593,617,347,181,69,100,63
117,554,708,401,233,89,102,65
122,516,703,395,246,94,104,69
116,503,710,346,257,92,85,65
113,515,771,352,264,95,76,60
133,506,788,468,346,110,90,71
132,516,762,414,306,88,84,68
131,523,783,402,299,86,90,72
125,527,783,402,290,98,91,69
161,563,781,408,288,97,100,83
136,498,752,303,179,84,83,74
137,460,688,305,178,88,83,76
129,447,646,312,162,82,75,66
140,503,701,335,195,84,79,72
106,470,730,322,193,87,66,56
114,485,689,260,209,80,75,57
112,495,695,250,207,77,74,56
116,490,704,239,239,84,74,60
107,427,634,217,250,69,71,55
127,467,613,223,238,68,83,69
125,437,659,274,242,70,94,79
122,417,631,291,277,76,98,78
123,465,636,301,261,70,96,76
137,565,667,315,235,77,114,86
127,546,647,338,299,79,110,78
143,591,574,305,290,78,100,75
149,617,630,299,273,72,102,77
141,570,631,342,269,75,104,78
128,481,592,336,267,78,84,67
116,427,551,299,200,73,80,63
86,353,528,311,225,74,72,53
79,324,489,309,210,79,69,52
79,335,522,265,217,71,69,52
83,321,546,266,246,62,70,52
79,323,510,322,248,65,71,53
76,321,530,311,231,65,69,51
84,376,548,318,240,55,70,49
81,364,504,316,235,66,62,45
79,342,444,296,213,67,58,47
109,409,526,251,222,69,68,59
111,407,529,254,266,89,67,64
105,388,557,248,260,96,67,63
118,412,566,240,253,89,77,68
114,409,609,252,253,86,83,66
81,330,539,231,238,83,74,53
81,333,615,287,206,58,77,48
86,293,615,287,214,56,81,53
68,247,575,294,220,63,78,49
65,265,585,297,216,66,75,50
71,274,612,308,240,72,77,56
68,283,539,245,220,71,70,53
67,281,549,227,232,71,64,53
65,284,584,203,231,67,61,52
73,286,559,186,219,69,58,51
69,277,546,200,223,62,56,45
75,250,531,225,221,61,71,50
75,310,470,234,201,60,70,48
75,315,439,259,238,59,71,50
69,292,402,256,239,64,68,48
70,336,464,247,266,71,71,54
72,352,452,218,261,75,61,54
67,300,421,215,252,76,59,49
64,293,413,181,229,79,53,45
68,306,482,222,242,72,54,46
68,292,435,210,177,68,53,40
68,309,417,217,209,66,49,37
74,336,432,211,208,63,52,41
82,348,480,225,192,68,69,51
78,331,429,183,176,69,66,51
80,335,401,189,230,66,69,56
86,350,442,193,198,67,75,61
76,317,435,197,254,66,72,59
69,310,379,179,301,61,59,50
72,351,377,194,308,60,61,50
66,313,370,197,280,64,52,45
55,322,349,202,308,63,49,36
58,318,350,222,275,75,48,36
60,314,358,222,292,97,47,39
60,317,429,238,287,98,46,40
59,325,437,221,275,96,47,39
64,273,415,206,259,97,44,42
71,309,415,205,258,86,50,43
69,302,417,217,191,53,50,42
69,259,421,214,242,61,53,43
70,251,415,225,251,65,55,45
68,298,429,235,235,62,57,46
67,289,442,233,234,63,59,45
69,335,497,220,219,78,56,44
66,333,429,212,224,76,54,43
64,330,437,257,248,70,56,39
59,298,443,263,260,70,54,33
55,292,514,259,274,82,49,34
51,249,508,284,319,72,52,39
58,262,532,277,289,66,53,41
64,304,522,247,300,75,52,44
70,352,572,277,327,90,52,46
69,367,526,283,307,80,50,43
71,376,473,281,285,82,53,44
64,374,446,279,306,90,51,39
66,355,480,267,284,86,49,41
53,296,425,230,270,78,50,39
54,258,455,235,275,83,49,39
57,266,494,235,250,77,43,34
59,253,500,241,234,69,41,35
60,272,479,237,215,71,40,37
68,312,499,254,210,69,38,38
70,337,471,244,220,62,40,40
71,330,459,241,217,62,57,48
70,334,459,238,201,65,57,47
74,385,526,247,214,66,60,46
92,427,529,266,188,59,69,56
90,413,508,266,211,63,68,53
96,429,481,259,218,65,57,49
96,443,506,270,215,62,60,50
88,385,444,258,204,59,59,47
67,305,395,230,203,62,46,31
68,324,424,233,190,66,49,36
58,298,423,220,206,70,47,32
59,291,481,232,197,70,45,37
60,285,490,275,208,70,56,39
51,270,512,261,245,81,53,41
48,243,484,239,228,81,50,38
47,312,539,249,217,82,51,40
48,302,490,216,217,83,55,42
44,296,487,163,211,79,41,40
48,316,526,211,167,64,48,39
64,346,539,243,157,69,55,41
63,305,485,238,156,73,59,40
64,304,463,253,227,77,54,35
75,342,473,274,233,87,61,42
73,320,424,232,228,93,57,41
63,300,403,209,290,100,53,39
61,265,393,221,290,95,48,36
64,308,365,205,254,95,52,37
55,258,358,178,257,89,47,33
56,265,340,192,264,83,46,32
53,273,405,238,200,74,47,32
64,299,425,223,202,70,53,45
59,253,461,243,186,62,54,53
59,262,458,242,192,63,55,52
68,304,504,247,192,67,61,57
68,307,498,212,198,69,62,59
62,301,532,286,215,73,66,54
81,362,606,297,227,77,77,57
90,399,597,303,218,74,82,62
88,396,591,315,223,69,82,61
95,394,634,327,232,62,89,65
95,395,610,264,215,64,84,65
88,376,573,262,226,77,93,66
86,394,608,266,217,81,91,63
93,407,681,261,222,89,102,69
95,453,644,259,235,87,97,66
106,493,720,383,236,104,138,80
102,504,719,380,245,95,129,75
102,487,708,406,257,93,132,75
106,490,648,433,263,98,128,72
117,501,714,482,259,102,147,91
120,490,715,467,314,85,132,88
127,502,745,489,311,88,135,89
127,494,778,511,312,91,138,91
128,500,763,525,316,90,138,98
114,440,739,475,328,86,121,82
110,429,731,415,278,92,107,80
102,376,649,386,255,85,99,75
101,422,696,365,272,84,94,72
97,413,765,344,246,76,92,61
108,420,732,379,212,77,99,64
100,405,753,377,197,80,87,58
113,449,770,394,197,90,100,66
113,414,666,347,157,89,99,67
109,391,595,354,174,92,102,69
96,373,542,312,166,91,93,64
106,412,551,364,177,84,93,64
98,396,667,414,185,69,90,63
108,458,767,431,187,67,90,66
103,442,753,410,229,64,82,61
101,462,776,403,220,61,79,60
94,448,727,368,255,57,79,58
86,426,684,289,255,64,62,47
77,354,576,281,280,63,64,45
81,376,556,267,323,69,57,42
91,345,556,270,330,65,60,45
86,294,499,240,305,65,59,39
89,288,497,230,321,69,66,44
81,267,527,225,297,66,62,41
78,240,544,250,231,60,62,43
74,286,538,258,256,65,60,42
75,291,561,264,289,82,59,45
72,274,459,260,278,75,52,39
73,327,417,261,291,80,49,44
70,325,443,238,271,80,48,41
70,336,432,226,241,76,48,40
62,334,384,254,219,59,55,46
61,329,400,245,198,69,61,52
69,257,443,275,207,68,62,49
75,247,445,273,213,71,65,51
67,192,434,287,220,74,67,49
68,183,442,267,275,75,58,42
68,199,455,287,280,70,58,41
67,226,406,245,264,71,58,79
67,239,382,225,273,68,58,88
67,218,375,227,296,76,59,90
76,235,399,211,246,75,60,93
75,265,431,193,248,72,53,92
67,238,501,204,244,68,53,67
65,263,534,243,293,76,49,52
68,280,577,226,283,68,49,50
69,269,551,274,264,65,61,50
73,226,493,268,257,63,64,49
73,248,450,281,267,63,76,42
86,262,429,283,209,58,87,46
107,251,374,286,202,55,89,48
105,244,400,243,229,65,85,41
109,268,419,273,247,74,91,51
109,263,388,265,260,77,81,49
102,245,385,235,251,77,68,46
79,265,380,231,243,79,66,47
82,334,333,230,279,77,60,48
96,334,385,197,269,70,47,40
96,346,378,195,255,73,53,41
98,355,350,205,245,71,53,39
100,349,445,233,236,70,54,40
92,292,451,225,157,86,53,38
71,286,403,248,184,98,59,38
70,254,425,237,181,100,57,37
58,215,435,223,189,101,56,42
63,267,404,207,200,101,54,38
60,258,436,217,205,86,55,38
58,264,501,195,174,80,49,40
61,268,534,227,201,72,46,44
67,320,530,224,209,64,50,48
68,282,479,237,207,71,54,62
69,282,450,231,229,71,52,66
71,259,413,237,238,71,54,66
67,263,431,216,219,84,60,64
72,205,450,221,226,87,62,61
65,193,486,196,226,85,62,48
66,211,505,193,200,84,62,46
66,227,498,181,195,77,59,45
66,238,473,203,195,63,52,42
57,277,479,207,193,64,52,39
114,272,492,200,197,58,44,40
131,247,486,217,208,66,41,38
162,280,536,216,211,69,46,37
177,311,581,184,199,65,49,44
178,273,561,207,192,66,51,49
148,272,548,205,187,69,51,53
134,296,542,185,214,70,60,55
91,258,462,191,217,71,61,55
59,210,408,203,224,75,62,53
50,214,397,168,276,86,54,44
50,220,376,175,276,86,59,41
47,194,389,170,246,78,56,45
54,293,414,182,283,78,55,55
54,314,405,156,285,76,51,56
56,318,431,213,268,63,53,66
56,316,439,256,280,67,47,63
57,323,504,275,280,73,43,59
52,312,558,270,247,70,46,52
53,294,555,301,257,84,49,50
53,286,546,279,246,88,52,41
72,286,539,237,232,84,52,46
78,284,480,217,233,86,53,45
104,344,437,259,230,87,62,50
104,348,391,244,278,75,59,50
110,433,417,247,259,72,59,48
106,439,425,256,256,73,62,52
110,475,413,256,262,64,65,54
93,450,461,228,267,64,67,55
93,454,498,220,200,63,67,54
96,414,457,198,200,56,73,59
96,419,509,190,201,51,74,59
94,416,521,219,221,52,74,60
86,361,527,191,215,47,63,57
84,368,555,188,209,51,63,58
84,410,567,191,207,50,61,55
80,412,524,255,247,57,65,54
73,399,565,231,219,65,377,76
77,415,613,280,221,67,650,99
78,412,623,286,228,64,704,109
69,339,733,360,236,76,711,109
106,404,845,335,203,79,723,120
108,441,904,413,250,77,644,117
110,464,856,409,304,95,383,101
132,544,861,446,335,99,296,98
135,569,940,464,371,91,286,102
110,532,875,486,362,87,302,91
107,506,837,436,348,87,268,79
110,517,885,474,298,72,246,75
109,480,902,451,260,69,223,74
117,478,745,387,235,82,221,71
127,506,732,359,254,81,157,71
146,509,700,363,243,84,150,84
157,539,695,321,272,93,154,89
145,491,704,361,275,102,162,87
141,485,734,385,242,95,150,85
145,496,722,381,228,93,151,89
139,546,742,395,242,88,144,80
145,536,677,364,210,74,169,83
160,598,602,333,244,62,165,87
165,642,590,310,242,61,172,89
225,692,613,353,262,69,204,126
226,693,623,336,270,71,191,127
235,745,715,376,305,83,170,129
254,790,738,380,292,83,165,134
256,747,737,390,299,84,165,137
224,760,796,467,391,92,143,127
284,819,766,475,374,104,154,156
319,807,704,473,354,106,174,171
323,805,783,479,354,105,179,170
384,945,899,521,365,115,220,189
382,944,870,432,258,106,216,178
346,946,935,449,268,97,211,157
320,989,1038,447,264,93,204,144
299,946,1056,443,243,96,206,138
235,844,990,407,224,85,170,121
274,870,1031,503,250,87,183,133
273,770,986,487,283,82,182,132
269,709,917,558,278,82,189,136
270,729,837,590,301,90,193,139
253,681,895,637,364,96,188,132
201,646,895,593,349,98,165,113
227,724,961,654,342,104,204,132
219,677,1004,601,383,102,191,124
213,655,1034,575,367,94,184,121
211,650,989,508,304,84,189,127
213,608,973,479,323,91,190,131
184,579,927,392,313,96,145,108
187,605,862,429,287,92,156,113
184,597,833,442,299,95,149,109
177,615,782,445,308,95,132,96
162,574,710,431,286,88,123,88
150,550,722,411,256,81,137,94
132,569,706,361,289,95,120,85
139,565,739,405,283,90,115,86
138,572,754,396,280,91,111,84
136,568,798,414,269,91,115,85
144,536,799,422,299,93,125,99
151,454,837,411,271,94,153,113
145,435,784,383,270,94,159,114
152,482,868,473,283,114,172,121
168,495,837,492,305,111,181,130
187,509,819,518,285,108,187,131
221,602,751,561,304,113,203,140
233,602,804,592,315,126,216,148
228,533,719,524,296,106,205,144
234,558,713,508,267,107,200,137
263,687,758,486,272,109,201,145
243,650,766,456,229,98,167,133
242,672,761,376,219,83,159,134
240,678,758,464,222,95,162,132
231,682,774,456,259,95,159,133
236,647,762,543,292,99,204,150
220,587,748,522,301,98,203,144
214,558,663,512,306,101,198,139
229,598,691,445,299,93,205,147
244,613,675,456,273,98,233,158
181,499,569,345,245,94,170,112
174,485,633,338,220,89,162,106
173,511,696,328,202,82,155,99
166,470,669,327,215,81,159,98
125,365,692,286,213,89,117,80
132,443,735,324,275,90,134,92
138,468,744,344,305,96,145,98
125,433,717,336,294,96,143,95
120,502,744,319,287,93,133,87
148,591,767,365,299,80,129,87
142,565,797,370,222,78,114,80
140,574,738,348,225,72,98,74
161,612,765,399,281,92,152,96
164,579,745,423,287,94,154,100
147,571,737,418,316,90,157,98
164,580,697,385,332,89,163,102
164,577,758,415,303,84,165,102
197,665,784,402,288,71,133,104
191,661,739,363,289,78,125,98
195,664,703,328,268,85,121,98
184,636,666,305,251,82,108,93
190,682,695,301,284,85,117,98
152,570,608,287,252,77,125,90
154,565,717,367,244,68,138,98
154,539,736,381,215,59,149,100
145,520,737,388,239,65,148,96
140,477,667,359,216,68,146,94
152,506,731,346,239,74,142,99
158,499,623,272,245,78,135,100
170,487,609,281,259,93,140,110
169,481,591,276,233,89,140,111
171,466,643,292,221,90,137,112
149,446,641,414,248,104,131,101
152,529,657,421,268,107,128,97
143,562,690,423,257,97,131,97
145,575,700,425,267,103,132,97
169,648,672,458,260,102,142,103
166,636,640,367,210,85,136,100
153,566,614,353,187,81,129,96
134,494,526,327,178,79,100,71
143,563,586,333,161,71,105,81
140,556,619,327,288,101,116,94
138,563,572,325,325,107,108,91
146,588,614,325,319,104,117,94
141,601,645,347,355,111,114,93
130,561,652,349,371,119,108,86
96,454,596,314,316,111,76,62
90,420,605,274,286,101,77,61
90,400,613,281,292,110,71,58
142,515,572,246,248,106,89,78
162,500,546,282,329,109,97,87
162,517,534,250,305,92,92,80
178,558,523,263,301,98,103,89
175,562,472,250,303,87,96,87
139,452,502,250,315,88,85,71
151,551,558,254,261,85,83,67
147,591,564,275,271,81,95,72
141,594,585,270,270,72,88,65
149,608,602,294,264,85,95,72
151,604,614,295,250,85,94,73
117,498,580,240,182,71,91,70
129,511,579,226,153,71,83,68
118,476,588,232,161,79,78,65
128,523,600,199,167,72,75,65
136,539,563,227,170,70,81,68
137,551,496,231,209,73,76,62
134,518,477,290,213,79,85,64
129,502,423,280,203,80,84,64
144,481,340,365,222,80,113,81
147,474,374,375,265,91,119,88
147,457,379,393,244,92,119,92
167,475,377,378,260,88,124,98
172,491,396,377,279,80,124,99
145,409,388,293,268,76,98,83
142,420,367,261,224,55,82,71
149,468,465,243,272,62,89,73
121,441,462,211,283,68,75,61
133,507,488,220,286,73,83,67
130,500,530,241,280,71,81,69
125,527,609,259,282,78,87,72
128,518,544,262,258,75,95,76
122,485,515,243,246,77,89,73
115,456,497,242,223,79,85,70
108,453,465,228,225,80,81,64
100,372,356,205,218,75,79,62
84,321,339,173,206,70,59,50
83,312,329,175,188,63,58,51
182,312,481,227,250,69,56,43
223,338,496,213,250,70,61,46
239,405,545,252,285,72,61,42
236,396,552,265,272,87,65,40
239,432,630,285,265,90,70,45
167,371,526,242,229,79,67,42
108,357,523,247,227,79,64,42
77,317,491,216,198,75,63,45
79,311,474,209,199,55,58,45
73,280,410,176,195,51,52,41
74,308,485,219,182,63,72,49
72,301,488,215,175,61,70,48
59,271,500,217,172,81,65,44
59,299,540,220,187,82,63,45
60,279,524,235,208,88,67,49
69,273,496,196,199,84,59,50
82,377,500,197,231,89,63,54
100,412,483,209,251,80,68,58
106,464,471,225,259,101,74,61
105,476,487,244,262,95,75,58
99,474,476,254,288,97,70,54
97,412,466,256,280,96,67,48
86,423,527,236,253,90,66,47
95,378,518,215,247,65,64,47
94,381,508,189,292,63,58,46
95,363,472,183,315,59,56,46
103,389,471,195,312,57,56,53
100,397,415,214,321,53,58,48
87,416,485,260,317,60,75,55
87,412,474,261,269,65,77,56
84,433,469,267,214,68,73,53
70,406,480,266,195,73,76,48
92,425,511,249,187,75,83,60
117,408,475,204,183,72,73,65
197,517,536,313,212,65,125,103
207,552,570,311,208,59,132,108
222,621,690,334,232,54,131,113
238,644,718,344,245,59,128,115
234,678,717,346,268,58,128,109
213,751,772,290,259,64,90,93
213,750,756,298,281,68,86,92
198,695,631,269,270,74,87,86
179,704,602,272,261,72,82,79
214,730,672,279,263,84,92,97
179,600,650,250,247,80,84,82
171,592,690,253,237,81,82,81
180,614,737,268,272,83,81,86
169,540,723,280,282,85,86,84
127,497,679,277,295,78,72,64
126,475,602,287,306,87,74,66
126,442,556,292,305,93,72,63
120,462,517,275,265,89,71,63
127,505,485,253,254,83,66,65
107,445,473,283,238,81,68,61
109,494,478,267,245,74,64,58
106,497,629,326,238,67,67,60
97,457,653,335,248,67,66,53
83,389,657,340,255,71,63,46
85,422,662,314,226,80,56,47
103,423,677,349,215,80,73,57
111,421,538,284,242,84,77,62
107,404,517,284,234,80,75,61
124,486,547,280,229,78,77,69
122,464,508,275,231,67,76,68
125,413,530,234,238,76,78,75
117,437,572,230,224,77,67,67
121,444,603,230,218,78,69,67
117,505,628,229,235,80,67,65
133,548,660,236,223,83,77,71
113,546,649,226,209,73,54,52
113,531,616,204,198,64,56,52
124,555,590,199,198,63,64,58
126,463,529,210,167,68,67,58
115,466,553,219,197,67,59,52
110,456,542,215,188,67,59,50
115,512,636,269,172,77,60,55
101,498,654,265,184,81,54,51
85,468,658,248,215,78,52,49
79,414,610,239,215,85,51,47
84,476,632,249,254,82,53,51
75,408,569,218,289,73,56,48
79,405,551,217,297,80,56,45
84,390,600,222,301,76,57,48
97,424,636,224,296,64,62,57
107,407,598,225,284,71,66,59
127,510,594,196,251,73,65,65
139,544,647,214,246,65,67,72
137,559,628,257,258,76,64,69
154,663,651,276,252,80,71,68
151,641,646,257,224,75,67,67
152,601,657,277,222,78,71,68
149,571,616,276,240,100,69,67
154,565,572,231,208,100,69,68
127,407,517,227,223,100,58,61
124,397,502,240,249,119,58,59
98,330,431,224,243,118,49,49
85,355,414,217,227,97,48,45
71,352,464,274,229,93,56,42
81,352,426,262,215,92,60,46
83,378,459,278,182,63,62,46
82,365,479,283,192,58,63,47
94,379,518,327,217,62,93,60
100,435,527,304,227,65,96,62
98,442,519,312,248,66,99,66
91,410,494,305,264,81,103,67
102,462,589,300,267,92,115,80
91,399,539,274,256,90,102,73
84,317,501,245,237,84,99,73
73,277,509,259,239,87,103,72
77,295,519,259,226,78,100,73
66,229,442,263,222,65,87,60
86,274,500,232,216,74,94,66
84,276,496,239,219,76,89,63
85,310,496,199,195,69,78,56
80,288,489,176,197,64,74,53
79,274,462,158,185,62,73,52
66,332,536,197,167,50,62,51
65,334,518,178,155,45,61,50
64,322,537,236,167,51,65,53
66,332,527,242,177,53,65,50
63,339,522,266,190,59,68,50
52,274,365,232,194,59,54,38
54,277,380,239,197,61,55,39
61,308,378,178,165,57,45,37
61,298,387,168,143,56,46,40
62,290,369,132,143,58,40,38
60,290,345,125,161,68,40,36
61,295,323,119,168,66,41,34
58,281,291,137,188,68,45,33
56,280,275,129,192,67,45,33
56,294,299,157,196,66,49,35
50,254,283,155,166,58,45,32
51,271,318,162,158,58,46,34
49,255,403,228,175,63,44,36
57,273,475,249,185,66,48,39
62,315,530,248,172,60,49,41
61,324,547,264,184,59,49,42
60,302,536,264,180,66,52,42
57,306,529,221,178,71,50,39
61,310,507,243,187,71,61,45
62,252,489,229,196,71,62,42
69,250,478,215,188,67,62,42
73,321,480,210,191,78,60,40
74,304,419,195,174,71,58,39
66,290,445,188,183,67,43,30
61,296,381,190,178,69,33,28
79,420,458,199,191,73,45,37
74,361,453,199,199,59,42,36
77,361,531,207,187,60,44,37
87,401,501,182,166,64,44,39
87,403,506,180,182,60,45,38
68,303,458,194,192,63,32,33
72,351,502,205,184,60,36,36
67,342,431,191,189,55,33,34
54,282,384,190,200,51,29,29
55,271,378,205,234,69,29,28
54,226,361,192,250,73,37,29
73,265,338,210,271,77,43,37
71,277,291,226,280,82,46,39
70,281,299,217,276,87,48,47
80,316,303,209,230,76,49,53
84,371,418,225,276,74,53,55
85,314,453,220,258,67,45,56
90,343,482,205,245,64,52,61
96,344,507,202,251,59,58,59
111,356,540,210,251,59,64,68
113,307,485,195,165,64,65,70
102,399,530,284,169,173,73,69
100,459,682,355,199,194,101,74
101,510,742,381,183,198,100,71
81,491,725,383,195,202,105,64
79,549,748,378,198,202,102,59
81,507,720,319,193,126,99,56
104,442,658,243,186,99,88,60
109,461,638,257,195,99,101,75
108,501,684,279,187,98,112,161
112,494,667,299,194,93,119,182
108,471,651,312,200,95,121,187
88,459,608,318,236,94,105,184
74,407,642,285,234,86,94,179
69,364,621,255,229,82,69,108
59,319,635,251,214,90,61,68
73,381,634,224,232,98,67,59
73,384,609,206,177,96,86,66
72,354,518,189,168,97,86,66
73,346,535,188,184,96,88,63
82,322,574,170,181,84,89,63
69,247,587,159,156,63,82,55
66,237,565,177,181,73,65,47
70,265,572,189,179,79,60,44
68,246,551,210,174,81,56,48
61,293,478,195,176,88,53,49
66,295,462,207,173,89,54,52
69,291,451,187,129,70,49,46
62,319,415,185,150,60,48,45
63,370,391,178,170,60,58,53
59,349,417,202,208,56,54,52
59,396,413,219,223,64,57,55
62,436,485,221,236,65,65,56
71,400,494,225,223,65,76,57
72,358,526,220,203,63,69,95
71,332,495,217,166,59,69,128
65,261,470,194,141,54,64,127
65,227,470,215,141,56,57,128
63,229,486,224,165,61,48,130
62,238,438,209,159,57,47,104
62,289,481,210,194,65,45,60
63,285,497,210,209,65,43,59
57,307,533,213,201,78,44,57
53,328,582,197,185,75,45,62
51,335,596,205,198,78,41,55
64,301,556,191,181,81,46,52
64,323,580,191,167,83,47,55
86,346,512,184,191,76,48,60
86,329,417,192,213,79,43,53
87,309,420,180,220,76,45,107
82,310,505,212,211,65,44,148
98,423,475,237,227,64,48,151
81,374,451,233,226,62,46,150
87,376,461,241,219,56,47,150
89,408,622,311,208,58,65,127
86,421,591,336,212,60,64,74
73,298,662,392,243,67,106,68
73,324,736,396,231,63,138,70
84,376,818,456,216,66,153,70
117,366,857,457,213,69,153,55
128,369,869,439,201,71,154,63
124,370,842,381,146,66,129,57
137,382,869,427,179,77,101,57
128,338,818,371,225,87,81,69
100,327,692,394,237,83,80,73
88,355,706,385,259,81,83,70
102,382,689,376,270,78,80,76
100,417,783,341,257,77,83,88
102,416,810,351,234,68,82,92
103,434,818,305,235,70,74,91
104,409,835,322,253,69,74,93
93,401,837,340,244,69,78,89
80,377,784,359,236,58,74,77
79,376,740,331,220,54,70,58
78,385,723,305,227,62,68,53
78,371,630,283,203,62,65,52
76,348,665,323,215,75,72,53
76,318,572,326,214,80,71,49
93,363,602,346,222,81,81,64
89,322,570,365,219,73,79,60
82,324,663,382,222,74,77,62
80,327,608,349,241,75,68,61
94,376,601,325,241,74,66,63
78,330,649,332,246,75,56,51
93,371,728,331,247,82,70,58
106,416,657,319,236,92,77,54
112,418,710,322,196,84,82,56
99,382,766,364,202,84,83,54
100,413,718,349,208,82,80,52
101,417,640,334,210,90,78,53
99,365,663,344,215,82,73,49
93,350,601,335,225,82,63,46
92,329,491,261,218,77,58,46
93,275,481,269,203,82,62,50
78,206,456,267,207,67,52,41
65,199,446,249,261,62,49,40
81,240,464,237,261,60,54,46
89,227,457,248,271,65,51,49
89,253,437,223,266,58,48,44
90,274,479,252,261,56,46,43
88,290,485,258,221,51,46,43
75,275,461,262,231,70,47,42
63,272,487,246,213,65,48,42
54,255,498,240,213,63,46,43
49,265,457,193,216,63,42,44
53,258,444,172,202,70,45,49
54,248,450,165,187,56,41,46
52,256,409,169,197,54,38,40
60,296,455,191,203,59,49,41
63,285,462,191,183,68,53,43
63,290,442,201,189,75,52,41
56,303,508,245,198,72,53,42
59,327,489,243,222,74,54,43
55,279,424,250,252,83,50,41
52,259,406,243,247,79,45,38
60,302,415,240,240,73,57,39
60,285,333,194,238,70,53,34
62,282,375,205,226,75,61,42
59,330,420,187,223,80,62,47
72,430,443,217,250,82,65,52
62,388,417,209,245,84,53,50
68,401,463,225,256,89,57,52
66,388,446,241,280,89,47,48
76,350,440,241,267,84,47,47
66,210,443,228,238,81,43,42
73,265,447,226,257,77,45,41
67,236,382,227,232,71,44,39
67,224,391,242,182,70,55,39
53,222,496,339,212,66,55,32
53,247,540,338,245,64,68,34
42,184,538,338,222,59,78,39
48,212,607,344,233,77,80,39
47,280,715,357,255,85,75,39
51,303,696,273,230,89,92,42
58,308,653,271,269,91,86,41
62,320,661,298,287,97,79,37
58,349,612,282,280,86,78,36
60,311,562,250,257,72,80,36
57,296,486,243,246,58,54,34
47,281,500,240,242,69,69,35
46,317,545,205,248,76,73,36
60,307,602,218,243,81,73,38
59,289,513,200,284,84,70,35
64,316,542,192,315,90,72,38
65,310,539,186,260,77,52,36
64,280,488,189,244,63,45,33
56,250,412,169,305,63,46,34
53,250,401,174,295,70,43,34
50,246,365,180,277,72,45,31
53,268,358,176,281,78,46,34
50,253,340,176,287,85,48,35
51,273,357,184,224,80,42,33
58,340,444,198,203,74,46,39
57,325,426,195,207,70,44,37
59,361,499,256,227,80,53,38
60,356,532,263,219,77,54,39
55,347,498,252,238,77,53,37
46,277,488,261,231,74,52,31
47,285,517,267,215,80,52,34
43,224,465,232,218,69,49,33
51,241,458,231,237,67,47,37
51,234,465,231,231,74,46,36
54,269,399,195,247,77,47,39
55,253,394,194,256,67,45,37
52,248,364,188,251,64,37,34
51,242,357,190,232,63,39,33
51,233,444,214,240,54,42,34
49,223,483,212,217,50,46,34
46,204,455,215,207,54,45,34
49,220,516,232,187,63,50,40
44,218,510,219,198,61,47,39
49,226,450,205,193,62,46,39
49,211,414,203,199,66,38,36
55,249,399,227,202,62,44,39
50,226,334,208,214,54,40,35
53,293,406,226,198,60,46,36
48,298,390,214,179,57,45,36
54,307,397,235,209,59,50,41
48,292,451,225,244,66,47,37
54,337,535,261,238,66,48,36
47,288,485,260,240,67,42,32
49,278,523,267,242,77,44,33
40,257,501,257,229,70,36,27
40,252,490,246,195,78,39,30
37,201,400,187,188,76,39,32
51,295,439,175,176,74,45,36
50,297,429,195,215,69,45,39
50,301,428,203,236,85,48,40
51,300,400,189,223,76,46,38
51,295,479,216,237,78,48,39
46,177,453,208,239,75,48,40
46,167,500,295,234,85,55,36
48,176,504,282,197,71,52,37
48,186,518,287,196,70,53,38
49,216,463,273,220,71,49,38
47,257,473,285,241,80,45,33
55,263,386,163,211,76,35,34
56,265,460,197,217,78,45,35
56,252,435,201,236,76,46,33
59,249,460,224,289,89,60,36
57,225,435,239,285,87,62,36
90,355,547,261,286,79,81,49
94,393,596,260,297,83,79,50
99,409,619,260,286,81,79,51
102,445,624,249,191,70,72,51
104,461,661,243,184,61,71,51
75,373,628,227,248,74,56,42
70,348,560,216,248,88,55,42
69,357,594,210,261,91,55,46
61,306,552,205,294,90,53,42
60,310,556,190,330,94,55,44
66,357,564,206,285,91,53,46
77,414,611,232,328,99,61,51
83,396,586,234,331,102,63,56
83,393,616,237,305,99,65,56
80,360,569,238,261,99,64,54
73,316,544,220,283,106,59,50
78,231,511,210,214,81,65,59
75,237,522,218,197,77,62,52
83,241,496,204,192,80,63,53
87,259,572,226,204,74,64,54
103,274,547,234,166,65,70,57
101,277,581,244,196,69,64,48
99,311,555,229,189,70,76,53
96,333,564,234,186,69,73,54
92,317,515,215,166,75,72,54
82,367,513,205,192,85,68,52
68,355,460,181,187,81,68,47
67,330,474,183,208,81,55,43
68,337,454,184,205,79,63,47
71,356,443,168,211,87,63,47
63,291,424,182,190,71,60,45
65,297,381,158,156,71,52,43
65,326,394,185,184,66,52,43
72,359,477,227,197,81,44,36
69,364,503,235,202,70,42,35
70,377,532,250,282,74,42,35
70,390,577,279,299,76,44,38
67,363,553,273,283,80,42,37
57,324,531,240,274,67,54,41
56,333,532,235,269,64,55,40
62,341,515,225,208,63,63,41
79,423,580,187,190,64,71,50
88,451,679,321,186,67,78,55
118,524,857,391,286,77,99,82
128,536,877,423,302,83,110,89
157,546,902,423,293,86,131,100
156,482,850,448,295,85,196,101
186,554,850,488,383,97,271,142
254,529,749,497,323,98,347,189
316,662,869,548,338,104,425,217
329,715,893,597,395,122,546,305
343,858,999,647,396,123,542,368
376,866,1068,610,348,129,534,414
373,917,1068,635,352,133,500,407
338,854,1007,643,396,129,452,396
322,833,1004,625,346,110,306,339
323,803,932,595,367,111,294,277
277,756,821,632,379,104,259,181
233,769,817,573,382,91,240,152
253,764,822,580,346,88,237,167
249,751,846,592,356,92,216,154
230,650,829,593,357,100,199,141
256,673,887,521,319,101,222,163
240,562,840,517,318,98,207,153
209,556,792,432,297,99,185,134
207,596,768,368,282,110,181,128
200,581,801,368,266,116,178,124
157,568,713,340,269,111,131,90
152,572,773,428,295,114,135,95
129,592,847,425,287,125,115,80
115,514,808,434,279,117,115,80
123,502,824,380,273,114,120,89
104,460,839,401,251,109,114,80
104,445,831,397,271,117,120,82
107,351,756,404,260,105,120,88
104,352,763,423,254,99,118,87
119,484,789,429,270,96,123,94
143,489,817,446,293,104,156,116
134,472,749,358,235,91,145,108
128,475,752,356,240,90,141,102
134,482,722,337,248,101,151,111
110,345,587,319,229,91,132,96
92,377,577,295,213,85,99,74
98,382,561,323,253,109,99,75
93,362,488,300,249,115,94,71
118,458,586,412,261,107,106,74
130,467,583,423,268,107,110,78
123,423,587,432,263,119,109,79
118,405,594,420,254,105,107,78
138,405,679,452,266,108,137,98
121,381,650,390,295,112,127,90
123,409,659,387,282,113,130,92
122,403,602,352,273,95,120,85
145,542,702,368,250,91,126,92
132,564,674,352,255,79,100,77
125,524,644,297,230,83,88,74
111,488,641,313,288,94,86,69
105,515,643,321,344,111,85,66
80,378,558,279,357,116,74,61
89,405,605,257,346,123,77,60
85,400,604,278,364,115,71,58
95,423,606,264,328,112,76,65
101,399,586,261,266,94,80,67
103,389,547,266,255,93,84,68
105,392,438,261,262,77,79,62
104,360,415,232,197,76,79,66
97,341,399,230,240,74,62,57
108,350,417,272,267,77,78,71
98,345,391,263,261,66,71,65
88,267,399,253,264,70,72,65
93,279,425,277,312,80,72,62
98,273,446,262,282,77,76,64
77,253,410,213,270,81,55,42
81,266,425,224,288,90,58,43
71,282,393,228,268,90,52,39
85,344,366,211,221,98,65,53
81,321,381,230,206,97,63,52
91,344,372,213,183,96,63,56
109,456,512,254,171,90,80,67
112,455,497,242,192,92,83,71
97,412,537,231,208,74,73,60
96,439,615,232,228,84,87,60
95,433,620,240,251,92,86,60
70,305,551,200,231,92,73,48
71,324,606,220,233,88,71,46
81,354,576,231,240,89,73,51
78,326,463,211,238,71,55,49
71,353,514,212,228,58,58,51
89,418,523,205,231,57,56,57
86,390,471,185,234,55,56,53
78,348,494,179,222,62,56,49
81,354,510,186,205,69,56,48
78,311,477,184,181,61,52,44
64,232,409,197,180,66,52,35
70,256,464,215,178,75,58,41
66,252,431,209,165,69,52,37
64,241,429,201,205,86,48,38
65,252,449,203,225,98,51,40
60,252,433,199,281,99,46,40
54,232,389,220,325,101,42,36
58,235,386,217,348,101,43,37
51,248,371,229,345,98,43,35
46,214,321,230,364,98,39,47
54,220,344,221,320,95,50,55
87,277,331,213,297,87,71,83
94,283,343,232,315,89,83,88
108,308,375,235,291,73,86,89
108,316,379,224,251,56,88,82
109,331,399,228,265,81,85,81
85,279,413,197,232,81,68,53
79,309,429,173,151,76,53,45
62,284,423,171,181,80,51,42
72,335,444,193,245,85,59,48
74,344,427,196,234,63,56,44
75,346,457,240,233,62,57,48
78,390,568,266,243,65,61,48
78,396,569,266,222,61,62,49
68,348,599,254,166,57,52,44
56,359,679,242,200,56,52,46
64,411,677,215,219,61,49,42
55,357,577,196,227,63,44,40
59,365,553,185,243,69,50,42
59,394,527,185,236,80,54,42
58,348,453,200,203,90,56,43
55,366,578,211,236,98,56,53
68,376,601,228,239,96,55,59
73,357,617,223,220,93,48,61
78,337,588,221,231,88,46,64
77,353,596,217,244,82,43,60
78,318,495,188,193,72,46,53
69,296,472,154,187,72,48,46
65,298,451,166,197,72,49,43
61,307,456,159,192,65,50,38
66,295,411,142,176,60,50,38
59,278,371,185,204,62,47,33
59,281,339,186,200,65,46,35
62,293,381,194,192,67,42,36
61,289,410,204,189,73,41,37
55,284,419,215,186,81,42,35
51,253,421,189,161,81,40,35
53,266,448,190,172,82,40,37
43,257,424,169,200,78,45,33
47,261,422,164,205,80,42,31
50,269,393,159,203,74,39,33
55,271,381,161,193,80,42,33
53,248,353,148,172,83,42,32
56,228,383,155,177,90,51,37
53,203,336,154,160,87,50,36
55,201,341,147,167,83,49,35
58,198,301,138,190,78,48,38
65,245,340,146,191,75,49,39
63,272,309,140,171,71,35,34
63,279,367,166,178,68,36,35
63,282,393,158,170,67,42,38
57,282,401,148,138,60,41,35
55,264,372,143,121,51,42,34
57,275,406,142,126,61,43,34
57,264,361,117,144,66,46,37
57,259,320,116,151,70,41,35
71,275,316,169,191,73,42,45
73,275,349,178,210,74,42,44
72,237,327,178,218,79,53,49
76,286,324,180,207,77,49,46
74,293,370,189,220,75,56,47
74,366,423,174,199,77,60,51
75,385,423,167,202,81,69,55
91,456,441,180,192,70,66,56
106,474,463,219,203,65,82,63
109,496,446,211,202,66,79,61
107,461,452,233,231,70,79,54
106,452,500,272,240,73,80,55
96,399,585,291,257,70,88,58
84,354,654,286,252,70,85,61
91,410,853,308,253,80,119,90
92,415,857,308,244,85,122,93
91,476,939,317,226,83,124,95
111,526,981,404,228,89,132,104
111,546,945,405,266,92,129,101
103,485,781,423,262,82,103,78
109,473,833,420,268,84,108,84
143,528,828,427,273,86,119,100
131,499,791,338,245,87,105,89
135,486,784,320,241,101,106,90
191,614,801,286,238,107,149,113
192,611,711,276,213,94,152,111
223,630,617,238,219,93,156,113
226,629,505,223,219,86,161,115
227,632,513,276,169,73,164,116
204,541,472,275,184,65,138,104
204,545,518,274,180,67,131,102
160,487,568,296,207,69,139,98
149,456,627,311,212,73,136,94
151,500,670,287,209,70,127,90
130,523,698,301,215,77,125,85
121,536,679,318,239,79,127,81
110,465,603,294,216,73,101,66
109,519,588,294,211,76,103,66
102,491,561,268,209,73,108,65
90,428,604,268,211,71,94,54
87,415,602,225,196,68,87,55
81,411,651,230,194,71,84,52
91,337,617,227,206,70,76,52
100,412,669,260,261,73,78,59
100,412,601,241,258,72,76,58
101,399,612,255,260,77,74,57
95,411,542,250,286,81,68,53
94,441,548,234,292,78,72,56
79,348,481,202,255,74,64,51
86,380,524,198,245,76,65,53
83,428,521,181,234,74,65,50
82,408,535,154,184,68,69,53
76,386,555,147,162,70,63,49
74,371,523,139,154,79,60,44
76,371,496,158,158,81,60,40
81,313,491,165,167,80,62,42
77,322,493,171,166,78,53,35
83,349,454,207,170,76,68,47
85,360,427,213,187,66,69,51
74,321,390,197,216,58,65,51
73,331,494,214,222,60,66,53
80,340,473,217,257,68,65,55
71,316,472,191,251,66,55,42
74,340,551,208,243,68,78,51
74,340,611,265,258,78,81,51
72,334,530,271,250,74,81,49
66,341,588,299,215,67,82,47
63,321,581,293,216,66,77,47
77,328,556,298,221,67,60,44
77,321,495,296,229,58,61,49
76,296,461,284,224,63,55,49
91,345,433,262,275,66,61,53
98,389,409,262,293,69,62,55
85,373,416,263,290,68,61,52
87,390,409,206,237,66,56,46
89,407,435,208,244,59,67,50
72,331,376,201,183,53,61,45
69,311,403,200,158,54,63,46
68,295,356,176,155,51,55,44
80,306,443,187,164,53,64,52
77,291,454,193,164,55,56,49
75,288,507,195,194,70,59,54
78,298,541,199,234,67,58,120
74,280,544,208,239,69,58,120
65,265,525,246,243,69,50,120
66,294,541,248,245,68,52,123
66,336,518,253,225,55,52,121
55,311,475,255,199,64,51,63
61,332,515,247,199,67,50,64
57,337,514,207,211,65,54,61
55,303,519,201,218,64,49,100
56,249,492,179,265,82,48,105
61,240,520,191,262,84,52,104
55,223,464,194,256,82,56,104
53,242,487,229,261,84,60,103
54,249,435,216,278,90,65,62
63,309,493,234,237,76,62,53
70,344,475,227,252,67,60,46
76,339,515,227,267,67,59,44
79,313,496,235,259,67,50,44
85,316,504,244,239,61,46,43
79,276,482,251,232,55,49,44
97,372,506,286,208,56,59,49
93,390,470,298,210,67,55,49
90,381,416,264,215,72,52,48
88,412,420,268,227,76,58,51
88,403,372,256,249,90,59,51
69,265,305,214,253,93,60,44
103,231,318,194,226,84,63,43
118,246,394,204,209,80,66,44
116,250,397,187,188,79,64,42
114,249,391,177,186,66,64,42
108,248,384,187,228,75,58,43
77,261,384,184,230,74,57,46
56,285,364,198,226,72,62,51
57,240,348,209,217,79,61,52
61,248,379,204,221,98,58,50
72,261,405,179,169,90,56,58
78,295,415,202,192,93,57,59
75,274,412,176,220,92,47,53
90,311,471,173,220,86,47,61
92,304,500,214,224,63,53,63
81,306,494,218,238,65,55,55
72,260,473,199,225,64,54,50
74,252,432,190,217,61,57,51
52,213,399,180,228,57,53,38
48,212,358,137,220,59,45,35
50,221,369,146,217,61,40,39
59,231,358,193,217,62,55,44
58,217,355,202,192,59,55,42
63,223,335,198,180,57,59,44
67,218,316,200,160,60,60,46
66,197,275,195,167,65,56,40
69,253,335,185,163,67,51,40
68,265,338,187,177,72,54,41
63,263,344,215,254,76,52,40
61,268,365,225,289,76,54,48
60,270,391,242,290,65,60,53
46,211,340,204,288,59,51,55
50,205,330,209,295,58,49,54
49,185,336,230,248,57,49,54
49,210,329,234,267,79,46,46
51,249,316,243,283,85,48,43
54,259,336,269,291,91,60,37
54,287,362,259,279,92,63,40
60,286,347,232,320,101,66,38
58,281,364,258,290,83,69,37
55,252,383,236,256,82,66,40
63,291,376,215,257,85,61,42
69,258,372,220,268,84,59,43
67,266,346,215,221,78,56,47
64,244,299,167,260,93,56,50
63,239,345,178,277,92,57,50
57,178,345,181,289,85,52,47
46,235,354,191,287,83,48,47
49,234,388,210,282,81,47,42
51,294,444,212,232,84,43,39
52,303,420,219,261,87,39,35
54,318,426,208,244,87,40,64
54,290,403,193,233,93,40,71
48,296,404,176,268,90,40,71
49,248,410,202,281,71,47,74
51,249,382,175,236,66,48,74
48,252,413,184,245,86,45,54
46,251,450,203,275,93,45,38
52,244,519,244,269,99,44,39
61,251,483,227,258,104,37,38
68,286,511,246,260,104,35,45
70,270,487,255,277,98,36,45
77,316,492,264,272,97,39,46
74,312,396,216,236,98,37,44
65,337,423,210,219,91,38,41
56,296,422,199,213,87,37,31
58,324,405,203,217,81,36,29
53,308,387,171,194,68,38,30
54,311,413,180,224,67,38,29
55,289,405,180,264,81,42,29
55,288,364,177,277,86,47,33
51,261,383,162,245,87,48,34
51,216,350,184,262,88,44,34
46,202,306,171,231,79,44,35
47,189,246,167,221,69,40,35
46,225,305,199,257,77,43,34
51,236,291,200,273,73,46,35
49,227,303,193,302,74,50,36
56,235,334,207,314,75,54,37
56,221,350,239,397,82,53,39
58,258,341,213,396,73,46,40
59,262,422,235,444,81,44,40
59,285,478,239,422,88,38,36
55,298,476,225,425,88,35,38
56,341,506,189,337,81,39,39
74,442,594,194,312,81,51,43
69,437,541,166,232,81,50,39
67,425,530,173,237,81,52,40
76,427,572,197,224,88,49,38
111,430,544,191,220,86,46,42
103,277,457,179,204,84,41,37
102,275,475,176,182,73,40,38
103,286,436,179,210,70,37,40
108,306,378,169,218,61,38,42
71,267,380,186,234,69,37,34
70,294,364,186,242,69,27,34
71,292,340,181,242,68,33,34
70,282,331,149,201,56,34,34
52,267,413,157,196,59,34,35
51,257,417,156,188,64,33,35
50,297,472,186,178,62,40,39
52,319,497,204,205,69,37,38
52,320,499,211,196,71,37,35
48,299,428,220,286,96,35,37
55,313,447,208,286,97,37,39
48,250,376,177,289,99,31,40
46,229,377,167,277,93,32,41
48,254,383,170,310,101,30,42
53,288,444,137,219,74,40,39
45,269,423,144,202,66,38,38
59,263,426,151,217,65,44,38
62,247,427,151,218,72,43,40
72,243,457,175,187,67,48,44
74,274,443,179,194,64,43,46
75,291,488,208,205,61,42,44
69,295,474,207,183,60,38,40
69,287,473,214,174,49,39,38
64,267,449,200,160,40,38,31
67,243,411,221,230,64,39,30
69,253,410,209,237,75,40,32
66,283,450,230,265,77,38,33
66,294,452,229,295,90,47,36
60,358,553,225,301,89,56,39
66,361,579,211,250,80,58,44
68,342,544,213,269,72,59,45
67,320,522,199,243,77,60,43
69,349,537,203,226,68,54,42
70,301,474,208,230,69,45,39
64,314,556,232,241,83,44,35
67,365,639,222,225,99,49,41
73,437,688,235,226,96,50,48
71,414,670,250,208,96,52,47
74,461,697,278,236,111,57,49
68,435,616,267,241,107,59,51
71,437,608,269,278,100,62,48
63,366,579,257,280,103,63,40
62,403,636,251,286,100,62,41
62,370,570,231,251,87,64,43
60,359,562,207,234,77,59,38
53,327,541,238,185,66,52,42
52,323,518,235,192,58,51,45
54,286,423,210,193,65,52,44
50,269,444,188,227,71,55,46
50,277,454,192,227,69,55,46
57,259,358,166,226,69,55,41
56,281,360,152,237,71,57,42
55,266,469,211,247,81,53,42
65,279,555,208,236,71,48,41
69,281,557,244,254,72,52,44
61,278,567,230,240,71,48,41
64,284,566,240,231,70,44,39
69,299,466,187,213,56,46,41
73,375,459,195,208,66,52,43
85,379,556,167,187,62,63,56
86,373,559,168,192,64,65,57
88,364,545,168,201,64,69,58
87,353,571,195,198,62,81,61
81,229,483,191,188,52,77,60
67,217,354,194,203,57,67,47
68,222,324,195,202,56,67,48
62,203,324,196,184,51,65,46
60,245,317,198,228,50,51,41
63,322,308,210,222,51,54,42
65,327,320,193,232,51,53,40
62,324,320,186,231,53,54,37
64,316,303,175,226,56,51,37
65,329,328,167,189,57,53,38
55,267,395,183,205,60,47,34
53,263,371,190,192,64,44,36
58,268,403,205,215,69,44,37
60,268,416,223,216,67,44,38
53,220,360,227,254,66,39,32
68,287,383,211,236,57,46,40
67,306,401,209,217,57,47,38
68,310,421,197,196,61,49,40
66,314,433,175,193,63,50,40
68,314,476,158,128,68,54,42
50,279,417,137,146,76,48,34
53,264,471,132,152,81,49,37
49,260,430,150,155,75,45,36
49,263,458,200,224,80,47,34
54,277,421,200,239,82,44,35
66,330,481,212,253,79,41,35
62,322,442,215,262,67,38,33
65,336,463,230,290,66,40,34
66,354,431,188,242,59,36,37
63,354,455,181,247,52,35,37
54,279,406,171,249,54,38,36
55,294,410,178,245,65,40,34
53,335,408,152,219,73,39,33
53,323,432,156,218,73,39,30
48,300,423,187,236,78,40,29
47,297,466,204,234,80,48,32
54,300,496,194,225,73,51,34
68,287,531,225,240,65,58,38
69,275,499,229,264,68,61,39
71,272,501,212,231,61,60,38
67,254,458,227,234,58,55,36
64,259,504,269,293,75,58,40
55,216,461,254,314,84,53,36
54,256,500,260,333,82,53,35
59,302,489,266,347,92,54,40
60,305,447,237,337,90,50,41
64,303,349,201,307,79,45,40
61,345,437,226,270,65,43,39
62,338,420,222,226,71,41,44
63,314,441,218,229,66,47,44
62,321,456,217,220,66,47,43
56,297,429,201,204,63,44,42
53,227,387,213,218,65,45,42
59,197,361,217,245,62,45,39
59,171,335,205,220,58,36,36
59,156,369,213,248,62,34,35
57,188,404,217,248,70,34,36
60,250,447,186,238,78,34,36
60,307,464,175,207,74,33,37
51,316,473,184,240,100,33,35
54,333,442,179,220,101,36,36
54,312,421,187,211,95,37,34
47,264,402,190,204,90,35,33
36,185,367,192,220,94,34,27
48,202,371,230,196,74,45,32
44,164,360,236,197,68,45,32
45,165,366,231,242,78,49,34
63,282,277,217,267,89,50,39
63,287,292,227,272,89,53,41
60,272,269,186,285,94,46,41
62,281,291,176,284,94,46,42
65,313,308,175,243,86,43,43
52,229,328,160,206,73,45,43
63,244,338,136,178,65,52,47
57,237,345,137,164,52,53,44
56,231,358,159,216,61,54,43
58,209,362,178,237,72,57,45
64,231,346,171,247,76,55,45
61,239,361,175,253,84,54,50
63,259,381,170,242,79,58,52
70,335,420,214,253,102,66,54
87,425,479,202,266,101,74,59
86,444,601,240,265,99,83,61
96,506,645,266,261,96,83,56
100,530,710,287,278,111,96,61
98,489,708,250,223,89,95,62
84,455,700,276,194,90,94,63
87,432,623,267,212,99,100,65
85,379,719,284,270,105,110,72
105,428,767,273,256,94,107,74
119,466,797,327,273,105,121,84
144,528,893,344,308,115,132,91
156,567,951,351,317,115,142,99
157,624,972,379,276,118,144,98
149,601,976,436,323,113,144,95
151,627,1008,422,332,104,144,94
132,580,914,418,320,90,131,84
114,553,891,437,308,88,114,73
111,526,806,460,324,93,105,73
140,593,810,516,298,107,126,91
141,575,765,539,306,127,142,93
144,615,801,544,295,127,139,92
155,620,864,532,312,122,155,104
155,583,894,468,289,112,156,103
125,491,830,385,270,100,139,89
127,485,878,350,247,72,135,96
120,383,825,324,244,70,137,97
126,394,712,324,222,80,132,98
150,386,671,362,245,94,154,116
151,394,660,331,234,95,153,116
151,393,595,352,273,89,137,112
154,435,658,383,290,103,145,118
148,418,653,378,280,95,140,107
123,415,615,377,262,77,109,86
167,605,730,496,297,76,125,97
154,590,739,481,266,92,116,87
159,640,746,462,248,81,112,82
180,683,793,496,259,87,118,101
184,692,805,499,285,101,124,106
171,575,777,502,356,115,153,118
180,585,733,491,355,102,157,120
177,515,689,492,352,98,168,125
154,482,704,467,352,101,164,112
157,460,729,501,359,97,180,121
141,427,655,370,280,92,167,118
130,395,674,371,266,96,165,118
135,437,720,460,305,100,168,122
132,417,664,441,303,96,163,117
162,509,688,410,283,90,172,127
152,483,670,440,277,75,151,109
163,504,692,437,281,74,156,110
157,483,677,330,223,66,140,99
155,468,713,369,218,62,139,100
123,453,652,350,197,59,103,66
162,496,647,366,181,65,120,85
159,503,612,431,206,73,136,93
154,490,599,444,233,77,132,91
172,588,710,478,246,91,145,103
171,575,747,525,278,92,151,108
134,533,827,514,288,88,134,93
126,506,851,495,279,87,113,82
148,521,897,596,341,106,175,120
144,442,791,583,362,122,200,134
138,390,733,537,341,119,195,129
142,419,650,520,338,123,199,134
153,431,756,502,357,122,202,136
140,483,771,409,294,105,157,112
128,452,767,368,256,83,125,93
123,450,764,360,291,93,120,92
120,424,738,345,289,96,115,88
120,439,584,320,291,95,120,88
121,348,543,331,303,99,121,89
132,385,554,328,312,111,112,88
133,377,539,317,277,106,114,89
127,360,545,327,295,101,111,85
137,351,635,428,275,100,113,93
131,349,557,384,256,101,103,86
121,337,547,401,258,82,102,79
118,330,546,398,276,78,99,76
149,428,634,435,280,96,129,100
151,462,622,423,297,98,134,98
156,496,626,415,323,93,135,99
161,496,617,470,324,99,155,113
166,506,628,487,317,108,161,115
140,424,528,458,295,92,145,98
136,506,554,422,280,94,137,95
127,465,528,423,241,95,139,95
126,512,487,357,224,88,125,82
123,530,570,346,230,80,125,84
124,542,572,335,213,75,117,81
100,419,514,283,251,74,105,71
117,476,557,274,256,76,101,70
98,413,621,234,258,76,78,57
107,397,554,228,251,78,63,52
115,408,616,225,258,86,79,61
111,419,602,252,251,85,74,58
95,381,648,253,253,84,72,55
103,374,623,253,245,78,76,59
104,408,799,421,269,79,95,72
104,448,806,439,265,76,82,65
118,469,800,426,228,71,93,72
121,480,826,484,274,67,97,72
116,481,809,483,270,65,92,69
123,470,674,364,261,84,91,68
115,421,639,349,266,82,100,74
106,433,678,369,261,82,92,69
123,451,662,314,210,87,94,78
124,471,675,329,230,91,101,81
122,477,657,303,202,84,102,83
121,479,640,297,191,88,95,78
117,424,620,268,170,93,95,77
108,426,541,247,201,95,89,71
104,412,545,236,193,97,82,67
92,421,596,252,197,86,61,51
101,449,630,274,225,83,64,52
103,477,576,265,231,72,62,52
89,451,613,261,234,70,57,46
94,442,633,268,256,66,59,47
87,423,604,262,262,77,58,46
77,397,613,247,243,79,53,46
86,434,640,287,286,82,70,57
89,441,575,264,263,79,68,56
90,451,589,241,239,76,82,61
102,441,543,246,256,65,89,65
102,448,535,255,260,59,92,68
99,400,502,204,231,63,78,58
99,371,569,215,234,75,79,58
94,339,531,270,277,81,61,53
90,361,560,261,272,83,58,51
109,405,568,297,299,87,59,50
106,436,599,311,306,80,64,53
101,417,525,305,298,65,62,50
111,450,524,268,248,62,69,54
109,450,496,279,245,58,67,51
103,437,433,229,228,53,74,58
105,440,466,227,212,59,73,57
108,453,468,235,216,62,74,60
100,428,448,264,299,62,74,57
97,374,499,264,303,63,78,61
83,319,492,261,299,72,66,50
90,288,427,283,306,80,66,55
82,263,466,284,305,83,66,52
81,257,462,277,252,86,62,52
76,253,379,317,269,89,52,48
75,245,364,320,277,84,53,48
59,197,445,307,277,77,53,42
64,199,418,304,286,86,52,45
57,192,483,291,260,79,48,42
58,231,518,246,228,80,49,40
57,251,540,235,259,78,49,40
64,282,464,213,243,82,58,49
60,280,470,214,272,67,56,46
64,289,393,199,287,68,56,45
71,295,417,202,296,65,56,47
69,321,453,208,254,63,55,46
62,315,467,217,266,49,45,34
70,337,471,236,223,55,57,46
71,353,486,253,291,71,57,46
71,386,505,264,303,72,59,46
71,347,474,259,299,77,60,46
69,330,484,255,299,89,57,47
61,328,490,231,300,93,47,36
60,322,506,203,217,80,52,42
50,291,524,165,183,78,47,40
54,296,509,166,194,86,52,46
60,315,493,161,235,85,58,46
64,305,551,194,238,83,59,49
58,269,538,199,235,81,55,44
59,236,463,209,267,83,55,42
85,337,518,241,304,83,71,55
78,338,561,249,255,74,66,55
81,391,531,306,257,68,68,54
86,422,619,310,280,74,71,60
86,420,642,308,245,74,72,62
61,369,595,286,172,62,56,48
66,396,589,313,200,59,57,48
72,374,567,259,190,72,55,49
69,380,501,282,226,76,49,44
69,450,569,296,234,76,52,46
73,440,582,296,244,76,49,43
72,405,531,251,266,76,48,41
60,382,527,240,297,70,48,34
61,353,546,217,259,67,53,36
74,313,529,203,299,82,69,46
66,293,533,205,322,81,70,46
68,294,602,233,325,94,73,49
66,272,574,230,311,102,71,50
63,281,517,227,316,105,73,51
49,244,470,208,282,90,54,40
54,267,536,209,249,89,59,40
62,283,495,192,217,86,67,47
67,288,544,189,189,71,69,48
69,272,537,180,164,62,67,47
68,250,530,193,174,61,66,45
86,263,446,189,191,70,76,59
77,231,430,190,167,56,72,56
72,233,407,217,281,72,70,54
76,264,409,212,298,80,68,54
76,274,374,201,278,81,72,54
56,278,479,241,297,77,59,41
73,286,595,242,333,75,63,48
75,294,572,213,254,66,67,51
72,277,590,245,256,61,67,49
69,266,600,256,260,58,62,52
68,240,500,207,224,56,57,50
51,236,394,224,194,59,46,38
51,276,426,224,189,60,45,37
49,282,491,212,189,56,49,41
50,286,473,226,246,64,49,36
48,285,498,244,251,66,50,35
51,284,480,230,234,69,50,35
58,279,488,242,232,62,46,36
56,301,427,234,225,68,42,33
57,296,429,216,171,65,44,35
63,309,415,215,189,60,49,37
64,301,387,211,212,63,46,36
57,260,459,223,260,84,50,39
69,258,439,229,278,80,56,40
73,299,484,247,282,79,56,42
67,280,489,239,291,83,51,39
65,280,476,228,274,78,53,39
66,294,369,208,230,60,51,39
56,264,381,194,213,65,44,36
49,214,384,174,245,82,43,34
52,217,392,167,219,81,45,36
63,316,443,200,246,82,45,39
59,308,449,204,295,83,44,36
59,300,524,206,293,78,45,37
62,323,537,212,268,61,49,40
62,355,545,227,280,68,48,41
49,276,521,191,266,71,48,38
53,288,542,199,221,66,48,38
54,298,472,230,257,74,47,38
62,290,468,219,264,80,42,36
68,301,493,241,280,80,54,41
73,316,593,263,299,81,56,45
75,309,606,260,295,82,56,44
72,302,659,263,247,74,53,44
79,302,642,278,239,77,66,52
73,261,606,267,209,69,59,48
68,263,511,258,182,62,56,47
72,283,520,250,167,66,58,49
76,304,447,221,186,66,59,51
70,376,520,205,183,61,50,43
89,406,528,179,181,66,55,49
91,390,551,170,179,68,58,47
85,388,503,167,190,64,57,44
99,451,550,163,208,76,72,55
97,395,476,176,240,69,73,54
102,402,508,209,275,83,86,62
163,545,476,231,272,88,115,94
167,549,496,237,271,93,115,93
159,485,495,257,263,86,109,89
156,486,521,269,220,85,111,90
149,481,521,272,202,71,101,84
91,363,638,279,220,76,66,51
114,396,671,271,253,88,79,67
115,407,620,248,241,87,77,67
116,389,561,217,237,87,103,67
113,362,527,199,258,91,120,68
112,329,415,176,289,88,125,71
86,251,347,198,257,75,119,60
92,252,387,253,266,82,133,69
91,279,508,291,280,94,114,70
90,273,523,295,252,89,98,70
79,318,671,383,201,83,99,69
94,361,712,408,207,98,102,74
84,372,721,399,216,92,83,63
88,386,848,410,210,82,91,65
93,392,905,431,210,92,94,71
92,356,850,359,220,107,96,72
77,367,818,352,230,101,93,67
83,390,895,346,202,98,96,73
77,359,761,318,226,98,86,68
75,351,747,361,245,91,82,62
80,369,695,359,245,75,76,58
75,313,726,342,239,63,70,54
76,278,643,337,281,71,69,47
75,340,598,323,258,73,68,46
69,351,558,236,242,68,64,43
65,355,580,236,252,63,51,38
76,386,601,255,282,80,53,41
67,375,567,239,248,78,44,37
65,317,630,254,262,81,50,37
78,341,585,261,282,91,56,39
71,302,532,250,300,101,57,40
72,291,486,245,290,89,67,42
72,281,455,240,284,86,66,41
85,359,354,234,267,85,66,45
76,310,429,281,240,75,59,42
80,308,459,282,201,60,60,43
76,333,555,270,185,75,50,40
75,332,576,270,221,73,50,42
60,254,573,265,221,70,43,39
59,280,603,242,212,81,42,38
63,300,637,273,214,93,45,36
56,240,533,269,232,83,44,36
56,245,539,284,220,82,45,35
55,240,556,294,256,83,44,33
63,254,521,291,280,75,53,39
52,227,485,283,319,60,52,36
51,222,471,282,317,55,49,35
57,261,519,310,309,56,50,37
65,263,558,327,315,61,55,43
53,224,500,292,316,59,45,39
67,223,458,271,284,61,47,42
69,286,462,271,288,60,62,47
68,269,368,213,282,60,63,44
65,279,308,209,296,53,63,38
63,300,395,208,275,64,63,38
52,301,443,246,370,116,61,35
49,280,471,251,359,122,48,27
52,287,531,262,358,121,47,34
53,298,538,244,322,125,44,36
52,275,482,241,324,119,42,37
65,328,501,224,204,64,42,41
67,299,474,214,189,61,41,42
63,311,453,213,193,64,40,39
61,291,425,194,187,58,41,38
67,310,452,198,203,67,43,40
52,278,475,204,253,89,44,36
52,293,482,220,285,96,43,36
49,258,482,225,299,104,44,36
48,244,470,229,304,105,42,35
41,229,463,244,327,101,40,32
42,205,390,224,286,84,38,30
39,184,400,208,278,83,36,30
37,167,350,196,281,69,34,29
56,247,400,242,320,73,49,38
57,237,368,240,306,73,53,38
59,249,363,240,298,78,53,39
65,244,349,230,275,61,54,41
66,244,364,262,306,79,57,41
52,187,322,221,271,77,43,35
51,200,318,208,253,78,40,35
49,183,325,202,267,77,44,33
45,206,299,214,298,86,44,30
49,235,327,189,247,71,42,31
50,216,317,193,240,71,42,31
53,220,335,214,251,74,46,35
55,220,324,217,258,71,43,39
56,200,326,214,261,75,47,43
54,191,328,227,271,80,46,42
56,217,351,235,299,88,45,40
55,221,361,225,279,95,41,38
54,218,476,248,311,93,42,37
52,223,526,244,277,84,37,32
52,244,545,226,270,81,40,32
47,220,548,213,244,71,42,35
45,255,582,222,324,87,40,33
54,308,552,246,321,91,50,38
56,331,531,256,363,89,50,39
56,312,500,257,370,88,48,38
61,339,498,259,364,84,48,37
62,312,495,275,295,53,48,37
67,270,445,239,255,56,46,38
64,247,423,235,241,62,42,36
65,241,406,230,238,71,43,36
72,209,459,244,246,72,54,41
74,228,412,220,281,78,54,42
74,230,499,239,303,79,56,46
77,263,533,232,276,74,59,48
75,253,535,227,283,79,58,48
71,324,506,239,291,88,49,47
80,322,576,258,259,82,56,53
78,345,524,299,231,76,57,48
75,317,498,295,230,81,54,47
86,354,511,301,222,76,60,52
82,298,501,293,206,70,60,48
70,276,412,273,205,74,54,39
66,281,422,220,188,72,51,39
66,286,405,216,209,67,51,40
51,254,404,212,232,59,46,32
52,258,417,191,248,59,47,35
56,264,438,189,242,56,46,36
55,236,423,182,252,59,43,36
53,228,433,199,217,60,41,35
55,253,442,203,210,69,42,37
52,250,414,203,202,64,37,33
48,246,386,192,201,63,35,32
49,224,320,170,204,63,45,36
50,247,322,181,224,62,46,38
47,203,279,166,193,46,44,35
48,201,239,162,174,47,43,36
50,196,278,168,202,55,46,36
40,206,395,188,187,58,35,30
43,217,377,171,214,57,36,29
48,221,398,176,224,59,39,32
49,219,439,205,239,72,40,35
48,231,428,198,221,75,35,35
53,222,357,180,220,77,39,35
61,206,365,177,177,80,43,37
56,206,355,187,183,80,43,35
54,197,333,165,205,70,46,36
55,201,326,176,222,61,49,36
52,218,333,194,232,58,46,34
40,197,401,214,285,77,42,31
41,198,410,212,276,75,44,32
45,229,406,208,242,73,41,28
50,237,423,205,250,77,41,29
49,218,405,214,252,82,40,30
51,215,360,192,189,66,41,33
61,226,444,226,194,74,40,37
58,198,442,249,232,79,43,37
51,169,417,247,238,77,42,34
51,161,403,228,233,70,40,34
56,233,424,247,254,69,42,34
51,219,307,205,242,69,40,29
50,231,282,170,211,74,43,31
50,236,293,174,245,76,42,32
49,257,327,170,264,82,42,30
48,194,296,157,256,82,45,31
50,225,306,164,268,74,47,36
49,212,350,172,273,70,40,34
57,250,404,172,231,73,47,40
59,246,396,165,200,66,47,40
54,242,428,178,205,62,42,38
50,233,438,187,209,68,43,37
54,234,437,194,255,79,47,40
53,303,433,197,284,77,43,35
51,293,428,205,285,75,42,34
54,295,377,184,266,78,45,37
54,287,393,175,260,80,49,37
50,294,367,158,224,74,47,36
44,176,349,158,179,69,43,36
60,269,349,150,218,91,46,41
57,285,395,141,233,91,52,41
57,286,369,132,223,85,51,40
59,297,361,137,239,80,50,38
61,305,318,186,262,86,50,38
50,229,346,187,231,76,51,34
52,232,304,183,236,78,42,33
64,280,338,192,249,76,43,36
62,264,338,188,215,74,41,36
65,284,414,152,198,75,41,35
65,284,370,167,205,62,39,34
71,298,375,176,195,58,41,37
61,257,346,166,190,59,35,33
60,255,379,185,239,79,37,34
53,228,316,162,231,83,42,33
49,251,337,176,218,82,43,33
52,237,341,188,224,80,41,31
55,274,350,204,238,84,43,32
54,274,335,228,215,74,43,32
58,285,323,243,221,59,40,35
60,260,403,221,233,57,37,35
48,248,396,208,241,77,36,34
40,226,424,202,225,83,33,32
43,281,406,153,204,77,35,34
57,292,407,154,179,82,45,41
55,305,347,157,177,96,43,41
57,307,356,182,168,88,55,46
60,293,312,177,185,78,54,46
60,274,337,176,193,81,53,43
48,250,324,165,198,77,42,35
55,247,354,178,192,58,51,41
54,257,371,159,193,69,39,35
56,267,404,173,190,74,41,37
57,236,383,181,187,69,43,39
57,236,393,171,209,77,43,40
52,236,338,164,230,87,36,34
63,235,300,157,223,73,38,37
62,248,338,139,225,67,37,35
62,251,391,184,246,74,36,32
59,244,400,190,224,69,34,31
61,249,412,183,201,61,30,31
50,232,439,183,187,58,30,28
49,207,384,177,168,62,32,30
48,193,358,141,143,61,32,32
47,198,357,162,162,65,36,34
44,200,381,171,176,64,38,34
46,207,354,192,180,65,42,36
43,199,437,216,190,61,39,32
45,244,443,211,209,65,45,37
50,258,447,194,229,64,44,36
51,243,434,186,223,77,43,36
50,236,503,181,231,80,45,37
50,267,452,160,218,79,46,36
56,266,435,171,190,74,41,35
51,255,417,172,170,72,40,35
57,252,384,173,161,64,42,36
68,303,276,165,146,64,49,36
68,291,240,167,164,63,50,38
62,258,273,171,230,79,48,34
67,272,282,183,221,78,48,34
60,282,307,176,223,73,46,32
52,245,425,210,230,75,34,30
54,247,457,218,232,77,33,30
52,243,450,198,161,62,33,29
46,239,458,189,162,56,34,30
52,241,451,201,203,68,37,33
50,228,387,159,192,59,36,30
46,206,380,173,242,73,35,31
48,229,384,174,266,80,37,30
47,208,382,175,256,81,35,28
45,239,436,183,248,70,32,25
41,229,414,189,257,71,37,28
40,235,395,162,214,60,36,26
45,237,488,211,186,46,46,30
48,274,508,213,197,45,48,31
45,250,465,195,182,45,49,32
45,248,455,198,170,50,45,31
46,238,437,216,179,46,47,30
44,240,347,179,179,50,39,34
47,221,326,179,214,54,38,36
52,228,376,205,236,76,49,42
51,251,389,197,250,76,48,41
61,288,390,182,227,76,49,44
57,275,355,173,231,80,47,41
57,272,377,181,195,81,50,43
51,255,334,189,196,66,41,37
52,238,364,182,182,72,40,36
41,209,389,195,238,75,38,33
48,251,450,207,249,72,36,31
48,252,449,204,253,69,37,27
52,286,498,185,220,64,35,28
52,297,473,204,236,59,35,27
57,340,482,212,231,76,41,34
61,379,461,207,231,76,47,40
57,378,442,197,240,75,44,39
53,349,436,227,266,76,45,39
55,342,432,218,252,76,47,41
90,441,495,220,207,59,53,47
88,382,471,224,230,57,56,45
98,463,495,239,275,71,59,49
99,478,491,226,246,71,59,50
101,478,529,231,257,70,61,50
67,361,471,204,258,74,51,41
86,404,509,217,225,76,64,49
83,337,562,212,168,71,65,49
88,378,582,213,241,70,66,49
85,393,571,224,255,76,68,50
89,408,600,239,263,70,71,49
73,383,601,264,271,74,62,41
104,420,593,330,256,81,85,61
106,386,570,328,196,89,88,64
120,399,593,333,165,88,94,71
149,402,557,389,188,89,112,86
164,484,579,372,176,85,115,91
142,454,566,339,183,74,99,77
143,448,578,334,190,64,99,76
140,494,615,382,196,61,96,77
114,471,644,366,164,62,79,67
91,382,659,362,226,70,76,62
106,424,730,364,234,73,76,63
107,422,726,374,229,70,74,62
112,412,720,325,246,74,78,64
106,433,737,336,288,82,80,62
109,456,735,358,244,78,80,66
100,402,692,383,264,77,82,68
93,417,701,376,284,84,82,66
74,353,678,378,279,77,79,57
91,410,698,339,244,70,74,57
93,398,664,376,280,74,79,54
99,428,649,341,325,100,96,65
104,405,629,332,320,102,97,67
116,491,651,375,347,106,102,72
105,470,653,404,376,107,108,68
101,491,690,345,368,109,105,68
96,478,649,321,308,86,88,60
89,482,640,323,305,78,87,57
71,390,594,251,277,77,78,50
76,387,513,180,229,72,67,54
76,354,524,164,220,66,70,56
85,443,590,186,263,90,73,57
85,447,607,210,257,97,71,57
85,466,634,226,238,94,70,56
79,416,758,315,237,98,73,56
74,391,697,338,214,94,61,48
66,288,692,346,182,76,56,43
71,294,679,338,209,76,58,48
72,313,708,343,239,86,57,47
76,394,629,318,257,84,65,50
77,428,673,349,261,86,68,54
93,526,755,402,260,87,110,75
124,587,806,458,283,88,125,79
133,618,851,549,283,79,138,88
155,699,868,630,302,98,161,109
167,713,872,638,327,101,184,116
164,647,847,638,346,111,185,116
195,790,933,708,339,123,215,139
192,774,923,636,313,125,210,134
204,749,928,589,308,121,226,140
222,814,966,597,291,137,228,145
259,903,908,585,270,128,241,159
308,812,769,513,268,115,278,183
315,817,738,555,286,119,288,194
318,791,690,523,263,114,284,195
302,708,611,472,265,93,269,186
281,644,693,488,297,87,263,180
183,541,689,428,259,87,188,129
171,515,624,373,273,88,172,115
145,492,661,390,298,90,163,105
164,494,704,422,357,111,177,121
141,402,623,401,328,114,151,109
145,419,699,421,338,121,152,115
147,392,796,474,324,121,152,117
138,326,864,453,331,122,130,111
139,337,827,476,261,107,125,113
136,335,800,450,265,115,115,107
171,388,805,474,303,114,155,130
168,395,713,419,304,110,156,127
168,427,582,388,267,101,149,121
151,428,741,431,273,104,142,106
152,422,755,425,254,95,142,107
102,350,669,368,207,84,93,65
106,376,669,360,187,78,84,64
95,321,668,374,195,86,82,63
96,333,476,268,186,85,77,57
107,385,453,263,229,87,80,61
112,403,505,288,234,102,89,67
113,392,513,292,239,102,91,66
108,428,577,308,241,98,80,59
102,403,614,283,254,94,78,60
91,352,653,304,214,86,80,58
91,352,617,276,195,66,73,53
87,333,664,287,194,75,80,60
85,285,570,241,202,68,78,60
98,392,613,352,173,70,100,74
89,386,566,331,179,68,96,72
85,372,573,336,187,66,95,70
102,441,561,388,197,75,122,86
105,442,603,390,175,81,126,89
94,354,583,311,165,75,108,75
142,504,638,350,158,77,126,92
162,568,650,376,149,80,151,111
153,522,581,327,149,61,131,98
158,532,568,337,157,60,132,96
163,573,623,335,166,67,135,100
129,460,571,312,191,69,126,87
105,492,599,294,202,76,107,69
102,492,623,300,229,80,107,70
95,489,608,284,235,73,102,70
118,442,526,287,231,73,127,95
113,432,573,351,249,93,128,94
114,327,593,354,264,96,117,90
116,377,652,336,236,98,112,88
115,372,676,343,282,101,112,87
78,354,636,347,332,112,76,54
97,409,637,275,324,104,74,63
107,432,646,250,305,97,86,71
104,390,578,253,317,92,84,69
103,416,646,315,279,98,92,73
107,416,653,297,224,79,96,77
94,382,610,342,249,78,95,70
78,389,533,344,250,80,101,67
90,390,540,372,225,82,110,78
87,356,394,319,276,81,100,72
110,473,477,354,294,89,102,77
110,459,462,293,253,85,97,78
126,446,541,296,276,83,95,85
117,440,526,265,283,79,88,76
122,444,556,262,254,79,90,77
102,317,529,216,229,71,86,69
103,315,536,234,229,62,82,66
82,279,522,256,193,57,66,50
91,292,569,273,205,75,81,71
118,366,635,355,184,68,110,91
114,356,599,355,189,69,112,90
162,517,713,486,230,86,168,124
180,538,716,483,242,88,176,131
202,595,742,480,264,80,181,131
219,648,779,454,264,85,181,131
220,678,803,443,262,84,179,130
195,625,770,299,225,71,133,105
190,622,831,293,231,69,130,105
173,625,813,277,187,69,116,96
133,534,742,217,160,59,93,81
138,562,773,233,185,65,97,86
124,521,724,210,182,66,92,80
111,487,648,171,165,70,94,81
90,406,603,162,195,72,87,75
100,410,573,162,250,80,88,78
95,316,503,187,249,82,86,77
101,269,548,227,261,76,88,77
99,341,570,256,275,81,79,65
100,379,621,265,261,76,84,69
85,380,626,280,225,67,78,60
95,404,594,268,267,63,79,59
88,409,612,258,258,69,75,56
85,381,569,280,251,65,68,52
106,438,601,292,263,66,67,57
105,426,600,312,270,64,63,56
97,421,603,305,232,70,57,54
95,407,520,302,248,68,52,50
90,387,492,265,292,64,49,49
99,302,430,262,294,72,64,60
100,300,416,242,288,83,69,64
101,383,439,245,274,81,71,61
123,448,463,239,304,95,76,69
123,436,429,236,268,100,80,70
129,452,464,229,269,100,103,77
130,471,474,201,253,91,104,76
134,454,518,225,266,91,109,83
115,397,493,223,269,81,107,78
122,405,531,246,259,75,111,82
85,353,463,230,240,69,73,59
118,437,507,269,267,77,103,85
108,367,419,236,270,74,96,80
132,404,457,246,224,70,101,86
129,422,460,227,229,73,98,84
136,489,491,234,249,73,103,88
106,389,443,196,252,64,75,64
108,428,531,215,248,66,78,65
79,395,524,192,278,58,71,57
80,424,593,194,342,65,66,57
72,370,587,200,370,67,63,52
81,430,617,196,365,76,54,46
83,394,559,175,360,75,52,44
79,393,546,192,352,89,50,43
73,344,461,176,299,81,49,38
77,339,493,152,239,78,53,42
67,250,438,192,232,67,52,41
63,263,509,198,224,65,55,40
67,283,511,215,182,45,59,41
66,283,530,243,150,42,61,41
60,292,527,255,157,42,56,35
64,356,615,221,155,50,55,39
82,371,659,259,159,47,59,46
84,351,688,230,186,50,62,49
99,387,712,282,198,55,62,51
138,437,748,296,194,56,80,71
140,417,738,323,186,52,81,72
129,394,653,296,217,53,72,67
133,432,669,311,223,58,67,66
127,425,677,272,252,64,71,68
82,369,597,248,258,65,47,47
74,340,536,231,265,64,44,41
82,359,621,279,243,63,46,48
77,345,601,286,247,59,52,45
69,306,524,258,242,57,47,42
77,324,535,260,270,71,48,42
78,330,563,270,267,80,55,45
66,298,463,208,271,80,52,37
63,275,411,198,264,87,54,42
63,301,415,207,250,95,54,43
59,307,426,212,211,85,56,43
66,318,422,189,220,78,66,51
71,340,430,204,215,78,69,53
71,350,491,201,249,106,73,53
72,349,501,195,243,99,73,53
77,378,456,187,247,96,109,55
86,374,485,199,263,99,112,55
89,367,524,188,266,107,116,60
89,354,492,177,212,71,112,57
90,355,503,171,203,65,116,57
84,338,625,199,249,73,89,57
70,334,574,187,225,77,79,52
75,364,547,182,242,74,75,53
78,378,568,219,268,75,74,55
74,355,574,226,272,76,69,53
87,350,534,223,248,77,60,54
85,338,523,214,250,67,53,51
76,303,507,215,220,57,47,42
75,279,477,169,195,60,43,39
76,267,478,199,193,64,50,43
58,253,386,179,185,56,50,42
56,327,542,206,165,61,59,45
62,347,662,217,211,71,84,64
60,360,677,221,211,75,83,64
66,403,754,235,198,69,85,65
72,384,859,252,188,72,88,66
76,326,845,257,194,79,82,63
74,306,762,262,146,77,64,48
73,363,781,262,162,75,74,56
67,330,735,232,174,78,68,54
67,319,650,221,194,88,72,54
65,330,583,207,227,90,72,55
58,313,602,223,267,90,65,50
58,229,564,238,283,93,63,44
65,234,560,238,278,90,62,43
62,252,585,229,259,80,55,38
68,248,659,226,237,87,68,47
66,276,657,191,197,82,71,48
66,274,636,172,176,78,63,46
59,280,588,157,241,80,62,45
56,294,586,174,243,81,65,47
56,305,469,180,266,59,57,41
92,426,506,216,267,64,64,54
94,425,504,223,283,65,63,56
99,445,542,227,253,71,73,61
100,432,450,208,254,68,70,59
118,454,482,244,244,72,86,71
104,396,458,246,292,72,82,61
125,428,465,252,276,74,96,68
130,400,464,246,257,68,97,69
133,394,526,247,265,70,106,77
118,351,528,232,249,72,95,67
131,435,511,268,203,71,107,77
114,422,543,282,201,66,98,73
105,421,538,287,196,62,90,68
106,452,507,297,195,61,84,62
105,482,504,274,237,72,89,65
83,391,548,229,245,84,84,65
77,369,531,205,234,81,82,64
87,373,489,210,260,86,82,68
79,374,515,208,279,89,82,68
94,375,558,230,250,85,77,77
92,344,555,220,234,74,67,69
113,404,650,254,268,76,72,75
111,445,722,270,246,72,72,70
116,442,706,260,220,72,69,69
113,467,669,243,248,71,72,61
123,475,720,308,268,78,114,88
113,500,652,279,238,74,112,84
115,470,597,273,243,73,115,88
131,479,589,315,267,70,123,95
121,429,566,323,242,67,120,90
109,409,514,260,210,69,85,67
128,471,579,318,236,72,88,73
124,458,559,308,251,80,90,72
103,431,565,259,221,88,73,60
110,428,620,282,234,96,76,66
116,444,603,294,249,89,74,69
84,275,505,223,232,88,68,60
96,348,558,230,236,101,68,64
93,336,543,261,253,96,69,64
83,330,495,216,228,85,62,57
72,309,530,244,246,92,52,45
84,399,578,254,252,98,58,46
81,403,642,263,227,81,64,45
81,407,659,265,227,89,67,46
83,420,654,283,237,102,68,48
83,424,582,242,220,95,71,53
80,367,640,276,198,87,66,53
70,300,554,264,223,94,56,49
79,351,619,253,228,99,60,53
85,336,610,252,228,93,59,56
83,329,605,254,242,92,52,51
74,320,595,229,258,102,57,53
78,339,595,238,233,93,57,51
77,332,534,233,220,76,53,51
69,345,541,224,244,89,49,44
73,364,594,220,220,95,49,47
72,343,495,208,208,84,46,41
78,385,578,214,215,86,47,48
72,357,562,252,207,94,53,42
72,355,570,255,245,81,57,45
73,393,522,267,269,76,61,44
86,454,547,255,264,77,60,49
92,446,462,242,275,77,70,51
91,435,462,189,305,70,61,52
103,456,487,190,286,62,76,59
103,411,563,163,252,61,78,62
106,382,614,203,286,67,80,63
112,365,599,229,310,74,71,62
111,368,588,236,282,73,73,61
104,400,638,268,241,76,58,54
109,403,626,301,258,77,53,54
100,376,576,308,223,71,51,50
85,346,572,288,181,65,62,51
85,334,588,296,204,66,66,51
82,307,590,299,222,75,72,54
77,341,556,357,243,77,81,55
73,339,651,429,278,77,83,56
75,384,668,488,276,81,89,51
88,395,682,503,263,84,100,62
94,370,703,524,311,78,101,62
92,328,726,471,295,80,95,59
91,334,681,417,272,81,94,61
110,391,745,375,292,84,87,68
100,395,725,357,295,79,76,59
97,383,637,302,247,82,71,58
132,430,687,311,286,89,98,80
132,410,683,295,281,88,95,77
112,400,737,350,253,77,100,76
111,381,738,347,264,79,97,75
110,399,764,366,263,69,98,73
66,390,747,364,235,54,76,53
67,398,760,372,238,65,79,53
95,317,726,349,250,83,87,67
104,346,765,416,274,86,101,77
110,311,766,398,281,88,99,79
117,308,734,437,282,89,104,82
119,315,730,465,337,94,118,90
106,298,674,433,370,85,124,83
98,284,627,367,340,86,116,75
91,317,663,387,325,87,119,73
90,335,616,391,312,86,116,70
104,363,543,364,246,77,129,80
99,368,514,353,198,76,115,76
101,363,536,345,201,68,112,77
120,365,471,345,234,84,139,99
115,357,505,285,235,84,134,97
102,341,504,250,242,82,108,82
103,394,575,272,225,81,105,78
113,425,610,274,227,84,109,82
93,445,626,245,194,71,67,53
95,451,613,244,187,73,69,53
158,528,752,378,207,92,110,91
159,495,681,365,218,88,111,92
151,471,621,365,210,90,104,86
153,455,655,392,220,92,107,91
182,581,710,414,223,92,112,101
138,507,586,285,191,77,70,72
144,573,621,275,185,78,71,71
148,582,640,276,231,84,71,72
159,624,604,236,213,79,72,76
130,486,569,235,199,75,67,65
126,495,585,267,197,69,74,65
115,416,532,258,202,72,70,62
118,465,653,268,170,59,78,64
101,411,655,299,193,71,71,53
90,429,680,285,207,75,73,51
90,427,666,262,251,77,77,51
87,431,682,296,266,79,76,48
89,373,557,277,267,84,72,51
87,367,633,272,258,74,75,52
88,350,588,267,257,70,66,48
95,374,688,338,249,74,68,54
97,373,707,346,245,70,70,58
108,378,729,362,243,71,82,69
113,385,648,346,247,67,82,73
133,474,656,433,252,75,121,92
137,473,552,382,268,86,119,92
159,549,626,396,259,88,128,100
148,587,674,411,253,91,121,88
152,601,684,419,253,95,120,87
137,532,735,352,239,92,92,72
125,508,800,416,190,81,94,66
97,460,780,412,183,82,92,57
91,400,732,409,192,75,97,63
114,468,761,455,214,89,108,74
112,456,798,471,229,97,105,73
136,562,763,478,240,95,112,84
155,575,771,500,252,94,112,88
157,618,873,546,283,100,107,85
161,630,920,515,314,101,115,91
169,661,870,500,315,92,119,92
159,626,942,466,317,96,115,89
142,602,905,439,327,98,116,86
172,648,845,410,295,90,140,102
163,605,749,390,241,69,125,91
156,586,754,368,230,69,130,90
155,566,601,351,232,66,130,90
161,599,676,338,232,65,130,88
225,714,718,387,256,87,158,127
226,694,812,440,269,90,165,132
237,718,839,500,287,94,165,138
245,728,883,514,283,95,161,139
250,754,854,545,278,91,165,142
196,659,875,554,274,74,138,110
201,712,844,512,267,73,131,106
218,787,882,512,292,82,153,116
227,800,874,503,305,87,166,122
215,762,829,451,284,88,155,116
210,746,815,459,274,86,156,111
243,746,776,493,326,89,170,130
230,714,690,436,295,77,145,115
216,663,704,455,288,70,135,105
215,632,695,455,297,74,134,106
197,561,613,341,288,75,115,100
165,567,755,351,231,93,103,84
147,453,742,334,214,92,98,80
151,549,791,366,219,96,106,88
166,570,834,385,210,98,121,100
172,568,856,389,207,94,116,97
143,484,735,348,217,74,102,84
143,532,777,349,234,75,104,89
128,432,703,301,211,67,85,75
129,416,764,345,260,63,106,87
120,423,722,339,264,71,110,89
147,451,712,316,250,77,131,104
151,390,638,375,277,82,141,106
167,421,660,378,297,88,175,124
162,448,574,381,278,90,177,117
180,484,566,412,281,89,189,127
174,462,664,455,286,94,197,137
172,487,654,412,274,88,188,133
159,520,703,383,242,82,155,116
150,521,763,350,214,89,131,109
137,489,772,329,215,84,116,101
116,509,702,285,247,71,78,70
160,555,858,376,243,76,96,91
160,509,829,380,248,83,98,93
161,523,760,391,251,71,100,89
153,509,751,416,268,69,97,81
154,507,794,413,267,79,93,79
106,475,691,355,273,84,72,51
117,520,778,366,289,79,76,50
125,501,790,322,292,76,66,55
134,548,944,397,276,83,86,71
133,533,896,421,248,74,94,75
128,494,836,417,217,65,95,75
115,428,701,399,191,61,90,72
98,397,656,401,219,74,91,67
83,314,434,307,258,79,63,49
73,291,527,257,256,81,53,45
79,310,545,222,258,83,57,50
74,311,591,232,299,92,62,52
72,306,604,232,283,83,58,48
76,363,639,235,256,80,68,53
74,348,595,244,257,79,69,51
72,333,651,323,274,75,72,47
75,352,602,318,229,65,73,47
83,423,683,334,215,64,76,53
80,394,697,307,241,63,64,46
82,400,690,297,242,70,62,45
82,388,644,235,248,71,55,49
93,364,671,241,253,77,61,55
90,301,601,235,293,76,59,54
91,279,559,248,256,72,63,55
91,263,535,254,246,75,68,57
95,327,530,254,283,88,71,55
102,391,544,270,303,100,66,55
98,388,542,261,271,101,66,54
96,400,503,259,268,99,64,54
104,425,523,257,288,92,66,60
100,386,563,261,228,77,60,57
86,413,575,259,195,53,60,50
90,414,592,259,198,55,68,53
83,402,690,316,218,57,73,53
75,402,672,314,190,65,65,46
73,419,705,298,186,66,67,48
67,315,677,281,182,66,62,48
64,315,659,272,177,64,55,46
70,356,594,181,147,63,47,44
79,345,684,185,141,64,76,62
84,350,599,206,158,68,77,63
82,352,576,192,178,73,75,60
87,381,590,205,179,74,79,61
84,346,554,207,195,74,80,64
71,372,442,239,210,71,76,52
65,345,478,240,216,72,78,49
68,369,530,254,206,68,87,56
59,341,542,320,248,72,85,55
63,377,527,337,289,71,88,53
63,340,509,314,294,64,70,46
81,397,527,298,280,59,70,53
93,413,489,305,297,63,66,49
110,431,528,281,262,69,73,56
106,398,508,265,206,64,70,53
106,404,519,267,190,66,69,53
93,351,517,280,204,65,63,48
89,370,525,256,182,63,69,55
76,389,459,205,170,47,59,49
79,385,458,195,177,57,61,52
90,394,542,218,195,62,73,64
86,383,489,208,206,73,76,63
78,388,497,240,217,70,73,59
77,367,515,256,258,77,78,59
82,382,609,304,253,81,85,62
73,379,652,430,255,82,89,55
78,421,795,464,250,73,92,56
77,389,879,527,257,73,96,59
72,344,866,521,226,69,95,61
66,336,828,496,219,59,89,58
68,322,723,375,198,53,77,54
81,296,605,334,174,59,76,58
102,306,511,191,166,58,73,62
115,363,497,169,172,59,70,62
129,399,498,174,192,63,70,67
151,486,515,179,188,68,71,71
149,500,566,204,195,63,67,68
133,482,521,211,186,71,53,56
124,466,637,260,213,79,63,60
121,470,639,257,208,74,67,60
101,421,672,275,211,72,75,63
112,431,626,285,225,72,77,65
114,426,703,339,222,71,81,67
115,409,627,314,206,69,73,60
114,425,664,342,214,79,93,68
108,404,669,329,215,74,86,64
96,394,691,338,195,73,85,62
99,409,611,297,205,69,88,63
96,418,605,294,234,66,87,63
94,431,693,378,256,59,78,55
96,424,678,401,260,59,81,55
91,417,641,374,254,61,77,52
85,395,622,363,244,71,72,50
99,474,674,363,201,86,78,53
86,402,524,238,159,88,61,48
107,409,537,234,153,96,91,73
105,409,560,215,163,98,91,73
132,514,670,243,177,101,97,85
123,425,602,232,184,84,94,85
124,435,618,245,194,83,94,84
101,423,597,281,219,88,70,64
107,423,639,284,211,91,72,67
79,297,633,285,209,83,68,55
71,318,634,295,208,85,62,49
73,304,651,282,203,82,61,51
70,287,637,205,173,67,53,47
61,315,627,261,238,60,58,48
58,302,535,239,231,58,65,50
67,315,561,233,215,58,83,60
79,364,502,282,316,76,89,63
87,380,566,288,323,83,94,68
87,342,509,238,318,84,89,63
83,343,497,244,364,88,78,58
80,330,495,262,372,89,62,49
63,270,591,225,288,75,55,42
64,253,505,218,291,70,48,42
62,229,469,212,258,69,47,42
64,252,468,216,189,72,55,46
85,262,540,205,215,74,73,63
92,284,449,195,228,80,75,65
86,327,515,209,230,77,74,62
86,328,568,252,241,75,77,62
85,322,575,229,244,67,73,58
64,321,485,219,226,72,56,39
64,348,551,241,217,67,59,40
73,313,556,232,267,68,67,49
89,352,553,234,260,79,68,54
92,359,564,239,250,79,67,55
91,330,637,266,260,70,70,56
88,351,610,259,293,74,69,55
85,349,551,257,248,74,61,46
71,308,546,248,246,67,61,46
68,286,526,246,264,66,62,46
66,290,489,230,242,79,54,45
70,211,448,214,199,77,53,47
60,190,464,215,209,78,51,47
54,200,451,191,214,76,47,40
63,224,488,199,210,85,51,44
71,262,430,209,274,86,59,48
81,330,420,225,288,84,63,52
84,331,426,232,278,86,63,53
91,335,392,225,273,88,64,56
90,332,348,214,273,80,60,52
85,328,414,204,236,73,54,49
71,254,411,200,232,86,45,38
73,274,502,228,254,90,63,43
66,274,512,244,262,88,65,41
57,256,511,243,252,85,65,40
58,239,484,232,223,86,66,41
58,243,509,241,212,77,67,45
58,225,403,212,191,71,54,44
73,282,418,207,182,68,59,48
76,310,490,226,202,84,60,48
