27,98,141,105,55,77,52,28
27,97,145,107,53,77,55,27
29,110,161,110,48,57,48,25
30,114,167,107,48,70,57,27
32,119,149,78,41,72,57,27
33,131,141,103,47,78,59,25
34,149,199,122,46,78,58,26
33,145,194,121,46,76,59,26
33,141,241,143,46,70,50,24
35,164,248,145,47,66,43,24
33,140,242,121,38,60,41,25
34,148,286,153,51,62,42,28
38,173,320,166,51,68,44,32
49,220,295,151,51,65,48,33
48,214,301,150,55,66,50,33
46,216,310,161,58,88,53,32
45,202,265,113,50,121,63,29
41,179,229,106,51,137,68,27
26,128,233,122,53,140,65,25
29,128,235,125,58,140,65,26
29,130,224,109,57,129,62,27
30,128,196,118,58,173,70,32
33,168,219,124,57,163,64,31
32,160,207,109,57,163,68,31
28,142,191,104,48,167,69,32
29,144,181,104,48,168,72,32
29,157,207,98,41,92,54,27
26,126,199,86,40,86,54,27
29,136,222,86,43,79,50,30
29,145,240,104,40,64,48,29
29,140,243,106,43,86,51,28
30,122,211,101,47,112,59,31
33,142,260,104,45,118,59,32
32,139,252,114,40,126,60,30
35,137,245,117,48,130,64,31
34,145,247,118,45,121,61,33
34,154,246,118,43,125,62,31
30,137,175,113,53,120,62,29
33,147,205,127,58,118,65,31
28,138,206,112,53,113,59,27
28,129,200,105,52,105,64,26
27,125,200,112,53,69,62,28
26,108,196,115,47,64,61,27
30,101,169,110,44,75,62,27
33,141,177,108,43,81,62,29
35,153,198,108,43,81,57,29
36,150,205,101,43,81,51,27
37,157,238,128,45,83,50,27
38,197,265,117,50,66,45,28
35,176,253,120,51,73,49,26
34,166,245,137,55,85,54,24
32,163,241,138,56,88,58,24
35,178,220,110,55,88,60,25
29,138,164,112,55,88,59,23
30,134,180,126,60,97,61,26
33,143,175,107,61,129,68,28
34,150,175,111,61,133,66,28
34,138,189,120,57,139,66,28
42,149,256,172,67,142,73,30
45,160,274,162,64,131,70,31
44,153,283,166,67,117,69,32
45,157,293,166,65,115,68,33
45,178,284,154,65,110,67,33
38,160,232,94,49,104,56,30
35,177,202,118,53,104,60,30
36,191,210,125,47,70,45,28
36,186,193,123,48,61,46,27
33,157,184,125,50,65,49,28
33,149,163,113,49,62,50,28
32,111,176,100,43,63,50,27
28,80,163,100,43,66,52,26
26,74,215,126,51,62,53,25
26,86,239,164,67,57,54,24
31,115,254,172,73,58,54,24
32,129,252,181,73,63,52,24
36,133,258,180,73,59,48,24
37,134,221,173,70,57,49,25
35,134,224,142,55,57,45,24
32,128,218,137,48,64,45,24
31,128,219,115,49,79,58,26
27,124,195,102,48,81,60,26
30,154,209,93,48,82,56,26
34,195,231,135,57,83,58,27
32,200,238,136,64,92,64,27
34,194,223,132,63,91,52,24
39,223,251,149,64,94,54,26
38,209,246,144,61,103,62,28
41,166,205,106,58,102,66,30
41,150,208,119,57,91,61,32
40,153,231,126,65,78,59,34
42,125,214,109,71,106,85,37
41,114,215,120,71,110,87,36
36,131,222,121,69,110,87,35
42,177,224,140,72,112,89,34
41,174,191,134,63,120,94,35
38,176,204,145,61,114,74,32
38,183,195,134,60,118,69,33
39,189,187,136,60,123,66,31
31,151,207,130,53,125,63,28
32,165,242,158,60,127,64,29
30,150,220,151,60,130,67,27
30,142,217,152,66,136,85,32
29,116,203,147,68,136,89,32
29,113,155,130,68,139,92,33
29,117,165,96,62,136,86,31
31,132,247,109,64,146,92,32
29,131,289,155,64,136,80,28
32,134,292,155,62,146,77,28
32,132,314,157,61,148,76,27
38,174,376,194,67,153,88,30
39,168,360,205,70,233,110,34
40,184,338,172,67,330,121,35
48,212,341,177,77,424,164,46
48,225,326,171,79,431,167,46
56,214,320,158,75,453,165,50
55,210,306,150,68,436,153,48
55,199,325,162,71,489,150,49
53,175,341,172,68,427,105,46
55,173,340,174,70,434,105,48
45,140,248,149,80,455,122,45
44,160,246,184,93,447,120,44
45,167,241,196,93,343,121,43
44,187,224,184,93,346,129,37
44,208,234,184,93,345,137,35
43,220,231,185,88,333,130,35
46,211,210,139,86,319,131,34
47,215,173,103,86,330,142,36
42,202,169,106,82,316,144,34
44,173,191,133,89,350,146,37
47,144,206,128,90,333,149,41
47,147,217,132,83,349,148,46
54,194,247,140,81,317,137,49
55,191,245,149,87,324,148,53
56,186,254,126,81,295,147,51
50,198,256,147,83,265,137,45
53,220,259,136,80,238,131,43
42,175,281,153,79,238,135,41
58,197,283,141,75,215,109,36
57,210,317,166,77,182,96,37
64,232,341,158,76,224,99,42
62,207,333,169,80,222,99,40
66,204,301,157,91,211,99,40
52,205,333,182,89,209,100,40
62,195,289,175,85,202,102,42
61,173,267,190,85,149,110,38
62,173,262,186,84,177,121,39
58,167,259,182,73,175,110,37
58,139,209,160,73,190,115,40
46,184,208,151,80,193,116,40
40,179,239,138,78,186,101,40
35,197,308,160,78,175,94,42
44,273,326,161,85,197,100,42
48,313,343,165,83,217,93,38
51,303,331,151,74,218,91,39
55,331,344,138,71,241,100,41
60,342,326,119,64,237,94,40
58,293,331,121,49,268,103,44
63,295,335,118,59,254,115,50
59,286,357,121,59,248,118,49
59,269,377,160,65,236,116,51
58,289,389,153,78,232,115,49
55,298,391,160,89,206,107,45
46,260,399,165,87,196,88,39
62,338,452,200,89,196,81,38
60,328,433,181,88,190,77,32
62,326,413,179,81,193,87,32
63,319,404,185,77,159,86,31
68,320,390,177,73,149,87,32
56,242,335,160,75,153,87,30
57,257,426,173,80,145,87,34
57,226,441,174,82,145,85,38
59,225,435,160,77,143,79,39
64,257,447,165,82,155,86,43
63,286,457,163,83,156,86,46
65,265,372,144,75,174,91,138
80,343,354,158,75,159,93,155
89,351,359,155,75,152,97,162
84,331,355,155,70,134,88,164
87,304,321,146,172,131,89,164
83,304,289,150,235,128,87,100
70,220,300,129,257,141,78,67
62,254,361,136,257,140,76,50
74,270,353,130,258,139,85,186
84,336,362,110,205,139,89,199
93,355,375,113,129,135,81,204
92,348,357,112,72,120,78,207
90,315,270,101,74,112,76,210
78,299,277,115,78,126,76,110
78,279,273,130,186,123,65,85
77,284,297,119,211,107,63,72
82,313,300,117,218,116,76,61
83,333,315,119,217,129,82,51
84,329,291,107,215,122,79,40
87,302,326,152,133,118,83,42
80,289,283,144,83,113,87,42
71,247,263,144,70,105,75,45
69,230,262,140,71,161,75,48
74,253,264,146,78,170,85,49
64,217,182,90,70,172,82,42
67,238,220,110,71,171,77,39
70,244,257,120,69,186,82,40
80,269,248,129,73,210,92,43
75,286,252,128,64,201,82,40
69,287,278,140,67,203,81,47
73,272,277,128,68,210,87,48
84,316,259,144,75,199,90,53
73,283,260,143,71,138,73,49
73,254,262,140,71,148,73,52
74,286,265,144,68,148,72,48
72,304,250,160,64,141,64,46
54,247,251,144,56,134,54,37
53,252,245,136,49,120,60,37
52,263,273,155,49,134,66,35
49,236,308,183,48,131,67,33
45,288,351,181,49,133,69,33
46,312,359,196,50,153,75,31
53,308,364,201,54,144,68,33
51,296,351,184,59,122,69,32
60,297,345,166,60,126,84,32
66,266,334,160,64,126,91,38
69,305,327,136,62,114,93,42
80,310,362,160,62,108,94,43
80,304,353,162,58,125,96,42
73,326,318,133,58,120,84,43
66,319,395,171,57,115,75,37
67,265,406,179,62,114,68,36
49,283,370,150,64,123,73,34
48,275,386,158,62,104,61,33
56,241,381,174,62,107,63,30
58,195,279,142,63,106,68,33
62,220,262,131,56,120,66,34
59,205,286,156,53,114,61,30
62,226,268,157,56,117,68,34
58,255,276,149,51,119,70,37
62,296,267,150,56,125,71,38
56,274,255,161,57,96,70,37
56,267,242,137,55,96,65,38
52,253,262,142,56,95,73,35
49,243,258,138,59,88,69,32
41,196,321,170,57,85,63,26
42,226,335,168,58,90,65,30
47,245,336,173,62,111,84,35
49,250,318,167,59,102,72,36
46,236,325,163,59,103,74,38
46,223,240,117,56,102,74,38
40,201,316,160,63,115,73,35
36,204,337,162,71,104,66,31
34,194,344,160,70,105,67,31
43,212,350,165,69,108,67,30
44,235,369,183,71,107,66,29
48,237,318,148,62,89,65,27
76,343,492,211,47,81,49,34
78,350,492,210,54,129,57,35
73,338,479,207,52,134,57,35
72,333,472,200,49,133,55,37
77,346,503,245,60,137,60,42
53,221,357,239,70,143,68,37
59,208,350,241,67,125,64,39
64,230,347,240,66,120,68,41
68,257,364,246,67,119,70,45
67,278,330,210,67,128,70,45
70,287,282,167,57,116,65,48
65,301,297,166,55,99,59,46
63,290,298,166,56,96,52,44
67,336,372,184,60,99,52,40
65,302,363,175,57,86,49,40
59,307,370,175,63,99,48,38
64,335,386,182,69,95,52,38
61,325,388,187,68,97,50,38
51,238,291,147,63,94,49,37
51,252,307,158,64,97,54,37
48,230,287,138,56,79,52,33
38,157,240,123,47,70,48,30
37,162,239,118,49,71,51,28
53,206,250,131,55,131,62,36
49,168,285,138,47,131,54,30
51,186,296,154,51,135,59,33
58,205,307,161,57,136,63,36
59,225,344,167,55,135,61,38
51,235,357,179,56,84,53,38
54,241,283,156,57,81,54,40
52,233,271,140,52,76,53,39
50,234,284,151,49,104,50,37
51,223,256,145,48,104,49,34
48,194,214,110,35,102,44,28
44,191,215,121,32,99,48,25
54,274,239,144,40,106,49,30
53,275,214,126,39,84,51,30
52,281,192,126,42,82,51,31
48,268,185,127,42,76,51,28
50,274,257,159,46,80,50,28
41,192,234,140,40,85,49,24
41,203,243,136,40,84,49,24
44,194,237,133,39,89,51,25
47,237,251,134,42,95,50,28
44,235,224,104,46,93,52,30
45,252,241,106,47,92,48,30
51,252,225,114,56,95,55,32
47,245,235,123,55,90,67,32
45,206,215,124,53,85,70,32
49,241,279,127,50,87,68,31
48,236,307,143,50,88,70,35
44,226,316,145,43,89,70,36
44,223,318,141,44,92,57,35
46,230,342,156,44,93,57,34
50,196,297,157,55,93,65,44
49,178,264,147,58,91,66,41
44,156,250,137,56,86,63,37
45,167,247,132,57,92,67,39
44,202,297,139,60,89,66,39
47,276,411,182,51,87,55,27
49,286,440,201,49,75,51,26
51,288,461,234,50,105,56,28
52,285,465,239,48,99,51,27
58,297,438,236,50,99,53,31
54,219,349,209,45,100,54,29
50,201,302,191,47,100,55,29
47,194,271,150,43,68,42,28
46,211,279,143,45,66,44,30
45,180,277,156,48,67,39,27
40,173,232,127,47,67,40,26
44,185,235,126,42,67,37,28
45,190,281,179,46,75,40,28
46,171,298,193,49,72,40,28
38,155,336,181,39,72,40,28
36,163,365,207,47,79,43,27
35,151,374,220,52,92,48,26
37,163,379,211,56,83,47,27
41,216,413,217,58,81,44,25
44,234,438,245,61,80,44,26
46,233,418,254,61,75,48,26
44,233,414,246,59,90,53,27
44,233,387,229,55,89,53,28
52,233,330,244,55,90,54,32
56,226,269,221,55,97,57,34
62,271,315,217,51,102,53,37
67,298,327,216,52,89,49,38
72,306,328,209,53,102,55,39
103,350,349,186,52,114,62,48
110,338,353,175,51,142,72,48
113,307,330,160,51,171,77,46
116,310,369,168,59,306,119,49
114,321,388,169,63,316,123,50
90,290,425,185,61,320,124,44
80,306,449,205,63,313,121,42
70,303,420,197,62,304,120,42
66,307,433,193,58,216,82,38
61,280,426,191,51,197,73,35
51,232,378,161,47,191,65,31
46,270,452,228,48,182,60,28
52,272,476,224,50,172,59,31
43,234,424,244,48,106,55,29
44,273,461,254,49,101,50,29
46,289,484,267,50,85,51,26
52,250,423,265,48,80,65,26
48,243,396,265,47,93,64,24
49,247,395,240,45,94,66,24
50,212,345,228,42,94,66,24
49,187,313,234,47,94,67,26
42,187,318,145,50,101,52,25
41,221,346,143,49,96,53,26
42,230,342,146,48,104,55,27
41,242,334,162,50,114,58,27
50,289,419,169,66,120,65,38
51,283,354,170,64,118,66,40
53,283,347,166,62,105,64,40
53,270,348,163,70,96,61,40
54,267,375,177,72,84,64,41
49,212,257,140,55,80,56,32
48,194,269,143,53,73,59,31
44,171,254,166,58,76,61,28
43,174,249,171,52,75,65,29
40,175,218,140,48,82,63,30
45,218,314,217,61,98,65,30
47,254,316,213,60,102,60,30
49,257,315,202,57,101,62,31
51,259,321,199,60,99,59,33
56,286,388,241,62,103,58,33
53,266,357,193,50,89,56,34
50,228,340,198,51,101,64,34
49,214,339,200,51,123,71,35
48,215,336,199,46,129,72,31
48,205,297,156,47,153,84,33
42,189,271,149,50,160,86,32
41,198,279,142,51,156,83,34
48,234,281,130,53,141,77,37
51,244,309,145,55,136,73,36
51,247,321,164,58,125,58,36
52,272,331,173,62,119,58,36
57,284,324,169,61,120,62,34
52,278,360,195,59,143,70,33
53,290,358,188,58,148,69,33
54,264,333,168,54,138,73,35
51,242,313,168,50,134,73,33
49,222,321,189,56,139,70,34
48,198,292,178,55,129,66,33
46,162,299,222,65,121,68,36
39,166,282,223,62,110,66,32
48,189,332,232,60,115,64,33
45,187,322,219,58,118,74,32
44,201,370,219,56,104,67,30
45,239,374,192,47,103,64,30
54,237,429,206,48,99,62,34
52,232,429,181,56,90,61,59
62,240,446,179,58,115,62,171
68,274,447,184,62,115,76,244
80,303,484,182,67,118,83,298
79,297,519,198,68,129,86,311
82,286,498,196,60,144,90,334
77,289,510,211,57,124,81,305
77,273,481,205,55,146,72,258
66,231,468,190,52,154,69,212
66,243,404,161,53,158,72,218
58,252,395,164,54,151,74,181
58,243,368,152,52,146,73,167
55,258,415,174,53,150,69,159
58,270,416,182,54,146,75,135
53,261,426,206,53,138,72,88
56,266,419,246,59,136,75,71
54,264,414,249,61,156,87,78
48,217,367,229,60,129,86,71
42,173,387,249,62,123,77,69
38,158,371,218,58,117,76,68
39,145,373,167,52,113,71,67
40,147,413,187,52,87,64,40
40,149,406,184,51,84,67,37
42,152,356,168,44,87,65,32
56,182,434,197,54,85,71,40
52,163,485,226,57,112,69,38
53,165,448,198,54,103,60,49
53,153,440,201,51,104,56,52
54,170,435,191,52,101,56,53
48,158,328,182,50,100,49,52
48,160,238,159,48,65,46,52
47,161,262,181,52,79,47,40
46,178,271,176,52,85,52,37
57,205,300,219,56,87,59,45
55,230,331,212,51,93,59,41
55,233,371,211,54,98,62,43
56,248,362,200,51,85,63,42
63,288,378,208,59,91,69,55
55,261,352,155,54,88,64,52
51,226,321,145,53,81,60,52
59,229,314,161,69,77,66,55
60,243,376,163,70,98,66,59
54,198,377,154,63,89,60,49
49,207,399,147,65,105,68,46
59,226,470,162,67,107,76,63
56,237,486,124,48,114,70,61
60,247,497,108,47,102,69,59
59,250,523,113,46,108,67,59
64,300,615,163,51,116,63,61
57,285,561,145,45,123,56,41
61,282,531,147,46,119,59,40
55,252,481,156,46,116,58,37
57,255,451,149,48,110,58,38
52,205,357,118,43,92,56,49
52,214,353,122,45,84,54,49
41,190,344,119,41,84,48,50
40,181,328,108,39,84,52,51
42,153,322,113,41,79,52,52
53,230,364,155,42,86,55,43
61,264,378,189,53,97,55,42
71,281,408,272,71,107,63,42
73,285,421,279,72,103,62,41
72,300,448,311,75,106,64,38
64,246,338,289,75,107,64,33
57,223,320,270,70,113,66,33
48,226,315,241,58,103,58,32
43,228,318,244,58,105,52,30
42,211,252,202,52,110,50,30
40,187,282,198,50,102,44,28
48,184,317,232,50,82,40,27
42,165,287,180,41,78,36,23
49,189,299,192,48,74,43,29
50,213,341,213,57,90,62,31
50,224,327,210,55,86,62,31
44,216,351,189,56,123,64,32
46,216,346,189,57,128,65,32
41,214,340,187,56,130,66,32
41,186,388,208,50,113,47,29
39,176,397,211,50,114,48,31
36,179,371,200,51,79,58,30
35,180,370,214,56,86,62,32
32,149,358,204,57,84,59,28
45,219,283,171,56,83,60,30
47,224,266,170,57,81,60,28
48,216,226,157,54,79,50,27
46,218,231,138,52,67,47,26
57,256,232,138,50,69,48,28
48,213,251,146,54,66,47,27
45,206,269,141,52,62,45,27
47,209,261,139,51,72,46,28
51,213,264,148,48,80,47,27
41,182,308,141,50,78,47,27
52,281,394,171,51,82,51,31
53,276,385,184,54,83,53,32
51,275,385,190,55,90,64,34
48,262,377,178,55,99,62,34
44,252,372,218,50,104,62,33
48,202,288,211,51,104,60,34
54,233,326,235,51,113,64,34
54,236,331,233,50,106,57,33
59,254,335,235,51,95,62,37
61,261,331,229,63,89,63,38
47,209,312,202,56,89,59,32
42,181,300,165,57,77,54,31
45,239,330,185,56,69,50,33
38,251,412,204,54,65,49,30
39,255,461,192,54,70,53,33
41,263,502,241,59,66,57,34
42,274,493,237,57,84,64,35
36,215,472,221,56,84,64,31
39,188,407,202,58,83,62,31
39,213,348,183,45,82,54,27
44,218,340,138,50,82,55,32
49,224,360,172,50,63,49,32
53,231,371,174,50,67,47,33
50,227,359,180,50,77,50,32
48,203,349,177,49,75,54,34
44,196,273,161,41,76,52,30
36,203,238,150,48,78,52,28
43,238,231,151,50,75,51,29
47,280,244,153,49,93,56,30
49,280,220,148,48,92,56,29
48,267,242,171,49,96,53,29
50,252,267,193,43,98,52,28
42,224,275,192,42,98,57,28
42,197,273,184,41,94,51,28
43,197,278,191,45,99,51,27
41,198,277,164,41,114,50,25
42,189,278,141,45,113,51,27
42,193,282,178,44,128,55,26
49,231,299,183,46,128,61,27
47,237,286,181,46,132,65,26
53,282,294,201,47,118,67,28
52,289,266,196,44,117,65,28
56,281,304,163,42,96,56,29
52,271,378,182,43,71,49,31
58,294,401,190,55,99,46,34
53,251,415,186,53,99,46,34
54,262,413,173,53,114,46,34
52,274,407,183,56,117,47,34
55,252,331,189,58,116,50,36
49,224,346,202,62,104,64,34
53,231,331,199,63,114,72,33
53,235,341,203,63,116,75,36
57,277,349,198,63,116,76,36
49,267,407,213,65,129,75,31
55,276,448,204,55,125,71,34
52,301,437,187,55,125,75,34
49,307,447,186,56,121,80,31
51,272,433,225,60,123,83,34
51,270,423,205,55,127,84,34
46,263,355,190,51,116,77,32
50,251,388,212,50,114,69,33
55,258,402,228,54,109,66,39
49,255,378,192,49,128,72,36
50,259,322,184,48,113,70,38
55,286,337,218,54,122,71,39
55,275,303,206,56,118,68,38
51,243,294,196,56,113,63,34
51,238,322,194,56,91,53,36
47,230,327,194,54,90,54,35
46,186,316,192,50,78,56,32
41,182,319,186,51,71,57,32
39,174,302,169,46,64,56,30
42,168,303,164,49,99,64,30
44,174,358,212,55,99,60,29
39,166,341,184,56,96,53,27
43,179,327,182,53,95,56,27
56,223,326,196,60,96,57,32
53,219,318,209,60,54,47,29
52,207,246,146,55,64,53,29
53,240,248,142,50,72,57,30
51,229,251,143,51,70,53,30
38,188,245,173,49,71,54,26
37,192,235,192,59,68,57,30
37,200,229,193,59,62,55,29
37,172,231,204,63,72,57,33
45,192,235,209,65,75,60,35
45,200,233,180,64,79,61,38
46,209,240,157,51,78,56,35
47,211,259,174,51,75,51,35
45,202,318,180,48,65,54,34
36,208,348,188,45,59,50,33
40,206,333,182,38,53,45,32
47,213,317,166,41,57,46,32
49,208,321,172,43,72,49,32
49,240,297,150,42,67,47,30
54,261,344,147,41,71,51,29
51,253,378,172,41,70,50,25
44,233,378,172,38,68,49,25
43,231,362,148,35,62,48,25
47,211,359,193,39,70,46,28
45,163,301,184,38,71,41,26
46,195,266,189,47,71,43,25
47,203,282,191,47,71,44,26
47,201,295,207,51,65,44,27
45,214,332,198,50,56,39,25
42,208,308,196,49,51,39,25
42,209,343,170,41,53,37,25
44,230,337,176,40,51,35,23
47,257,329,157,41,47,34,24
43,236,254,104,38,63,41,24
44,230,270,113,46,76,47,28
42,206,211,121,46,77,47,26
43,200,225,126,50,79,49,31
40,172,222,128,46,78,47,28
39,169,271,174,56,72,48,31
40,181,277,171,51,65,44,30
49,232,302,187,52,63,44,33
48,220,307,196,48,59,43,30
47,235,329,214,49,61,45,32
48,251,296,179,33,65,36,29
45,244,303,180,37,64,40,27
44,253,323,160,40,68,40,27
52,294,366,166,45,70,42,29
57,310,380,157,51,70,44,31
58,303,383,155,52,59,43,31
57,305,360,149,48,56,39,32
50,261,318,155,49,56,39,30
45,235,258,127,50,53,43,31
47,219,272,163,69,58,49,34
47,209,263,167,71,61,49,35
46,200,257,173,75,63,47,34
49,208,332,217,78,65,47,36
48,184,323,215,76,65,42,33
40,162,304,175,54,60,30,28
37,175,311,175,51,62,33,28
41,195,324,189,52,71,37,29
44,195,259,129,44,71,37,28
45,182,267,181,50,72,40,28
47,174,241,189,51,74,41,28
48,179,230,184,52,133,58,27
56,216,244,169,48,129,58,31
57,253,238,180,48,131,58,29
54,281,312,141,39,133,60,29
54,286,300,129,37,132,59,31
63,276,313,127,38,101,54,32
58,246,302,123,35,127,62,30
53,231,303,96,32,131,64,32
56,203,303,90,35,129,63,35
59,228,329,90,37,130,66,34
48,222,320,95,37,112,58,32
48,221,321,93,36,87,51,31
54,188,320,92,37,77,50,31
48,194,307,103,38,80,48,26
44,152,287,118,43,86,48,26
45,151,293,122,53,89,62,31
43,157,295,123,58,100,62,34
39,178,329,155,69,101,65,35
43,183,306,178,88,107,72,37
56,204,327,188,89,109,76,45
62,218,332,190,85,106,65,43
63,205,317,187,85,93,64,42
63,211,335,200,78,98,61,41
67,222,355,182,60,91,54,41
58,210,349,194,56,80,47,30
52,198,336,195,56,86,53,32
51,202,342,197,56,85,57,32
44,174,323,170,55,84,60,30
38,146,319,157,55,84,64,28
37,153,302,119,54,95,63,28
34,151,324,111,54,88,60,26
33,132,319,125,53,99,62,26
47,186,302,171,69,96,64,29
52,217,248,171,68,102,68,34
52,224,360,187,74,99,72,37
52,230,355,187,72,110,75,36
57,262,371,180,72,98,70,35
62,252,372,125,61,100,76,37
59,240,372,137,59,100,68,32
59,242,267,111,52,107,69,30
60,245,272,111,53,118,69,31
58,222,247,115,53,120,69,29
50,199,243,133,51,120,59,31
52,204,251,127,46,114,60,33
51,190,244,155,47,105,58,33
52,185,256,196,49,77,54,35
52,234,285,193,44,82,55,35
46,230,275,178,45,81,54,32
40,234,321,184,46,81,54,30
43,234,337,168,48,79,53,31
44,244,320,116,44,85,52,28
40,186,299,119,48,88,51,30
42,199,314,155,52,87,51,32
45,177,257,142,53,86,52,34
45,172,318,182,54,84,50,33
41,162,337,184,55,79,54,32
40,157,330,182,53,68,66,33
36,140,339,176,52,75,69,30
39,166,364,183,59,81,74,30
43,195,347,187,64,84,78,33
48,209,336,186,64,86,76,34
49,221,343,185,65,113,72,35
60,228,308,164,61,111,71,39
56,223,341,195,51,106,64,38
54,198,288,155,47,107,59,38
53,181,297,210,58,108,63,39
55,168,299,222,61,88,63,37
45,169,299,224,61,88,65,35
43,143,215,188,59,92,66,35
41,161,264,202,59,89,68,33
38,176,260,157,50,81,65,33
34,178,248,141,44,88,68,30
33,167,249,154,44,101,69,30
36,169,268,165,51,98,71,32
50,186,308,191,58,100,73,35
52,186,307,191,60,102,72,34
52,183,316,198,65,100,64,35
56,215,343,216,66,97,61,36
56,210,322,211,63,96,60,33
45,180,349,214,60,100,55,33
41,161,340,205,56,96,51,32
42,167,338,197,51,118,49,33
38,120,320,174,49,116,46,31
36,144,344,189,55,116,43,30
37,169,270,159,62,111,43,31
40,183,285,167,63,112,43,33
41,180,280,167,63,80,43,33
40,204,277,158,65,80,48,32
45,228,289,160,62,82,49,34
46,223,260,141,46,82,49,31
44,231,283,184,48,87,50,30
44,242,317,229,52,96,59,32
45,229,329,233,52,92,61,35
41,203,311,220,47,98,58,34
42,223,343,233,57,119,67,36
42,209,328,219,67,130,73,35
41,199,336,182,65,147,67,33
40,209,339,184,66,162,66,34
49,239,345,178,69,168,72,33
51,245,339,158,63,158,64,32
53,242,346,148,52,161,57,34
56,248,322,148,56,139,65,33
55,241,327,158,58,123,59,29
47,228,319,161,55,110,53,28
44,198,286,163,55,112,58,29
43,201,333,175,57,101,60,27
38,196,364,176,52,107,55,26
42,217,347,162,47,101,57,27
48,190,346,162,46,111,56,31
44,184,388,191,45,102,51,29
46,195,343,180,46,94,51,31
49,205,365,224,49,80,46,33
46,176,378,236,52,80,51,34
39,173,379,238,53,69,51,33
40,199,347,215,55,93,60,33
39,192,337,201,49,92,58,32
41,204,257,141,50,93,59,29
42,213,240,126,49,96,60,30
43,229,303,155,48,90,60,27
47,228,292,151,44,78,49,27
47,222,294,162,48,78,52,29
44,222,325,158,43,78,49,31
41,221,338,155,44,72,40,28
42,216,266,118,44,143,49,30
44,244,341,147,51,140,54,30
56,315,453,146,57,143,55,32
57,312,490,158,58,145,55,32
60,311,486,180,56,147,55,35
59,306,490,181,54,98,52,33
59,282,454,159,57,99,61,35
49,228,485,200,52,92,60,32
49,218,441,191,51,89,60,31
48,221,449,175,49,94,62,31
47,216,455,180,49,84,63,30
43,205,453,190,45,79,56,30
44,205,329,156,47,80,55,30
42,196,310,157,44,81,55,31
44,200,326,184,49,73,56,30
47,208,316,179,50,86,55,30
53,224,328,178,46,85,50,32
54,222,412,191,45,86,51,32
55,235,428,194,47,87,54,32
50,219,396,166,41,93,52,31
50,236,403,167,40,73,48,31
49,219,418,168,48,70,48,34
46,192,305,141,48,68,46,32
44,175,316,183,58,69,49,33
46,185,329,189,63,71,49,33
41,152,336,184,64,75,49,34
33,170,315,226,66,78,53,30
37,190,336,224,62,78,53,32
40,189,318,189,58,83,48,33
41,183,314,196,57,84,55,32
45,227,319,209,61,86,56,33
47,222,335,162,55,93,57,33
46,237,314,163,55,97,56,33
47,241,324,171,56,104,60,32
46,239,331,182,62,102,55,33
46,204,314,186,66,100,59,32
46,205,265,175,65,94,58,31
43,194,273,178,66,108,58,30
44,210,254,166,62,102,59,29
48,213,228,132,60,134,69,31
50,228,286,123,52,137,69,31
55,217,281,119,53,138,68,32
80,209,249,94,61,127,73,36
80,223,310,151,72,129,77,37
78,226,314,158,70,108,67,35
77,212,266,149,73,105,69,36
72,201,290,161,78,103,68,34
45,199,319,190,74,106,63,29
42,165,263,174,71,100,57,30
48,163,300,171,75,95,67,31
47,206,348,174,75,129,83,31
56,219,346,177,72,139,90,33
58,203,322,156,74,147,94,38
59,193,314,132,67,149,94,37
56,192,364,162,63,139,89,38
68,198,366,191,63,126,78,39
65,183,381,195,56,124,69,36
63,189,383,188,52,113,68,30
62,192,387,191,59,115,70,33
61,198,348,182,60,114,66,30
63,178,314,154,57,99,60,29
60,183,303,166,59,94,63,30
67,209,316,187,68,112,69,35
68,210,310,184,62,112,68,34
68,208,310,205,64,118,71,35
54,201,301,218,69,111,68,35
57,203,334,211,74,106,65,35
44,168,312,198,65,90,54,29
42,176,323,199,68,95,60,30
45,244,296,161,62,94,64,29
43,240,320,160,60,95,64,29
36,229,275,151,60,100,70,30
45,269,341,156,61,108,74,35
46,270,354,156,57,144,89,35
44,206,366,154,59,144,87,37
49,198,387,158,80,159,102,39
54,259,402,159,76,160,99,37
50,231,371,140,75,150,95,35
52,224,366,172,79,112,79,35
52,234,366,186,81,114,79,34
47,226,318,179,57,100,58,31
41,172,319,224,74,93,62,35
41,179,299,227,74,91,61,34
49,238,332,219,72,82,56,32
50,242,329,225,69,72,51,31
51,242,342,213,68,53,49,33
51,248,356,192,71,54,39,28
60,270,376,207,85,54,43,35
52,217,335,194,86,49,38,34
56,260,317,188,92,44,48,70
66,319,342,197,115,44,48,119
72,366,370,213,106,42,50,122
76,358,381,215,103,47,56,181
88,466,398,226,104,46,60,220
137,618,549,258,113,44,75,243
143,674,638,304,98,46,84,267
167,670,619,286,94,41,90,346
178,701,678,299,95,41,99,331
185,729,739,335,128,50,103,317
162,770,723,369,161,55,105,299
167,796,681,375,184,65,117,266
167,892,746,422,198,70,120,154
194,945,749,424,201,69,116,136
214,1004,733,442,188,66,119,119
225,893,702,408,153,63,108,107
288,922,822,441,143,57,109,111
277,863,846,421,138,53,109,107
325,900,922,438,137,65,116,111
330,880,926,425,130,64,118,107
331,928,1053,495,161,71,138,118
288,939,1076,520,145,67,130,105
324,1011,1069,501,139,70,153,123
264,977,1031,500,145,62,147,114
259,936,1041,496,172,63,150,114
255,920,998,471,161,57,138,108
246,843,914,395,168,61,149,118
193,745,912,434,177,60,122,96
190,679,856,430,169,54,119,93
180,668,963,490,187,61,118,105
172,627,850,448,192,70,115,99
180,602,800,447,188,65,96,93
194,596,748,440,189,65,103,98
191,630,815,422,203,69,102,96
184,576,656,323,167,63,87,77
208,600,698,330,158,59,89,91
200,603,703,324,163,67,86,87
195,630,745,279,154,62,70,82
206,623,690,285,138,59,72,85
219,661,779,293,141,62,84,99
213,664,752,286,137,58,87,99
204,630,790,289,160,49,86,94
196,622,794,294,157,51,88,94
170,591,764,273,154,52,85,89
145,543,791,316,150,49,86,78
133,592,811,356,156,49,82,67
134,632,765,347,118,47,78,66
137,606,687,361,119,46,78,66
135,596,683,374,120,49,83,68
125,598,506,321,130,48,70,62
95,492,440,245,109,44,58,53
91,432,421,247,113,44,60,55
82,377,436,207,111,46,59,50
80,337,398,183,109,43,54,45
67,265,361,181,134,46,55,41
60,223,335,175,134,60,61,35
55,216,277,132,130,96,61,34
54,193,235,131,127,106,63,37
51,189,236,119,124,119,71,40
51,195,235,113,67,133,82,46
50,216,358,143,86,129,85,65
49,210,424,170,94,112,105,69
55,203,436,172,108,154,113,70
56,187,453,193,115,152,113,70
60,178,476,188,124,151,114,69
63,171,404,198,117,178,112,54
61,165,353,189,117,209,103,48
51,166,352,208,125,204,118,46
51,183,354,200,129,258,128,47
54,197,360,203,133,256,124,50
54,193,362,191,144,258,130,50
54,190,340,188,144,251,139,49
55,203,368,153,133,238,127,48
68,265,519,158,133,204,132,60
71,279,520,173,138,284,163,60
68,271,523,196,150,276,165,61
78,311,644,313,163,342,168,65
80,296,642,332,162,348,162,66
87,246,574,356,155,359,155,56
94,233,563,361,148,306,124,53
116,247,546,343,136,324,131,52
116,207,410,252,122,271,142,53
119,222,386,233,139,300,161,55
109,233,348,201,144,281,156,52
97,225,421,239,139,278,153,50
72,211,434,242,124,249,139,48
59,206,418,229,119,220,115,45
56,213,441,248,100,155,84,44
57,204,467,256,97,128,77,44
55,206,384,204,91,112,76,43
49,220,384,202,87,123,69,42
50,211,382,197,82,132,68,39
44,194,338,185,87,146,85,36
44,167,298,159,79,148,90,36
43,162,299,155,79,154,91,40
53,151,285,147,79,149,102,41
53,149,282,142,76,145,99,42
74,226,330,128,67,138,94,45
75,250,357,259,82,138,94,44
80,255,390,279,86,145,91,43
77,260,410,290,90,148,79,41
79,274,425,314,90,163,80,43
64,253,454,322,89,156,75,42
61,240,419,241,80,155,73,38
53,224,382,216,74,162,78,35
51,235,385,213,75,166,81,35
51,248,380,178,81,131,79,38
63,229,320,171,81,136,77,40
62,230,314,161,77,163,88,42
65,242,340,207,80,200,97,46
64,227,313,195,74,191,97,46
63,201,295,199,87,198,99,45
53,196,307,233,97,198,100,41
61,181,276,244,97,182,90,42
63,220,362,262,103,125,78,40
64,220,365,264,106,121,83,40
66,237,385,268,95,111,73,36
61,225,350,247,86,117,77,38
54,229,343,242,87,105,76,39
52,256,296,217,83,109,78,36
52,257,297,218,80,111,72,36
47,248,291,213,74,107,72,35
51,284,343,206,67,89,66,32
58,332,414,207,74,101,71,32
55,287,375,167,73,104,71,34
53,277,366,161,73,105,73,33
56,275,348,158,72,121,82,35
50,238,319,159,78,123,80,36
43,199,290,206,68,115,75,33
43,189,296,220,64,147,83,32
43,193,314,219,62,164,85,32
41,184,314,226,76,159,79,28
55,190,349,255,79,158,79,31
52,149,301,215,80,164,80,31
56,164,299,208,86,162,86,38
54,161,281,211,89,151,86,37
58,181,285,202,79,144,82,36
51,204,356,222,81,145,83,41
52,205,350,214,84,151,84,44
49,190,345,212,80,121,70,39
50,191,342,210,79,117,64,40
53,215,384,254,84,118,67,43
52,206,272,196,73,123,64,40
49,205,275,203,67,102,61,38
54,205,277,220,70,99,64,44
56,224,286,225,69,93,65,44
52,193,238,175,60,95,63,42
54,179,265,163,65,94,72,41
61,238,287,154,65,103,71,41
56,237,297,132,61,97,66,37
55,217,297,125,68,118,76,38
51,216,288,135,73,116,82,38
49,291,338,180,78,117,85,39
47,256,329,185,88,114,88,40
46,258,312,189,86,114,84,39
44,259,310,185,79,100,77,36
45,254,313,176,82,114,76,36
41,149,244,143,81,109,66,33
35,146,242,129,68,110,59,30
42,164,245,109,71,103,60,33
46,174,247,116,75,130,72,36
50,177,276,168,76,124,74,39
48,168,264,172,73,124,78,41
48,155,282,199,81,133,89,42
44,125,273,197,80,144,95,41
40,109,278,194,81,118,85,39
42,121,313,170,80,121,82,37
47,173,317,162,77,122,77,37
47,170,303,147,77,131,68,35
50,187,320,154,78,155,80,39
50,189,314,156,74,152,79,38
47,178,275,163,74,153,79,35
39,153,315,181,72,150,77,30
40,169,309,171,66,135,77,32
36,153,305,192,65,96,56,27
37,179,303,193,64,95,58,26
47,228,299,173,58,84,52,30
47,226,239,142,58,95,52,30
48,243,305,167,70,100,56,31
47,242,286,135,67,118,58,29
74,344,380,133,77,114,64,41
68,320,363,127,78,121,71,41
68,309,356,126,75,125,72,42
66,286,295,93,66,121,71,42
70,289,301,116,76,103,70,46
53,173,244,147,85,105,71,44
53,170,254,170,83,98,73,41
53,183,255,179,84,94,84,40
57,210,277,181,85,102,87,44
64,240,283,177,82,102,91,43
63,218,287,185,69,98,84,39
66,254,333,189,74,94,81,40
77,284,405,222,80,90,73,46
97,385,462,259,106,74,66,47
96,402,488,282,153,86,65,46
101,438,485,281,164,95,71,51
104,429,467,282,173,157,80,55
103,420,433,265,197,175,89,54
84,338,475,273,215,187,103,55
82,311,469,278,195,185,102,55
70,265,497,260,192,187,102,50
105,261,542,278,202,149,104,56
117,257,571,288,179,129,95,60
126,243,493,266,149,119,83,63
129,230,486,237,143,118,83,61
130,218,424,240,161,135,90,63
101,222,419,247,147,153,106,57
86,241,379,240,148,156,113,50
71,251,409,236,148,171,117,42
74,249,425,247,142,195,119,44
71,259,476,276,113,182,113,39
70,256,430,276,118,174,102,37
66,239,414,281,124,170,95,34
72,294,526,330,140,166,113,45
62,312,517,327,137,135,108,44
72,318,475,324,165,155,129,50
71,303,466,318,163,146,130,58
70,287,465,307,160,150,133,60
65,223,398,338,170,160,141,61
67,207,394,339,171,160,143,65
54,171,424,317,146,142,124,60
52,178,435,318,144,165,116,53
66,185,437,320,140,170,114,52
75,198,376,215,101,150,86,44
74,178,379,212,98,149,80,37
76,209,367,213,91,148,81,37
84,242,393,171,72,115,77,39
72,241,389,193,77,107,77,38
59,219,359,221,81,99,76,35
62,236,354,259,89,96,79,36
74,226,358,292,95,93,80,40
69,191,341,302,99,92,76,39
71,186,340,293,98,91,72,41
70,187,321,285,98,135,78,45
68,202,317,272,95,138,84,45
54,197,296,262,92,140,83,42
53,219,272,248,92,144,93,43
53,221,280,241,93,146,99,46
51,235,304,219,97,154,103,44
50,214,369,178,99,154,99,45
50,229,377,160,103,159,100,47
60,276,472,187,121,153,98,50
56,276,486,184,118,145,90,48
60,305,540,204,127,129,83,48
63,323,520,258,130,136,97,48
64,324,549,265,130,132,95,48
64,292,485,272,111,133,93,49
65,300,515,282,111,168,94,48
61,253,454,281,93,179,90,45
61,225,416,242,88,207,84,45
58,198,371,220,81,213,86,45
56,232,375,201,99,217,93,42
63,265,348,206,101,191,96,51
61,267,338,188,95,154,92,51
66,268,343,209,92,98,79,51
68,266,404,220,90,81,79,51
59,198,394,230,68,65,64,47
58,225,368,204,60,62,55,42
65,257,393,213,66,58,56,44
64,300,455,203,72,61,61,45
82,388,496,237,95,62,74,51
173,554,632,266,166,62,78,71
202,786,838,322,196,70,89,80
211,825,863,329,206,77,90,83
214,818,854,327,206,75,86,83
220,788,808,298,196,69,72,83
180,687,720,256,143,64,67,70
154,383,522,218,131,50,58,60
168,329,537,210,115,39,56,59
165,339,515,209,117,36,56,59
161,389,526,222,127,44,58,55
143,437,628,315,150,46,64,54
140,457,635,307,124,47,58,53
118,466,710,394,136,53,70,55
141,527,849,514,165,58,85,69
227,682,927,548,177,62,98,94
318,870,938,527,184,74,113,131
333,892,999,579,202,89,124,142
340,899,958,530,221,103,135,153
346,870,943,490,241,109,143,156
309,797,931,478,234,106,139,147
232,628,931,522,239,104,132,121
241,672,955,514,238,101,139,124
252,728,934,510,234,90,133,121
255,819,917,466,197,78,116,112
292,952,907,445,201,81,123,125
294,941,858,363,190,75,116,124
289,906,820,346,178,62,106,115
279,838,820,341,151,55,93,107
270,798,764,332,154,58,95,110
214,570,752,339,163,49,86,91
212,667,764,337,147,51,89,92
248,701,764,300,179,63,105,117
240,728,820,315,186,62,105,113
240,735,877,294,181,63,104,110
246,836,889,315,169,64,99,112
231,722,854,319,177,62,97,109
209,732,820,319,148,56,82,95
299,801,880,345,156,64,111,129
298,749,825,387,165,61,113,130
344,801,817,387,170,67,124,147
348,807,836,387,161,69,128,147
334,781,837,369,166,72,137,151
277,757,777,342,167,70,116,132
282,801,843,287,161,75,123,140
226,696,816,264,155,71,114,120
269,750,810,266,177,82,127,138
268,726,787,271,166,76,107,122
244,676,836,274,149,72,106,113
253,671,734,278,150,73,110,121
241,601,714,272,154,73,108,119
199,601,721,265,125,56,90,96
189,602,709,241,127,59,98,100
212,623,594,250,134,61,103,112
188,564,619,241,147,54,89,94
259,698,676,256,146,59,96,115
255,676,637,246,141,57,95,115
262,790,742,322,166,58,84,113
276,768,692,299,170,62,77,114
283,791,747,314,175,67,82,117
242,710,692,289,179,66,93,114
274,757,775,316,186,72,96,127
315,725,655,239,175,75,99,138
295,816,815,278,171,78,102,136
341,940,764,275,152,80,108,151
338,956,794,274,168,82,94,144
327,972,723,255,166,78,99,137
283,891,708,274,150,71,96,121
276,804,569,237,153,62,93,114
249,707,668,256,183,67,105,127
250,772,716,293,175,63,113,127
249,701,763,311,171,69,108,126
272,791,821,306,171,73,110,132
395,969,878,351,202,84,139,174
384,959,785,327,170,77,123,154
378,919,785,324,162,74,113,149
363,910,743,309,189,71,111,144
354,902,786,313,188,67,114,144
213,720,737,286,156,61,80,92
235,735,798,301,171,64,94,106
225,673,701,261,164,61,91,102
225,647,709,275,174,67,99,106
205,616,616,282,191,74,98,100
196,572,551,246,187,70,92,96
183,617,589,258,195,72,90,91
180,605,597,272,220,76,96,97
173,630,578,262,201,74,88,94
180,627,693,277,189,69,87,97
192,686,734,298,191,68,88,100
159,640,792,333,171,59,73,85
170,657,854,346,172,59,69,82
209,730,905,351,161,51,73,93
205,685,861,335,160,53,71,92
218,698,914,337,161,52,76,95
218,678,855,290,158,56,84,98
226,697,877,305,129,54,88,102
193,641,814,284,139,54,84,92
191,721,752,272,148,52,85,91
167,671,699,272,176,64,82,90
147,637,637,252,176,57,71,78
119,598,569,203,170,56,63,71
109,562,559,210,163,58,63,67
108,464,565,203,159,58,59,65
100,436,588,217,115,46,58,57
104,403,589,240,129,51,57,55
124,436,565,252,135,55,56,60
143,472,607,248,142,61,62,66
143,509,591,243,129,59,56,64
142,531,558,206,134,59,53,61
140,578,537,172,122,59,55,63
128,597,533,152,115,54,53,53
116,584,528,162,117,44,47,46
106,527,576,173,129,47,52,45
112,557,553,191,123,48,51,48
113,552,544,195,148,48,48,46
106,520,563,204,153,51,51,49
124,527,705,264,151,51,63,57
136,556,682,261,150,54,61,59
142,545,745,322,166,59,69,62
136,518,752,330,144,56,72,62
143,536,747,333,133,55,72,64
121,497,647,291,120,53,62,56
116,492,708,336,168,58,71,59
118,498,700,363,189,65,73,65
116,490,754,371,189,65,69,62
119,467,848,429,209,69,71,65
119,467,878,427,211,72,69,65
113,468,843,409,176,64,61,59
89,401,861,333,146,52,49,47
94,405,869,328,149,56,52,53
76,370,797,248,121,54,44,44
85,385,711,250,152,49,44,47
83,341,685,227,145,48,46,49
97,408,666,248,145,48,50,50
93,396,646,245,154,47,48,46
158,485,667,255,161,44,54,63
174,501,696,248,132,46,66,68
195,536,719,250,139,46,70,76
189,493,671,248,161,56,71,75
193,501,653,254,148,54,75,78
149,459,570,230,145,53,71,69
130,430,598,269,153,52,67,65
121,452,615,276,169,60,62,60
126,451,578,249,140,48,55,59
125,466,536,228,141,47,50,55
124,457,597,249,135,45,52,53
118,473,541,202,129,45,41,45
101,478,602,227,119,39,52,45
104,506,588,218,116,38,53,49
98,470,619,228,112,38,53,48
95,449,649,213,116,44,52,53
96,426,644,212,122,47,58,57
81,367,528,152,98,42,44,49
77,385,563,172,108,45,51,48
89,398,514,167,124,46,60,55
85,387,396,143,136,44,60,49
85,379,424,161,126,45,60,47
83,345,417,161,127,47,60,46
71,259,352,140,155,75,58,44
52,206,314,124,149,96,65,41
53,182,324,129,134,100,63,39
49,163,273,108,133,112,65,44
53,182,274,109,141,142,73,46
54,187,267,118,107,174,75,47
53,174,283,118,101,229,77,44
47,160,238,117,95,252,91,47
47,132,253,153,119,273,107,49
54,111,270,180,158,286,152,75
53,92,261,191,190,294,163,75
68,110,269,211,202,278,185,90
85,136,278,229,250,389,241,97
111,179,238,235,286,457,285,114
115,181,221,256,341,606,283,102
115,183,223,252,352,684,318,108
114,185,236,259,365,725,338,114
105,188,242,250,343,735,321,112
81,191,366,241,314,718,304,99
77,206,378,216,263,635,321,100
80,213,420,207,235,550,289,97
75,204,425,218,260,521,269,87
77,223,467,220,262,485,261,91
75,194,379,200,265,451,236,91
70,182,370,185,233,389,187,86
63,173,336,189,231,377,181,82
58,180,364,176,177,327,163,72
50,165,410,267,177,228,140,56
48,217,435,286,177,207,147,50
46,211,454,285,172,190,141,47
50,224,451,288,173,194,145,49
47,214,416,282,163,184,135,46
46,201,313,213,143,173,130,48
44,145,312,189,140,174,114,44
42,138,274,183,137,192,124,43
38,123,262,169,113,172,121,36
39,127,230,149,113,171,127,38
44,138,265,130,115,233,124,37
41,135,249,139,87,220,120,33
43,142,283,145,101,233,126,37
46,133,290,160,106,240,123,39
44,143,352,205,104,237,109,36
42,134,344,201,100,184,113,37
50,140,343,185,102,194,131,46
49,155,403,188,91,166,122,46
46,184,402,178,93,183,121,46
44,180,358,131,88,189,126,47
47,183,356,129,91,178,121,47
39,174,330,136,88,175,109,39
44,194,293,154,88,180,102,38
44,190,311,155,86,160,105,39
44,188,303,148,85,177,114,37
37,170,273,138,83,206,114,33
36,176,388,183,78,199,108,33
38,173,403,202,83,189,116,34
43,184,417,204,78,174,107,33
46,203,447,215,88,147,100,34
49,204,472,233,93,91,92,35
50,197,400,202,101,94,99,40
48,174,346,182,115,102,94,40
45,155,327,189,117,102,95,42
42,128,295,197,115,98,107,41
43,137,262,186,116,128,116,41
46,138,247,186,106,126,113,38
47,148,261,189,87,117,105,40
48,139,229,178,92,124,108,38
48,138,255,176,86,126,87,38
48,138,260,180,78,133,83,40
46,136,283,194,87,135,85,40
43,125,261,176,79,137,92,38
39,135,317,187,75,132,87,37
41,140,320,185,69,127,90,37
37,129,310,169,71,90,84,33
36,129,273,143,58,87,83,34
33,135,281,139,57,80,78,31
45,155,247,137,65,76,79,33
44,162,212,109,67,76,73,35
44,161,243,146,63,73,69,35
44,169,277,163,68,66,60,31
46,191,293,182,70,62,55,31
34,162,276,179,61,57,46,26
40,167,308,224,64,60,59,27
44,202,322,218,75,63,61,29
43,202,296,211,80,63,62,30
44,172,265,193,82,67,66,29
46,169,315,208,83,66,67,29
46,183,288,163,87,63,60,28
41,149,283,142,79,61,61,25
42,139,284,140,74,58,56,23
41,136,305,151,69,53,56,26
38,153,255,140,66,54,57,26
35,129,249,152,57,51,54,28
34,127,278,170,55,49,53,28
36,161,322,182,53,57,56,29
41,179,309,176,53,57,52,30
40,161,302,157,48,54,52,29
38,152,298,146,53,58,53,26
40,163,249,141,56,53,52,26
37,148,256,142,58,48,50,30
33,143,250,138,58,53,50,28
33,150,286,176,79,65,51,30
41,164,305,176,85,63,53,36
40,157,296,161,86,64,56,36
41,172,367,167,85,70,68,35
40,166,382,177,90,66,75,36
42,162,371,158,76,54,73,35
37,151,351,156,72,62,77,33
37,142,348,155,72,63,76,34
38,108,241,137,75,60,68,34
38,105,314,179,74,60,61,34
36,123,304,175,74,60,64,34
32,115,304,172,77,62,61,34
33,116,304,174,79,77,62,33
30,111,279,178,82,77,62,31
35,103,167,150,81,77,60,30
36,76,157,160,89,79,58,32
36,85,212,177,93,77,55,27
34,83,208,175,92,63,52,29
36,93,213,168,89,61,50,31
34,111,212,160,86,66,50,33
36,120,223,156,86,66,52,32
36,119,192,138,73,60,47,35
39,123,244,165,79,57,47,33
37,128,249,167,73,57,44,33
36,107,241,157,75,54,44,33
36,107,234,156,68,53,52,36
35,107,239,168,70,57,53,33
33,104,198,156,59,57,51,31
32,87,179,145,64,55,54,30
29,110,189,142,62,52,53,26
28,134,301,147,83,58,51,30
34,136,292,127,83,51,50,32
33,135,281,117,85,53,52,33
35,136,285,120,88,55,59,36
37,121,278,119,91,54,58,37
42,119,256,107,78,49,57,40
37,112,254,144,80,49,58,39
39,134,282,158,90,67,65,42
39,137,284,156,86,77,61,41
37,136,300,171,88,81,71,42
30,117,296,187,83,80,68,34
35,136,303,177,85,81,68,35
37,136,399,214,74,64,61,30
37,132,398,219,73,48,59,29
40,153,394,213,71,42,48,29
40,170,415,216,73,40,47,27
37,166,447,221,76,42,48,29
34,148,351,172,81,48,49,29
32,146,350,170,79,49,48,29
29,161,373,165,86,50,47,27
27,139,287,150,81,60,50,29
31,133,240,132,70,61,53,29
30,138,232,131,63,58,51,29
30,140,233,128,65,57,48,28
29,94,181,125,50,62,46,28
29,85,283,167,58,54,38,29
30,114,325,181,62,50,34,29
29,116,332,181,63,52,32,28
29,114,349,190,60,55,37,29
33,124,371,214,68,53,42,30
34,128,320,189,62,53,44,28
30,98,277,187,70,53,41,24
32,119,323,195,69,48,44,26
32,135,323,200,72,47,41,25
33,132,309,177,65,42,44,23
35,149,307,159,66,41,43,25
37,155,303,162,58,47,53,28
37,137,296,195,67,58,61,29
37,139,278,184,67,57,63,30
37,167,327,204,72,57,60,31
36,161,324,206,76,55,60,30
34,154,314,187,78,51,51,28
34,169,281,153,72,43,41,27
33,165,307,188,70,42,37,25
34,164,262,167,63,43,37,27
33,155,234,158,55,43,38,27
33,158,220,158,59,44,40,28
35,180,242,162,64,43,38,28
36,176,230,153,67,41,37,28
30,153,220,158,66,39,36,28
29,148,218,158,70,44,36,28
31,168,233,156,65,42,36,28
30,136,188,137,59,39,35,27
34,135,169,133,59,41,40,31
36,132,166,129,64,43,39,28
37,148,169,164,70,47,47,29
36,130,175,171,66,46,47,29
36,123,176,174,67,50,51,29
35,131,157,146,65,51,54,28
35,138,145,139,65,57,58,29
38,132,147,103,60,54,53,32
39,130,129,109,67,59,59,34
37,134,147,114,68,64,61,34
33,123,154,117,69,137,78,34
33,125,147,117,71,154,87,34
33,128,173,165,79,156,90,31
39,170,193,162,81,159,95,34
43,168,185,171,88,223,123,43
48,193,217,175,102,251,145,46
59,238,243,179,102,250,144,47
61,241,232,148,93,251,142,47
58,214,263,155,88,287,156,46
69,236,291,145,86,249,140,40
71,231,303,160,69,186,114,41
68,205,333,178,76,204,115,41
68,202,346,177,77,210,116,43
66,211,311,161,75,164,93,41
55,191,299,165,70,162,83,41
50,173,265,166,70,166,78,38
47,150,215,157,63,161,80,41
45,152,178,145,66,185,79,39
49,136,181,147,80,182,80,40
51,149,165,138,85,191,92,38
52,148,154,110,84,191,89,36
47,136,129,90,80,168,84,33
44,131,143,81,77,141,85,33
43,165,172,99,65,150,84,29
45,177,255,116,68,141,84,33
45,182,264,115,68,142,86,35
45,184,271,125,71,149,84,34
47,196,273,125,69,140,80,34
43,164,258,111,68,121,76,33
35,133,260,174,67,111,65,29
33,135,269,194,73,116,70,29
33,132,277,194,71,114,65,29
32,103,276,202,75,114,72,29
31,120,271,201,74,117,78,31
36,116,178,133,62,114,75,31
39,226,387,159,60,101,67,33
40,235,416,179,62,137,76,32
39,243,429,170,58,141,72,34
46,253,439,178,74,146,67,34
58,300,453,192,82,149,75,41
59,241,291,156,82,148,71,39
65,241,270,157,84,124,68,46
66,240,265,174,85,117,70,44
61,230,267,174,74,123,73,45
48,162,243,158,64,120,68,39
44,138,245,157,62,122,72,39
33,137,244,150,56,101,63,32
34,137,269,140,55,103,60,32
35,123,255,129,51,128,62,30
32,135,256,129,54,125,58,30
31,155,274,143,71,154,64,33
37,163,313,138,73,158,67,31
35,160,329,137,77,159,66,30
37,159,331,148,78,137,61,31
37,159,333,145,77,142,63,30
42,144,312,128,63,111,57,25
42,139,396,232,74,110,58,23
42,142,362,234,74,116,66,25
41,142,376,238,75,115,71,24
44,180,400,262,79,112,71,24
40,187,398,266,78,110,69,24
38,185,284,186,66,103,67,29
40,198,313,196,72,101,59,28
41,202,341,221,72,103,57,29
41,198,374,232,74,103,60,29
40,190,405,244,78,129,64,29
38,184,395,237,81,133,67,24
43,210,375,233,72,127,68,28
41,222,334,214,73,117,66,27
42,204,289,190,65,111,64,28
44,214,256,169,67,101,66,30
47,235,308,184,67,116,63,30
41,203,353,185,75,122,61,29
41,184,357,179,70,118,64,30
40,187,351,162,71,123,64,30
36,187,377,173,67,117,67,29
32,162,360,187,67,118,64,30
33,161,364,229,61,114,68,28
34,159,358,224,64,116,63,29
28,133,357,231,68,114,65,28
31,118,333,231,66,106,64,28
35,132,313,215,63,90,67,26
43,149,316,166,61,103,70,28
52,161,319,166,59,111,76,29
53,168,316,152,52,113,74,27
53,174,308,138,50,119,66,30
51,153,356,158,53,138,79,32
45,126,294,182,64,125,71,31
36,139,316,187,70,122,71,30
37,138,326,196,75,124,78,32
38,135,334,204,78,126,91,30
38,141,260,179,78,116,85,32
39,148,303,167,71,120,91,36
38,147,333,180,72,155,91,39
35,163,326,203,76,160,85,38
41,174,312,198,73,152,73,39
49,243,353,218,80,146,69,40
47,248,319,203,78,147,66,36
49,250,264,189,96,147,76,38
49,253,271,156,99,150,79,36
43,242,297,156,100,149,82,33
37,171,246,148,104,148,85,33
37,157,233,139,106,143,88,33
33,132,220,144,85,115,83,28
32,88,180,147,73,103,82,29
37,82,201,148,68,104,78,33
32,92,215,151,60,102,73,31
39,179,260,181,78,109,90,38
40,192,279,170,82,111,87,38
39,198,297,176,83,112,86,38
39,199,249,176,95,109,94,38
39,193,245,161,91,106,96,35
34,129,219,133,76,100,75,30
36,132,228,139,74,149,69,32
36,124,242,167,78,155,69,32
31,121,248,166,68,157,58,30
36,121,288,164,73,163,61,37
32,106,293,170,72,163,58,34
32,71,270,181,80,124,70,34
33,81,245,151,80,133,74,35
33,100,246,159,79,131,74,35
30,139,265,149,83,141,79,31
39,167,322,161,92,147,86,34
38,170,343,150,82,137,79,32
40,185,344,146,81,120,78,30
40,176,350,147,79,119,78,30
43,174,297,160,71,97,67,28
37,169,236,145,55,86,57,25
39,177,223,137,56,90,50,27
37,159,213,136,56,88,51,29
37,156,199,118,56,92,52,30
29,130,188,90,56,90,56,29
31,152,210,109,61,89,56,29
30,149,236,160,74,72,62,29
32,159,249,170,75,71,60,27
32,167,270,183,76,119,74,26
33,166,277,200,75,124,71,26
31,137,237,186,70,126,71,26
33,134,225,180,64,125,69,25
31,143,239,173,60,121,67,24
32,177,227,164,57,72,49,23
32,178,216,142,51,58,46,24
30,167,221,141,52,52,45,24
32,198,271,185,60,68,38,25
34,204,253,182,61,72,36,26
33,171,249,183,64,71,38,26
34,181,250,190,68,88,50,26
34,186,271,193,72,92,51,28
36,160,240,127,61,80,54,28
36,166,289,131,64,82,56,29
34,161,297,130,63,85,58,30
33,146,306,146,60,69,49,31
33,139,293,145,56,68,49,31
28,129,286,152,57,69,48,29
27,90,343,194,61,64,51,29
29,116,339,191,67,53,47,30
30,129,335,179,65,54,45,30
33,143,333,178,67,45,45,29
33,145,313,163,62,42,41,29
33,143,262,154,65,40,40,31
33,125,260,161,59,41,41,30
33,117,258,154,61,43,45,29
31,100,252,153,57,43,43,29
32,97,267,165,57,45,43,28
31,100,214,129,56,46,40,26
39,99,222,130,70,48,44,26
38,87,221,143,69,42,43,25
38,83,227,149,69,41,42,24
41,74,228,152,71,37,43,27
44,66,209,146,62,34,39,25
48,82,184,141,46,28,32,33
47,81,174,128,45,25,28,32
50,96,193,172,52,27,35,34
45,96,155,153,49,29,34,33
48,143,199,166,51,29,37,34
39,142,215,164,46,29,35,26
40,145,228,171,46,29,35,26
35,142,229,147,44,29,34,26
38,183,259,166,48,27,35,27
31,160,253,157,44,26,33,25
33,161,271,171,47,27,36,29
32,161,274,169,45,28,37,29
34,162,256,146,42,31,35,28
31,144,230,127,41,32,33,26
31,140,226,125,46,35,37,27
25,139,196,102,44,37,34,23
25,139,214,145,45,36,34,24
22,134,216,149,44,33,31,22
25,121,227,143,40,35,36,24
28,120,222,140,48,33,42,27
28,108,286,188,55,31,43,28
27,104,258,155,57,32,42,28
28,106,252,149,57,32,42,30
25,80,239,148,58,30,39,28
21,79,229,152,55,31,33,27
23,97,167,83,49,32,31,28
25,99,167,79,49,32,31,28
25,100,163,83,49,35,30,27
25,99,155,83,51,40,31,25
24,94,199,84,45,38,26,23
25,112,188,85,48,40,28,24
24,114,190,85,48,44,28,23
24,112,196,86,50,48,36,24
24,115,233,106,51,48,36,25
24,119,193,97,49,51,37,24
26,120,195,111,47,52,38,23
26,126,209,123,45,50,38,23
25,128,208,126,46,44,30,20
26,127,165,113,43,41,30,22
27,120,207,126,43,38,27,23
24,90,256,151,47,39,24,23
26,77,265,147,49,36,25,27
25,67,261,145,46,34,26,28
27,67,266,146,47,33,25,27
27,61,240,138,47,31,24,25
27,57,236,141,46,28,27,29
25,58,217,147,50,28,25,25
25,59,231,155,58,28,26,25
23,69,243,161,63,31,31,27
28,73,233,160,61,32,31,27
29,100,286,137,76,39,39,26
29,104,306,127,75,41,41,29
30,105,304,116,68,40,40,31
31,99,291,104,64,37,37,28
24,110,289,99,67,37,38,28
24,99,254,155,50,28,29,24
28,115,274,154,48,26,35,29
34,146,284,166,51,26,36,30
34,154,321,203,55,29,40,30
35,146,322,212,57,33,43,30
34,138,262,167,54,37,42,29
31,134,259,172,51,38,36,24
31,150,375,177,49,41,37,21
30,149,385,153,50,40,33,21
30,149,383,145,50,46,34,22
30,148,390,147,54,44,33,21
30,146,372,147,58,44,33,21
32,113,251,138,61,44,35,25
33,110,192,123,58,43,34,25
33,111,200,119,54,36,30,24
33,107,187,119,48,34,31,26
32,95,163,105,49,36,31,27
25,153,180,108,49,37,29,24
23,159,266,132,53,40,32,25
22,158,264,134,58,40,31,25
24,161,261,131,63,41,30,23
25,163,264,131,59,40,31,25
27,96,279,135,59,43,34,22
31,91,219,109,56,40,35,28
32,96,256,113,54,39,38,29
32,94,268,110,51,37,39,29
33,94,309,124,52,39,40,28
32,84,275,97,47,36,34,29
31,77,290,113,48,40,32,26
33,74,295,114,47,41,30,26
32,71,295,118,49,40,29,26
32,68,257,106,46,38,27,25
31,81,302,146,55,44,29,24
28,72,273,136,59,46,31,22
25,87,269,136,61,46,31,24
26,103,300,137,58,45,31,24
24,110,298,138,62,45,31,24
21,104,250,103,56,36,29,24
22,111,251,102,50,34,26,24
25,97,206,106,46,32,26,21
24,87,188,101,47,37,29,24
27,82,190,102,43,41,32,25
28,81,198,94,46,45,38,27
31,81,209,88,50,44,38,27
30,102,238,114,55,47,40,27
31,127,246,125,55,46,40,25
33,132,258,132,57,46,37,26
33,143,258,137,56,50,34,24
30,150,248,137,52,52,34,24
28,135,219,110,48,54,38,26
29,112,192,110,61,69,38,24
26,110,205,115,63,70,40,25
28,105,198,112,60,65,38,28
29,90,190,111,61,65,37,28
30,97,193,119,69,61,31,25
34,108,170,110,62,44,30,27
35,112,135,91,59,42,31,26
39,140,165,100,61,47,35,24
40,170,168,115,65,46,36,24
40,172,174,100,60,54,38,25
36,168,177,97,58,54,36,22
37,179,182,115,59,59,42,24
31,153,147,102,55,54,42,24
29,120,142,100,55,54,42,25
30,129,137,116,55,51,42,25
30,158,153,114,52,53,46,26
54,162,167,116,55,64,42,32
55,163,166,128,65,73,41,33
58,169,173,119,61,76,42,34
59,166,178,119,59,75,42,34
58,136,182,156,65,76,41,34
35,106,169,150,63,64,43,29
34,103,177,147,57,60,44,28
28,89,173,146,55,61,42,27
25,121,191,141,53,59,44,26
28,162,227,142,51,56,43,27
31,175,219,136,49,58,41,25
32,177,213,131,46,53,39,26
31,181,211,130,45,47,41,26
32,151,183,127,47,48,38,27
31,115,183,94,50,51,38,28
27,138,203,98,51,45,36,26
25,136,228,121,55,48,42,26
26,135,232,126,58,54,41,27
23,137,234,130,59,53,41,24
23,128,177,119,54,56,43,22
31,155,233,154,57,56,44,26
32,164,236,154,54,53,40,27
32,167,238,154,55,60,40,25
32,166,238,148,54,63,45,26
32,167,258,150,58,59,41,25
27,172,325,128,56,64,41,25
26,169,318,109,58,65,38,24
26,172,319,102,53,54,38,24
27,190,326,102,51,53,34,25
27,208,310,133,58,52,37,24
28,166,169,120,57,46,35,24
29,167,150,127,60,47,35,25
31,187,171,130,60,48,37,26
29,169,175,140,64,47,36,25
29,150,225,122,64,48,40,27
25,151,226,122,64,47,40,25
27,144,227,109,63,46,40,23
24,104,208,107,62,61,43,23
27,108,197,93,59,61,43,22
30,106,156,96,48,58,39,22
30,90,143,124,47,59,43,27
35,154,207,153,50,62,45,28
40,161,221,160,54,55,43,29
43,163,221,162,56,55,41,30
44,162,215,155,59,55,40,29
45,178,250,133,56,53,36,26
42,141,206,108,53,63,43,25
37,138,204,112,51,78,69,26
40,162,210,122,55,110,75,25
49,198,223,122,55,115,76,27
48,193,189,124,58,117,76,28
46,193,285,157,61,113,73,28
48,202,309,177,61,119,50,28
43,183,314,169,54,95,47,29
38,195,324,169,48,91,47,28
43,275,346,167,47,91,46,26
46,288,282,148,42,87,45,26
49,293,251,114,41,54,40,27
49,303,249,122,42,40,37,73
60,341,321,155,45,35,55,212
78,322,303,155,42,30,59,225
91,343,309,143,42,101,71,238
105,483,354,148,48,135,75,256
107,548,356,141,51,144,76,253
108,537,276,105,59,151,71,167
99,530,293,125,63,152,68,152
94,540,297,122,80,126,62,133
87,468,312,147,81,97,69,111
107,430,336,150,81,88,71,162
101,427,341,148,74,79,65,162
104,482,347,148,71,76,70,162
117,471,331,147,52,61,68,199
124,532,336,117,53,51,63,250
110,513,319,122,56,50,63,243
109,524,345,140,64,44,69,257
123,546,346,129,67,45,64,286
112,564,390,135,67,46,66,292
109,485,414,169,64,43,69,290
149,562,466,196,67,39,77,280
153,568,461,186,60,37,73,266
143,564,487,186,58,39,72,269
148,597,471,185,57,34,68,239
157,612,452,169,68,37,62,186
127,562,410,134,67,39,57,176
129,538,413,136,69,40,54,174
133,508,465,146,70,37,60,120
131,482,476,153,73,40,63,138
113,470,430,140,64,35,62,133
112,496,431,157,59,37,62,132
108,496,456,161,67,36,59,124
96,450,362,144,93,39,54,120
83,415,340,145,98,39,53,87
87,413,375,151,98,41,53,92
78,349,375,143,106,45,50,65
70,336,333,147,101,47,53,63
75,357,315,144,76,48,55,72
82,336,302,133,69,49,57,92
73,308,283,130,66,52,55,82
65,284,277,118,52,46,51,82
66,312,333,143,52,124,52,90
79,293,346,156,54,134,53,161
82,302,345,152,49,136,53,159
86,285,344,158,51,139,56,165
85,278,355,158,49,159,78,170
85,231,296,118,48,117,76,170
68,218,285,106,46,109,78,100
51,182,315,137,52,145,87,90
39,194,336,124,50,267,95,76
41,191,301,134,62,285,117,63
43,183,279,135,77,319,133,57
52,149,282,147,110,498,159,71
53,135,250,144,114,517,161,70
61,129,221,158,121,517,163,71
68,178,315,175,135,542,151,77
68,183,334,190,140,555,159,75
60,187,341,189,122,489,177,63
58,186,339,173,123,470,178,59
54,199,334,165,122,450,178,61
55,225,257,170,116,414,178,56
54,227,259,165,111,404,171,56
54,222,237,155,104,295,129,49
54,222,218,159,99,291,126,47
52,192,216,162,94,263,124,42
41,136,216,143,87,249,116,38
41,153,262,154,88,202,111,40
40,152,270,151,93,237,119,40
39,149,280,147,97,226,123,41
40,160,263,140,100,227,126,43
39,156,282,177,106,239,127,43
35,134,224,162,93,244,121,35
37,130,223,169,92,211,111,36
36,134,253,180,87,214,108,35
35,187,389,205,93,194,105,35
35,196,413,177,73,176,97,32
36,194,417,184,77,153,93,32
34,193,412,179,74,147,87,30
34,204,407,189,75,152,84,31
35,168,311,186,60,116,72,27
37,142,294,221,79,107,80,32
37,137,287,222,80,116,79,32
37,137,290,222,80,166,96,34
35,141,264,202,77,155,90,33
33,132,222,201,81,160,89,33
27,125,181,154,69,197,79,30
29,157,270,159,70,201,83,31
28,173,285,162,70,169,78,30
29,158,293,162,68,164,75,29
27,143,291,140,63,161,75,26
26,156,280,144,64,112,78,28
25,136,199,128,65,106,77,30
31,128,176,122,60,93,67,29
30,128,164,124,60,97,64,31
30,130,169,138,62,98,66,32
33,144,280,153,58,92,63,32
32,156,302,146,52,79,66,29
37,137,290,222,80,166,96,34
35,141,264,202,77,155,90,33
33,132,222,201,81,160,89,33
27,151,302,147,62,122,71,27
28,148,299,123,67,122,67,28
25,123,231,87,63,121,72,30
26,104,228,82,61,136,63,30
27,126,248,87,62,121,57,30
27,119,247,85,62,126,62,32
28,125,237,85,64,130,61,31
28,126,208,87,64,132,55,28
27,127,189,91,65,123,64,30
26,107,173,86,64,153,80,30
27,116,177,90,62,145,73,29
26,139,207,100,56,152,76,29
27,134,201,110,62,164,77,29
29,146,180,115,62,166,72,27
28,151,165,117,62,127,65,26
29,143,153,115,61,125,67,26
29,121,115,115,68,110,68,29
31,143,134,95,64,90,68,31
28,121,134,86,63,132,80,29
29,113,138,86,62,129,74,29
28,116,155,97,61,129,75,30
34,137,171,155,70,133,78,31
32,124,168,158,72,138,76,29
36,129,174,162,68,139,80,33
34,128,176,162,68,146,82,32
32,136,159,155,70,151,83,32
28,129,295,99,53,152,80,30
30,135,296,115,55,151,81,31
29,139,378,218,75,141,79,28
52,145,391,237,80,139,84,30
63,174,457,268,85,163,95,38
65,168,407,266,82,162,94,40
65,159,404,268,78,163,93,41
66,165,350,191,59,142,87,40
52,164,366,179,59,140,76,39
41,130,329,168,54,116,61,28
38,118,331,194,63,116,60,23
37,128,336,184,65,123,63,21
33,109,308,184,67,117,57,22
33,114,272,174,63,115,67,26
29,119,250,148,68,106,67,27
28,120,188,107,64,106,65,26
27,111,187,134,65,123,69,26
31,122,197,135,65,121,70,26
30,112,191,131,65,116,63,24
31,109,212,159,60,116,61,23
31,131,351,210,66,113,63,25
32,139,352,198,65,78,55,25
31,130,348,196,63,70,53,25
30,135,375,210,64,67,49,25
30,149,344,183,60,66,50,26
30,156,271,154,53,76,55,26
30,167,312,165,52,99,66,26
31,167,313,168,57,116,67,26
31,162,285,157,56,114,67,27
30,146,320,206,58,115,66,27
30,110,286,189,53,121,65,26
27,91,260,181,54,142,63,26
29,126,298,196,47,132,61,26
28,128,296,195,50,144,64,26
28,122,248,142,45,142,65,24
41,129,281,164,50,132,64,26
50,138,252,161,52,89,54,25
63,117,222,143,53,79,52,25
65,122,230,138,48,53,49,28
67,153,247,139,54,51,45,29
64,202,218,103,54,48,43,30
57,230,331,138,61,43,44,34
41,231,329,133,62,53,52,36
42,236,333,139,66,64,56,35
40,219,331,136,65,95,57,35
33,188,326,138,63,96,55,31
32,159,228,117,56,95,54,25
36,157,218,128,58,108,52,24
31,161,210,125,60,102,48,24
31,162,208,126,58,114,53,24
30,149,187,126,54,118,54,24
32,142,177,108,56,129,50,25
33,158,264,135,64,121,60,36
32,148,269,135,64,122,68,35
31,150,263,131,64,89,63,35
32,142,252,121,66,86,63,34
29,121,238,114,62,68,67,35
22,94,126,66,52,54,52,23
24,91,159,109,50,48,38,24
26,116,210,110,50,65,46,25
26,124,219,108,50,65,50,26
29,136,228,117,51,71,52,30
30,140,228,114,49,73,52,30
30,133,206,77,45,72,53,29
30,107,164,83,43,52,47,32
35,143,257,130,63,60,67,44
32,135,277,129,62,54,65,41
34,135,282,132,65,55,68,42
38,146,281,130,65,54,68,43
38,152,275,130,66,55,71,41
36,144,262,102,52,44,51,29
37,169,254,105,55,53,46,28
35,165,279,116,50,55,52,27
31,157,278,120,54,59,53,26
31,156,275,121,56,60,52,26
28,140,212,116,62,66,55,24
27,113,187,107,63,60,59,25
28,108,162,94,66,66,53,24
26,111,146,86,66,75,58,25
25,114,184,82,67,82,58,24
27,107,185,89,57,77,56,24
27,111,237,145,60,75,55,28
26,122,233,154,60,71,55,27
27,116,231,155,59,78,53,27
26,103,202,156,60,83,51,28
25,110,199,167,61,82,49,28
29,113,155,127,57,87,47,25
34,127,168,134,72,94,55,32
34,128,168,131,74,79,50,31
35,128,204,150,73,65,49,29
35,116,196,125,70,72,55,28
31,105,178,123,67,67,55,27
30,99,160,103,50,52,47,23
30,123,242,112,44,62,48,23
33,134,241,97,41,62,53,28
34,135,243,99,45,63,49,28
35,138,253,98,47,69,50,29
32,122,247,93,49,75,50,26
31,101,199,92,50,74,48,27
27,93,193,105,58,77,43,22
27,131,226,119,57,73,42,23
26,134,217,116,57,75,43,25
28,146,225,117,55,73,46,26
27,148,251,165,62,70,49,27
30,160,232,159,56,66,48,31
34,200,269,155,58,64,50,29
36,204,282,159,56,63,51,26
33,196,274,160,56,61,50,26
34,192,225,104,44,60,49,25
36,191,237,107,45,58,48,22
31,160,209,120,41,56,43,22
29,147,195,121,46,52,40,26
30,154,197,119,44,69,41,25
31,166,198,117,45,70,40,27
26,169,196,113,46,76,41,27
27,126,137,87,49,76,40,28
27,143,193,111,47,73,41,25
33,167,282,144,48,62,44,26
30,157,286,147,47,64,50,23
30,147,297,145,47,62,52,22
31,153,302,162,50,63,56,23
33,150,268,142,52,64,55,27
29,127,178,121,58,91,77,28
30,131,174,123,59,87,73,29
30,115,139,120,60,87,75,30
31,113,126,98,58,106,80,30
33,115,218,118,60,107,80,28
31,107,216,107,51,80,52,26
31,105,219,101,52,90,65,27
32,110,218,96,49,101,65,27
33,129,227,106,50,86,62,26
29,117,168,134,50,86,66,28
31,119,184,139,53,85,67,26
32,134,185,137,56,85,57,28
33,145,184,136,59,79,55,26
32,122,174,126,56,75,50,27
29,123,185,107,53,76,44,26
29,136,222,122,53,79,45,28
29,127,231,124,54,66,41,27
27,117,288,167,53,50,40,27
26,125,297,173,56,57,37,24
31,153,299,156,55,56,40,27
33,143,279,148,56,55,38,25
42,187,338,192,77,58,46,29
45,197,310,170,77,60,43,29
46,200,324,178,76,51,44,29
42,195,373,196,77,50,46,26
43,196,389,202,84,54,56,29
35,163,340,172,70,58,58,27
33,159,397,202,71,58,61,28
32,155,396,202,69,57,60,30
34,155,359,194,70,62,63,32
35,179,370,196,66,64,64,34
31,178,383,202,68,60,60,33
32,174,331,190,73,65,63,35
48,248,372,197,78,76,70,42
59,292,399,219,91,83,77,47
64,293,389,221,97,92,83,51
69,323,421,217,93,91,84,51
88,345,474,210,91,90,87,55
94,353,548,316,117,88,90,56
113,441,689,339,115,81,87,58
115,466,776,374,118,84,88,56
133,569,806,442,132,93,102,66
138,630,846,487,130,96,102,68
133,611,805,507,131,105,111,69
127,545,849,542,173,121,118,67
138,612,923,529,178,115,119,74
124,526,961,517,178,116,117,68
128,487,977,493,192,119,120,75
133,499,1051,419,183,115,118,75
132,553,970,461,177,107,117,81
134,506,879,462,190,148,141,85
138,495,837,453,224,182,150,86
207,486,766,460,232,197,162,87
213,504,751,514,232,202,161,90
213,435,685,422,228,215,161,83
221,436,734,464,233,193,146,76
220,426,744,488,212,164,133,75
151,438,790,540,195,153,121,65
135,437,767,532,201,150,116,58
140,466,843,556,191,133,132,75
119,449,779,548,170,131,135,74
118,458,793,546,181,133,140,81
112,431,729,484,180,133,135,79
115,396,699,439,181,154,154,83
113,377,651,418,182,155,151,77
109,362,697,369,191,171,144,79
120,436,664,340,188,203,171,85
121,438,683,355,195,202,176,86
133,445,711,377,200,192,166,86
130,440,686,365,207,214,168,81
129,415,600,388,213,217,176,78
125,353,612,395,218,195,149,67
121,320,588,375,218,196,156,69
111,297,505,335,206,193,151,64
97,277,524,321,186,166,136,59
98,298,564,295,165,140,120,59
81,255,553,226,121,116,109,56
79,279,651,252,118,102,92,51
86,340,683,270,112,84,82,56
85,336,677,264,101,72,74,54
87,319,686,267,98,72,73,53
111,392,745,280,109,75,79,60
114,409,689,228,94,95,76,59
105,388,741,296,93,96,79,54
106,387,770,320,110,100,84,57
102,431,836,342,113,102,87,58
115,453,898,444,148,110,96,60
126,472,940,463,181,102,104,65
130,474,953,418,188,111,117,73
146,492,980,432,185,108,118,78
149,458,916,417,187,104,112,76
132,382,781,300,168,106,108,73
124,318,737,290,137,102,99,71
130,303,706,300,127,97,95,75
111,299,670,278,124,98,90,69
102,286,663,276,122,107,90,68
90,282,730,288,104,95,77,64
88,321,707,270,95,87,71,60
89,345,672,256,110,89,69,60
116,361,656,245,126,104,91,77
123,367,649,265,123,101,106,79
130,402,613,240,135,110,111,80
138,394,641,267,143,116,113,82
133,406,655,318,133,114,110,74
112,402,656,307,114,99,95,55
112,430,721,290,116,104,85,54
129,456,754,305,117,96,96,64
139,562,800,327,134,104,106,67
187,577,780,340,152,103,118,83
211,628,818,387,172,110,130,94
222,617,784,389,170,107,131,132
220,593,721,377,164,116,127,129
222,528,709,354,150,117,132,136
181,492,690,314,135,113,116,129
174,539,654,255,112,100,110,127
160,561,660,242,106,97,104,88
171,679,792,287,113,93,107,91
152,666,777,269,110,80,98,78
157,661,773,249,119,93,111,77
143,580,741,269,120,96,105,71
151,578,728,265,122,96,111,77
118,396,576,206,109,92,103,68
122,369,551,265,105,91,102,69
112,356,577,265,81,78,86,66
103,306,576,263,77,79,83,63
78,225,549,266,74,80,76,52
87,301,558,286,80,81,80,56
86,317,535,244,82,87,79,54
86,328,498,241,83,98,80,50
85,330,575,250,97,103,85,50
89,340,570,245,99,101,86,49
83,306,594,227,101,104,85,51
82,280,597,211,101,99,83,51
88,283,590,225,108,90,89,60
107,302,525,183,97,81,84,58
103,296,536,216,98,81,84,62
105,305,477,204,94,80,84,60
99,328,536,204,90,76,82,56
99,338,569,288,107,75,89,53
75,371,717,305,106,82,94,64
86,401,700,288,100,78,88,59
85,375,700,306,96,70,81,58
89,350,622,303,96,68,78,64
91,391,580,209,70,66,68,63
101,401,391,185,72,64,61,53
100,388,475,223,89,62,77,60
97,384,473,208,90,61,78,60
96,377,472,213,90,62,77,58
95,312,489,202,92,65,79,58
84,238,440,204,88,62,75,60
88,308,482,175,73,59,70,59
93,338,506,167,78,69,73,62
91,356,527,167,77,69,73,59
87,371,533,193,74,71,74,63
90,371,536,190,71,69,75,59
85,326,439,178,64,66,64,54
80,308,451,222,75,70,74,50
85,291,453,224,75,72,75,53
83,296,476,204,73,68,70,47
77,310,473,204,78,70,81,64
73,332,485,200,81,74,83,68
75,325,478,160,67,63,74,69
67,322,474,160,71,63,73,67
62,297,446,186,72,63,70,64
70,310,497,180,70,62,62,52
64,268,453,170,67,63,58,42
60,263,432,169,74,65,58,41
60,275,432,163,90,92,77,43
64,282,400,131,94,106,88,46
72,300,357,156,102,116,89,44
71,288,356,156,108,125,95,45
70,284,338,143,100,125,94,43
76,323,348,142,81,106,81,43
72,309,357,149,72,92,65,40
57,282,352,131,69,80,61,37
69,305,381,171,69,67,55,41
72,335,450,180,73,63,58,47
67,349,445,183,75,59,56,44
70,362,496,252,86,62,62,43
67,338,493,269,80,64,64,42
53,322,462,260,81,62,63,39
55,303,447,273,85,61,58,34
51,224,443,273,84,62,61,35
53,226,429,213,86,62,57,34
56,219,420,216,93,53,50,33
58,220,457,223,85,57,48,33
55,234,415,242,82,56,48,32
58,236,452,257,85,55,43,36
55,217,429,262,75,59,45,39
52,229,427,241,59,62,57,42
55,227,404,226,68,54,63,44
57,258,430,178,70,54,62,44
53,264,366,153,75,57,64,43
50,254,339,134,80,52,61,41
57,251,389,152,88,50,56,41
57,292,394,169,87,56,52,38
68,237,395,222,92,56,55,43
70,228,398,229,86,51,54,41
72,236,406,231,80,47,51,41
73,298,388,225,72,45,45,43
70,254,392,213,76,40,47,47
60,267,376,161,65,41,44,40
57,271,413,166,70,43,42,41
57,289,400,162,68,42,45,40
68,231,396,163,72,45,50,39
67,231,423,212,74,48,53,35
77,257,430,229,79,52,54,40
82,255,398,227,75,55,58,39
83,240,429,234,77,63,61,40
69,263,444,246,82,60,56,38
74,327,433,211,85,59,53,42
76,383,454,206,81,62,55,41
72,387,463,197,88,59,53,41
72,396,465,205,86,50,49,39
76,388,435,177,81,51,49,41
78,326,394,179,68,50,46,38
63,210,336,182,65,41,39,34
61,204,346,195,55,40,34,34
59,174,317,173,54,43,36,34
63,268,379,216,57,43,38,35
58,327,468,241,72,49,42,35
57,336,467,226,70,48,40,34
58,334,444,228,75,50,44,36
66,362,485,229,82,51,44,36
73,299,467,205,89,56,52,38
70,240,387,155,79,53,51,35
75,240,425,198,91,56,57,38
75,250,432,185,89,56,59,35
69,204,398,216,84,54,59,35
57,209,394,226,77,49,51,35
59,251,468,262,76,52,53,40
54,238,438,246,61,49,48,39
54,245,459,298,73,53,53,40
56,260,442,285,78,61,59,44
50,247,441,290,77,62,61,43
47,241,446,315,88,63,64,39
49,258,446,306,90,64,66,40
48,237,432,264,81,59,60,39
44,228,429,264,78,53,54,36
57,261,396,259,87,59,55,38
56,293,330,212,86,62,59,38
53,287,316,219,84,62,57,34
52,296,295,209,80,65,57,35
53,291,288,199,77,62,57,34
44,271,284,186,65,56,50,28
52,250,275,176,64,50,49,34
53,241,287,185,69,50,50,37
54,227,294,201,75,46,49,36
53,243,299,198,77,44,46,34
53,221,304,193,72,40,48,34
46,165,405,180,70,39,44,34
49,212,423,162,69,43,47,32
48,229,423,145,62,47,48,32
48,216,440,160,63,56,52,33
43,213,438,172,66,62,55,35
60,220,350,166,66,62,67,43
60,205,353,197,68,57,67,45
60,190,355,206,73,55,67,47
61,187,345,220,79,49,67,47
63,182,354,224,86,44,66,46
43,168,324,237,80,39,45,34
44,145,322,244,77,41,42,32
47,150,317,238,72,42,41,29
46,146,319,253,72,40,38,28
45,164,346,232,62,44,44,27
55,206,369,222,66,51,48,33
50,194,339,179,66,53,48,34
49,206,373,244,73,53,50,36
47,217,362,214,71,53,49,38
54,218,312,224,73,52,46,39
46,226,370,239,68,68,49,37
46,228,383,246,64,67,50,35
45,216,380,190,58,66,47,35
51,246,386,194,55,65,48,34
65,323,415,232,73,78,66,45
81,359,363,268,92,62,65,50
87,390,428,285,103,66,67,53
87,391,417,285,105,68,68,51
84,366,404,272,102,71,66,51
69,313,382,248,92,64,50,41
49,237,366,215,89,66,49,34
39,186,301,208,80,60,48,30
41,207,276,193,80,67,53,31
52,243,324,198,87,76,59,30
54,215,341,190,88,79,64,34
62,208,399,175,72,81,67,38
70,246,423,212,79,82,68,42
71,247,431,227,82,79,65,43
72,223,405,250,81,69,61,44
84,231,377,260,85,61,54,46
81,240,315,251,90,56,46,40
75,193,252,203,84,55,41,37
75,165,252,203,81,54,42,39
71,231,363,187,81,55,49,43
54,224,386,191,77,57,46,38
53,214,378,187,72,62,47,40
52,221,396,200,77,64,48,39
49,231,407,192,79,64,48,36
48,189,386,219,79,63,45,33
49,196,361,193,75,57,43,34
50,203,366,210,72,52,42,31
49,191,354,202,61,49,41,30
47,174,368,214,55,49,40,29
45,142,306,192,47,42,35,27
52,170,374,227,54,44,40,30
48,180,364,212,50,39,38,32
48,180,348,202,51,40,41,33
50,193,363,213,71,47,44,33
51,212,393,192,71,53,41,33
46,220,334,174,69,58,41,31
43,206,329,179,72,59,41,27
45,209,336,185,74,62,43,29
42,213,293,154,59,56,44,29
44,232,374,181,58,54,47,31
41,203,383,164,56,49,46,31
44,226,410,165,56,50,46,35
43,227,414,171,53,47,42,33
46,219,402,173,53,47,41,35
45,225,303,172,56,50,43,34
47,233,300,162,52,54,44,33
45,211,266,158,50,55,44,35
45,211,266,144,52,59,50,35
46,222,315,192,53,58,50,34
47,217,336,216,52,57,46,34
48,227,341,223,60,59,47,34
48,227,336,229,66,63,50,30
51,233,364,245,69,58,46,33
47,235,376,229,70,58,43,32
44,199,334,193,68,62,44,31
45,214,321,194,64,56,44,31
47,233,334,190,56,53,41,32
45,244,328,190,55,54,44,30
46,229,331,214,54,63,46,31
53,267,349,218,58,59,47,32
55,252,340,209,57,57,44,33
55,235,338,211,58,59,43,32
56,232,319,195,55,60,38,33
54,246,293,147,51,52,36,33
52,216,282,171,52,54,41,31
47,202,286,178,52,54,40,29
46,198,277,172,51,52,40,28
40,176,284,215,54,50,40,25
43,176,272,220,66,53,45,28
40,159,261,190,67,51,38,25
37,174,293,212,69,59,38,26
39,181,304,213,73,129,60,29
55,266,321,192,83,141,71,35
63,315,308,218,91,143,72,34
65,331,301,220,88,145,75,37
64,315,272,200,90,146,77,37
65,348,306,210,88,106,64,37
57,287,286,189,75,90,55,32
53,253,293,140,58,88,52,31
52,224,350,185,65,83,49,30
56,253,361,181,64,78,45,32
53,200,344,168,66,76,47,29
50,206,346,177,69,87,49,30
46,210,369,203,69,84,49,30
46,227,353,208,60,84,47,30
45,228,368,242,60,82,51,29
44,248,356,240,58,67,48,30
49,282,387,238,58,59,44,28
45,269,379,229,56,60,40,27
54,296,459,213,70,71,56,33
70,297,485,228,78,74,67,48
72,282,480,233,78,79,68,51
73,244,454,231,79,76,71,51
75,235,434,220,79,79,74,53
67,207,368,202,73,76,71,53
60,216,391,197,69,72,59,39
65,297,419,200,70,62,56,36
61,297,431,196,69,74,60,36
58,293,442,196,66,69,56,34
56,283,408,195,59,66,48,28
48,262,356,151,49,66,47,28
40,202,329,160,51,65,45,26
42,209,311,164,48,45,34,25
41,206,305,158,50,46,38,25
47,312,353,157,47,41,36,26
48,337,346,153,52,44,37,29
45,318,341,133,50,48,41,29
44,325,333,133,51,49,42,29
45,342,343,132,52,48,45,36
40,270,375,175,52,46,47,35
35,246,399,185,50,45,52,37
33,239,406,183,46,41,49,36
34,226,401,176,47,38,49,36
37,209,377,174,44,36,43,30
44,243,301,167,47,40,43,33
53,338,340,160,56,37,34,31
53,355,341,164,59,37,35,31
58,383,362,184,69,37,44,33
57,391,367,196,71,43,43,33
53,358,389,180,69,42,42,30
43,261,306,167,59,44,41,29
45,235,306,185,63,65,46,30
39,192,322,179,51,65,36,28
39,179,340,204,71,66,45,31
44,194,299,202,80,69,51,33
50,234,342,209,85,98,60,35
50,239,338,208,83,101,59,35
60,261,329,231,87,106,62,37
60,243,323,218,71,107,57,35
69,275,472,277,75,107,69,46
64,228,460,276,75,107,66,44
64,228,462,264,75,119,71,44
54,196,449,241,73,116,69,41
58,198,470,251,78,119,73,46
47,159,387,185,69,119,60,39
52,186,377,179,69,104,61,40
52,193,364,176,67,89,52,39
53,198,362,176,65,90,54,40
53,220,333,150,62,86,53,37
47,229,273,190,59,84,50,32
40,218,278,209,56,109,54,30
41,217,280,219,58,116,58,30
43,213,274,216,60,121,62,31
49,253,303,228,58,119,60,33
52,248,302,191,57,122,62,31
53,244,300,170,59,96,54,30
53,247,320,161,56,112,57,32
60,268,339,197,58,107,56,35
62,235,312,204,66,109,55,34
63,251,316,194,72,106,53,38
63,259,305,202,78,129,58,40
62,253,303,222,79,101,52,38
56,243,307,188,79,125,51,34
43,242,310,163,73,127,49,31
40,234,325,188,67,127,54,30
40,226,325,188,55,101,47,29
38,223,302,160,54,112,53,30
71,359,390,251,66,88,60,40
72,358,404,283,74,91,64,42
73,346,382,264,73,95,61,41
74,361,406,267,74,114,66,42
80,386,444,274,76,104,71,44
54,258,368,207,64,100,61,34
53,273,434,203,58,94,63,32
62,319,443,216,59,91,65,35
59,303,415,200,56,75,64,34
51,274,375,205,53,74,55,30
56,293,374,215,54,74,57,31
58,311,400,215,55,73,54,35
47,263,444,240,58,72,52,29
48,260,449,250,58,66,46,29
48,260,467,246,57,66,46,28
46,248,478,247,57,67,48,34
44,200,391,228,56,66,50,31
43,171,339,213,54,62,47,30
42,174,332,207,58,56,46,30
47,195,326,210,61,52,47,33
52,251,304,201,72,133,61,31
73,298,319,202,97,142,65,40
76,323,360,212,103,146,65,43
78,323,374,220,106,153,68,43
78,335,381,221,105,170,71,45
78,338,438,206,97,115,59,44
63,330,441,199,70,106,48,36
60,319,401,165,61,104,49,34
58,328,389,156,54,109,54,36
57,307,373,143,57,115,55,33
52,293,368,159,56,120,57,30
46,255,376,173,51,128,63,30
45,242,363,172,47,126,61,28
43,229,397,173,50,111,54,25
43,232,409,189,49,76,52,24
37,181,369,180,52,79,53,25
36,180,368,169,57,65,47,30
38,208,364,161,57,67,49,32
39,207,337,170,52,76,53,32
38,194,324,149,51,75,47,32
38,198,307,159,57,67,42,34
42,188,274,175,56,64,44,32
41,165,266,174,55,65,43,29
41,162,258,171,59,52,43,32
43,168,253,171,59,48,43,33
56,232,360,243,59,48,47,33
54,234,334,221,64,55,48,34
54,233,353,233,69,57,51,36
55,230,352,233,72,92,64,34
60,248,372,242,71,97,69,33
53,184,258,183,66,99,69,35
54,226,254,180,56,98,69,34
53,228,255,172,53,106,71,34
53,232,257,160,45,81,56,32
51,226,216,146,52,101,61,34
47,255,278,190,59,102,62,30
47,230,291,200,61,103,64,28
45,249,314,199,63,94,63,28
47,253,306,200,65,101,68,31
38,233,327,200,61,80,59,28
42,210,293,143,59,78,58,32
45,258,302,140,60,74,53,33
49,239,259,134,59,71,50,33
45,241,284,137,57,56,45,34
54,287,283,131,55,50,44,35
51,282,258,106,46,44,40,29
50,287,328,158,47,41,38,35
46,287,339,158,43,34,34,34
58,297,341,155,41,40,34,35
55,274,359,205,53,75,44,35
57,292,365,214,58,79,47,36
54,237,281,172,55,87,50,31
55,230,259,170,55,88,51,32
58,274,316,199,66,86,59,37
57,262,275,182,59,59,49,35
54,226,261,184,60,54,46,35
60,247,301,192,62,54,50,36
65,275,333,197,63,54,52,38
55,223,272,184,53,55,44,30
57,226,287,168,53,62,49,32
57,239,308,162,51,126,62,33
68,266,299,157,45,124,59,35
68,254,286,162,45,125,59,35
72,287,360,188,56,127,60,36
69,279,353,177,59,128,60,33
70,272,346,174,62,98,54,31
58,231,346,171,67,100,54,29
53,238,375,176,72,102,55,28
48,213,304,129,64,105,54,30
54,235,311,143,62,102,51,31
52,234,309,138,58,77,44,32
55,228,284,133,52,83,42,31
57,220,258,118,41,84,40,30
54,232,260,119,40,77,38,26
50,232,285,125,46,75,43,29
54,228,392,168,50,84,56,35
50,237,412,168,51,105,75,35
48,232,408,176,53,104,77,38
57,225,397,170,54,104,78,42
60,218,402,157,47,105,78,43
57,219,296,111,44,93,74,40
54,214,270,103,42,58,57,40
55,226,260,94,45,56,58,38
64,226,288,131,46,74,57,44
58,222,281,129,46,89,57,41
64,232,292,133,48,93,52,42
67,255,296,149,48,100,55,42
67,258,292,157,49,108,56,41
59,271,295,154,54,101,57,37
66,269,283,159,55,85,56,40
61,262,300,167,53,81,53,36
76,274,317,168,55,74,53,44
133,448,340,176,57,58,66,58
138,476,352,163,59,54,68,59
140,479,361,165,58,55,69,58
146,495,400,202,68,54,73,61
142,508,417,198,68,46,69,58
96,362,465,221,81,61,63,46
104,374,485,262,77,60,68,52
98,368,493,270,78,60,68,52
91,359,509,261,90,65,71,52
89,341,522,264,117,71,81,54
85,343,461,247,112,60,73,53
59,259,457,212,129,72,70,45
62,256,455,201,134,73,71,48
74,348,509,192,139,77,77,53
100,405,496,199,126,72,76,59
100,433,523,186,123,69,75,60
120,509,504,190,118,63,75,64
121,529,525,190,117,64,76,63
114,485,460,192,119,68,71,57
113,449,556,187,115,70,73,57
122,506,559,228,120,72,75,60
108,452,552,214,107,67,74,54
117,492,557,214,105,70,74,59
136,554,601,217,88,79,78,64
124,574,620,237,90,89,84,60
120,512,643,193,82,91,85,62
158,686,716,227,88,90,87,68
222,812,738,253,103,94,98,88
217,781,677,240,93,83,90,86
218,774,652,236,86,77,77,84
226,860,669,245,94,76,76,85
274,861,636,269,121,97,99,114
230,716,600,246,108,86,85,98
232,740,654,238,111,83,90,101
230,730,606,237,120,103,101,101
225,637,553,233,117,115,110,102
132,448,618,183,89,102,94,71
132,482,621,193,103,121,102,72
128,456,570,202,110,126,102,71
125,431,541,177,109,109,90,69
122,449,582,193,129,101,80,66
128,474,499,190,142,103,75,61
111,423,465,178,134,83,65,57
96,375,454,172,128,77,58,51
97,373,449,188,125,82,59,50
98,400,402,178,106,77,60,52
74,357,343,168,86,71,54,47
75,357,394,164,82,77,60,47
73,348,383,159,90,76,61,46
67,345,357,141,88,66,58,45
61,306,346,167,88,63,55,42
76,318,355,170,96,69,58,45
79,343,320,172,104,60,49,43
80,343,325,192,108,64,51,45
83,338,325,197,109,67,61,49
80,279,389,185,109,68,64,48
79,265,423,215,108,62,66,47
94,406,428,224,107,64,70,51
101,457,469,252,98,73,72,50
100,461,486,254,98,78,67,47
94,452,427,240,94,75,63,42
84,450,390,205,83,72,61,39
87,476,492,315,89,74,65,42
153,657,565,370,110,66,83,76
161,687,570,378,110,62,86,79
163,693,578,387,116,63,88,80
169,707,667,409,126,65,89,83
161,600,632,337,128,63,84,84
124,483,676,322,125,86,77,61
158,490,707,350,141,88,81,68
161,502,732,357,137,91,80,68
161,483,697,334,140,103,87,66
163,509,745,350,143,103,89,60
145,408,660,274,131,80,77,58
101,361,630,237,115,76,72,51
93,336,622,223,114,74,72,51
99,416,620,226,108,60,66,54
113,448,676,267,104,57,75,58
138,458,710,306,119,80,100,70
138,468,799,358,141,79,103,75
151,510,827,389,151,77,107,79
148,508,838,405,148,78,114,79
158,616,786,377,147,82,113,82
138,594,787,382,142,68,93,71
150,658,721,338,134,71,90,68
138,628,672,305,121,75,85,65
138,591,649,288,120,73,76,66
119,477,597,285,117,66,68,61
113,484,544,290,111,65,64,57
100,391,552,290,92,73,62,51
98,386,551,292,112,73,60,49
80,399,580,312,120,74,58,43
86,393,596,293,118,83,63,44
90,392,562,235,115,85,63,49
86,390,543,227,130,79,62,49
86,387,525,220,119,75,59,50
98,365,479,210,108,72,58,52
97,400,467,249,110,75,54,45
104,421,626,332,111,66,54,42
141,480,633,349,97,62,61,59
152,499,661,364,94,65,66,64
145,482,653,365,90,65,67,62
139,437,600,334,78,50,64,62
136,433,539,301,97,52,68,66
98,353,518,277,90,49,60,51
114,467,589,302,109,48,81,61
112,462,574,289,128,51,80,59
108,428,579,291,133,54,81,59
103,437,530,260,116,54,78,56
99,448,534,270,121,72,82,55
71,360,467,209,103,71,59,46
70,358,448,191,92,67,55,43
70,362,511,247,95,65,56,45
66,302,487,246,104,65,57,44
66,300,475,242,114,48,48,44
51,243,566,281,117,48,46,39
50,232,586,288,113,70,59,41
51,237,546,246,118,71,56,40
65,267,588,255,121,82,55,44
66,267,594,240,104,81,55,42
74,277,510,203,105,94,76,47
82,327,512,204,100,100,78,47
82,321,543,202,104,103,99,47
78,339,615,190,104,103,110,50
82,350,638,279,110,106,114,53
78,365,629,276,106,101,108,48
75,370,641,275,105,82,102,49
74,365,603,287,89,81,84,50
71,350,598,290,86,71,69,43
72,318,563,209,103,70,66,42
75,326,536,201,106,61,61,44
77,285,526,201,109,67,65,42
79,290,548,202,124,64,70,48
72,267,400,173,126,67,68,45
70,311,387,181,118,69,69,45
78,304,441,191,135,70,70,47
72,301,420,181,135,67,65,47
69,300,398,145,119,67,59,38
74,331,390,181,117,66,62,39
78,293,520,231,122,66,64,46
59,250,466,226,102,65,56,40
64,335,563,250,98,67,54,42
63,329,544,248,99,64,51,41
61,314,596,238,91,61,52,46
54,369,501,184,82,66,51,44
55,383,518,187,82,66,54,45
48,312,400,165,90,58,55,42
51,316,417,168,91,68,62,46
65,405,431,194,104,76,62,48
64,360,423,190,96,69,56,43
66,338,416,176,95,69,54,42
67,336,439,195,112,79,57,43
66,335,437,194,110,72,50,41
48,183,358,147,98,61,44,33
64,303,392,219,106,63,56,39
73,378,433,223,102,64,61,45
76,394,410,203,90,52,54,43
75,400,415,224,102,51,57,44
74,407,398,217,98,50,54,43
67,342,337,138,106,43,46,39
75,277,360,157,117,37,56,52
75,278,361,151,105,37,57,54
84,281,390,153,102,35,61,57
91,295,420,204,119,38,67,61
86,270,445,214,107,40,64,60
75,276,379,214,96,49,50,48
77,260,400,213,96,49,51,48
68,251,360,194,96,49,45,47
62,245,352,166,85,49,43,43
59,257,331,163,79,53,45,43
77,309,351,186,95,48,55,52
73,300,379,203,107,49,55,51
77,314,415,212,99,50,57,51
76,297,439,216,90,48,54,51
75,286,432,210,89,41,51,49
54,217,476,230,98,37,42,37
55,225,453,220,88,35,39,35
54,214,433,209,85,35,38,30
53,243,446,213,98,41,38,28
55,237,492,260,103,44,42,33
59,253,456,226,84,43,40,32
61,272,506,242,81,42,41,31
62,267,575,263,90,43,43,33
60,233,528,242,97,39,41,34
61,229,480,189,94,38,40,29
70,258,476,173,86,41,48,37
74,260,406,155,91,44,54,45
69,271,361,172,92,41,49,44
70,284,356,186,78,44,54,46
73,311,394,200,78,43,55,48
57,257,359,230,94,38,48,42
71,325,372,252,104,42,57,45
71,328,301,220,97,42,58,45
70,321,322,228,99,38,56,44
75,309,355,231,117,42,58,48
75,314,442,238,107,43,56,47
61,262,495,222,96,44,47,43
68,267,525,228,108,42,48,43
68,265,515,212,104,41,47,43
61,283,493,207,84,35,44,36
77,337,422,167,83,42,50,42
71,295,366,181,82,38,47,38
63,281,353,180,63,40,45,37
64,296,408,202,78,43,43,36
68,313,440,199,79,45,48,40
46,255,458,198,77,39,42,35
53,264,467,176,81,36,44,36
56,252,454,172,80,37,43,35
57,243,412,134,56,34,45,35
50,187,412,171,61,36,40,31
54,182,393,173,84,35,41,32
50,196,365,174,80,36,40,32
48,190,353,176,82,37,41,32
67,296,387,189,86,40,46,37
65,295,314,159,100,45,48,36
64,316,384,190,83,46,46,37
64,306,404,194,85,49,49,40
66,309,400,188,86,47,48,41
47,219,394,183,100,45,43,39
48,222,409,193,91,43,42,38
44,185,344,166,91,41,42,35
40,183,309,159,88,38,32,29
37,183,311,162,85,38,32,28
29,155,255,167,82,37,30,24
49,224,241,141,74,30,30,26
51,233,261,162,76,34,35,27
50,233,261,151,77,33,36,27
61,248,277,164,78,34,41,32
65,267,285,161,89,35,44,32
66,226,296,202,94,35,45,35
68,228,285,178,89,32,38,34
68,227,287,176,87,32,38,35
63,251,321,168,87,32,32,31
60,235,328,179,53,32,33,32
52,245,377,155,39,33,28,28
48,246,368,164,38,32,32,28
57,270,473,177,46,33,38,34
50,235,453,186,67,32,40,33
55,267,449,175,72,36,42,35
57,259,434,168,73,38,46,37
58,256,521,199,80,40,53,39
59,270,497,203,91,39,49,38
62,279,524,198,80,47,49,38
60,251,541,210,79,44,47,38
55,232,527,215,82,53,47,39
60,258,496,212,79,59,43,38
55,221,448,201,83,63,46,34
53,209,430,193,86,61,47,37
51,196,425,206,85,60,45,34
49,206,403,190,82,51,45,30
57,191,366,161,88,55,51,38
55,176,367,167,88,51,50,38
53,170,341,177,85,48,49,35
54,173,348,138,82,50,48,36
52,179,402,161,92,54,48,37
39,193,420,161,96,39,34,26
41,217,404,153,85,42,32,29
43,227,403,139,82,41,31,28
41,235,395,180,92,39,31,27
50,249,392,175,96,32,32,29
45,214,340,173,89,34,34,30
52,225,366,177,88,30,37,31
52,218,401,205,107,33,40,30
55,237,408,179,103,39,41,30
53,212,407,163,91,42,39,28
53,233,414,154,85,51,46,28
46,210,389,150,84,57,50,29
45,218,348,123,67,58,51,30
49,198,344,106,79,57,52,34
46,214,291,198,93,62,60,38
51,221,281,205,95,57,59,40
49,216,267,206,92,53,53,37
52,207,307,224,106,51,54,37
51,226,336,237,95,50,52,35
57,218,346,186,87,46,47,37
57,217,372,201,93,48,47,35
62,233,388,219,114,49,50,39
63,242,351,197,95,48,48,40
60,221,351,213,100,48,52,42
68,326,398,232,98,43,52,39
65,315,429,217,98,38,46,38
59,296,419,213,79,36,45,35
56,305,476,219,82,39,45,33
56,314,444,192,74,38,39,29
36,192,386,151,81,38,35,25
46,225,391,160,88,36,36,26
47,230,385,131,84,35,34,25
46,210,309,142,90,33,37,27
44,198,294,138,95,32,38,29
59,292,443,166,90,34,45,39
49,262,390,152,78,34,45,37
50,260,391,161,100,35,44,40
50,266,394,135,94,36,41,39
52,272,465,167,94,37,44,40
38,172,325,146,90,34,35,30
48,170,346,168,98,33,34,32
46,171,366,167,76,33,33,29
54,202,387,180,74,34,34,31
55,244,318,179,69,36,35,33
55,258,330,216,72,40,42,34
62,271,351,220,58,42,44,34
65,285,357,228,62,45,50,37
61,265,349,226,85,42,49,38
64,269,361,226,86,39,49,36
70,279,399,192,93,41,59,42
77,305,358,185,105,45,64,45
77,304,345,183,108,45,63,45
78,300,340,174,105,45,64,44
73,270,371,164,110,47,64,44
69,273,387,167,101,44,49,40
58,261,403,161,98,38,44,39
58,277,415,152,109,37,43,38
56,275,401,152,94,35,40,38
58,284,398,163,89,36,37,37
59,272,379,150,102,39,39,37
50,252,377,142,96,38,37,31
45,243,357,150,80,38,36,30
56,293,382,197,92,40,48,34
54,302,353,192,102,37,47,31
52,307,414,218,91,33,49,31
54,308,401,216,87,36,48,32
56,293,393,206,90,34,48,33
46,269,435,188,97,33,34,29
51,244,465,202,89,36,33,33
55,255,399,173,86,35,30,32
54,295,475,180,89,34,29,32
53,292,475,181,90,35,28,30
54,277,428,163,76,37,31,30
48,268,477,177,78,32,36,36
44,229,453,201,80,34,38,35
45,175,383,203,84,31,38,35
44,186,389,206,83,32,39,35
55,227,531,236,80,32,42,37
57,230,442,205,72,34,39,27
59,246,447,190,91,34,38,29
58,234,431,179,87,38,37,28
59,226,455,193,82,36,39,32
56,191,300,163,81,35,39,33
56,203,369,178,110,36,39,35
54,197,374,169,100,34,36,32
57,216,387,175,99,31,37,33
56,223,358,164,99,31,35,32
49,226,344,196,117,39,42,32
54,267,290,182,91,35,42,32
53,258,278,194,83,36,43,32
48,245,275,198,83,35,41,32
49,264,294,197,100,37,43,31
50,273,333,195,88,38,35,29
41,236,325,190,88,41,33,26
42,235,316,176,87,43,34,27
40,229,320,172,99,45,35,25
42,227,321,223,92,45,33,23
51,222,266,186,119,43,32,24
50,211,288,185,127,43,34,26
54,230,341,196,131,42,33,28
59,257,351,201,122,41,32,28
62,261,383,182,125,39,35,32
52,266,431,207,100,33,35,29
58,273,432,222,99,35,36,30
58,280,400,213,94,33,35,28
53,256,399,205,103,32,34,28
52,239,440,211,99,34,32,24
58,229,452,191,92,39,33,28
54,219,439,187,80,39,33,27
52,192,437,184,95,41,36,28
52,197,474,189,87,41,37,29
52,233,415,167,79,41,37,29
56,238,385,171,74,38,38,33
55,255,394,169,85,38,41,35
53,254,398,172,77,37,40,36
59,307,416,179,82,36,44,39
56,278,429,207,102,36,44,39
46,270,433,206,103,34,43,33
57,258,431,197,99,34,39,35
59,257,428,203,124,40,39,33
52,189,362,203,125,43,33,29
51,183,338,147,107,44,30,29
53,180,296,146,115,44,33,31
51,203,308,166,123,43,39,29
53,215,306,159,95,38,40,31
53,211,281,142,89,36,40,30
52,204,293,134,112,34,41,29
58,233,352,185,108,34,39,33
56,251,388,179,97,32,32,35
54,250,401,184,92,30,32,34
56,254,438,222,130,32,36,37
57,264,440,235,116,34,37,38
50,240,387,211,116,34,38,33
52,252,439,230,123,33,43,29
56,260,450,239,131,40,43,28
57,268,463,235,96,41,42,25
57,259,461,266,98,41,43,26
61,290,489,265,100,39,42,27
53,244,406,247,89,40,40,27
49,250,408,239,81,34,39,28
46,245,393,210,93,32,38,30
47,266,388,193,88,33,38,29
39,220,408,204,90,37,41,31
38,206,408,202,89,37,40,32
35,177,396,212,104,37,39,34
35,178,358,210,90,38,38,31
37,184,340,176,89,37,37,34
36,193,315,169,95,31,31,32
47,275,347,161,106,31,32,32
46,280,335,146,88,31,30,29
50,304,356,153,90,34,30,29
48,288,360,160,106,35,28,26
54,285,359,172,96,41,29,32
51,247,324,185,87,43,32,33
52,250,322,181,101,45,33,32
50,224,309,181,108,42,34,32
50,222,343,204,92,43,36,32
54,246,381,185,99,45,41,31
49,220,373,169,103,45,38,30
52,232,396,192,97,45,40,33
50,230,402,195,87,45,39,32
48,218,367,178,96,43,39,33
71,273,401,190,93,38,58,44
73,282,401,199,90,40,60,45
74,264,403,196,86,39,60,44
78,271,391,201,89,40,64,49
78,273,439,222,97,49,67,48
56,225,405,257,106,53,55,40
53,228,449,271,109,52,52,39
52,233,433,263,107,52,52,37
48,226,449,255,115,53,48,35
55,241,520,250,104,47,50,40
52,218,476,202,96,52,48,38
56,196,449,173,97,59,51,40
60,207,448,162,110,63,54,41
57,191,438,182,112,83,65,43
54,187,375,187,118,86,62,39
80,325,464,205,115,83,67,44
80,336,452,203,129,84,69,47
76,324,451,204,122,83,68,45
79,336,496,187,109,66,62,44
78,332,440,176,103,67,68,44
55,206,359,140,121,72,62,40
49,193,340,144,108,74,61,36
50,195,377,183,110,80,66,38
46,177,317,191,119,94,73,38
41,181,394,173,126,92,70,38
38,178,476,209,112,88,68,38
38,175,484,210,106,81,64,38
37,169,456,172,108,72,59,38
41,205,449,165,113,57,51,39
45,213,389,173,124,92,61,40
54,261,283,136,117,94,60,39
54,260,273,130,123,106,68,40
56,275,303,151,125,114,78,42
61,258,319,146,124,119,77,42
62,269,318,129,101,103,71,40
57,219,318,132,107,109,80,38
59,223,333,168,111,119,88,36
66,228,330,173,105,117,82,33
76,259,443,213,106,116,94,44
80,245,437,218,112,111,98,50
83,261,472,212,106,115,99,50
100,286,513,247,129,126,112,54
108,297,542,248,129,125,116,61
97,277,560,232,127,124,111,55
93,270,564,235,125,129,109,51
90,251,521,236,134,131,106,50
72,231,503,235,120,121,89,48
53,197,459,237,120,121,87,40
64,228,316,233,111,120,88,45
65,231,341,243,117,118,89,45
63,233,348,248,123,116,91,48
62,254,296,191,111,107,87,47
64,268,316,181,114,112,86,45
56,232,462,201,124,118,96,44
67,254,452,198,129,120,97,45
67,281,469,201,113,108,89,43
62,251,475,200,106,96,83,41
62,263,523,205,109,103,96,42
62,281,457,173,103,105,86,44
56,260,542,160,106,99,87,49
65,227,563,151,107,102,95,57
66,241,586,152,107,101,95,58
65,229,530,135,99,88,82,57
81,259,493,139,101,79,76,52
77,319,593,172,100,90,82,49
72,318,560,167,97,89,71,39
74,326,551,166,99,93,73,40
74,324,603,177,102,89,74,40
51,286,597,181,95,92,78,41
54,350,377,190,80,82,70,37
53,359,368,191,81,80,73,38
54,361,351,190,80,76,73,36
55,376,290,201,98,87,77,38
56,381,324,206,101,77,69,37
63,341,366,170,97,81,67,38
64,350,372,168,95,82,68,38
64,348,404,172,94,82,65,39
76,349,399,159,92,92,69,43
76,352,462,154,87,91,68,43
70,315,513,150,88,91,63,44
77,337,536,199,95,100,68,49
78,321,503,198,122,102,71,49
66,300,488,194,110,83,59,44
67,292,412,210,118,98,78,46
65,246,371,225,120,95,80,45
54,184,341,196,119,93,81,41
51,176,347,193,94,93,79,42
50,183,346,206,89,98,83,42
51,203,323,197,101,96,73,41
51,206,261,179,96,88,68,37
54,224,286,176,97,112,67,38
58,248,308,224,112,110,69,36
61,299,316,223,117,106,64,35
60,293,325,214,104,99,58,37
56,301,328,222,103,101,60,36
52,286,301,230,112,67,51,32
46,264,302,196,92,65,48,30
46,213,306,187,88,65,48,34
48,218,323,185,97,69,46,32
51,209,326,190,103,78,51,34
52,219,313,176,87,72,49,34
52,223,304,169,96,73,47,35
54,206,289,160,102,74,51,33
62,245,310,160,89,63,55,39
62,261,330,136,82,50,50,38
64,261,362,133,92,76,69,41
64,263,355,131,86,75,70,39
66,282,411,155,92,73,68,40
63,260,403,150,99,81,65,38
64,253,386,149,104,85,67,40
63,247,367,160,97,67,51,38
63,241,380,152,98,69,49,38
58,240,374,136,91,69,46,36
65,259,412,140,87,63,48,35
63,249,414,147,83,59,43,33
75,297,468,149,82,51,47,36
79,327,454,152,94,51,48,37
79,353,482,170,91,50,52,37
70,330,477,192,90,55,51,35
68,328,459,200,88,60,52,33
52,280,411,192,105,69,50,30
55,268,439,197,95,71,54,33
52,216,385,209,99,73,57,34
48,240,349,189,101,71,55,34
50,241,356,172,107,67,57,36
53,260,397,176,89,59,55,37
45,235,366,182,87,55,52,32
39,227,366,166,77,53,46,31
37,172,334,156,91,50,48,30
37,184,350,159,80,47,45,29
36,168,283,152,85,52,46,28
39,180,341,179,91,52,47,34
40,190,336,160,105,48,45,31
45,192,341,168,93,46,41,32
44,196,361,184,93,48,42,32
42,186,375,196,90,52,44,32
54,231,425,177,103,53,46,32
55,218,424,173,89,53,46,35
52,222,438,171,88,62,56,36
53,220,409,164,89,59,55,38
54,301,500,179,111,56,55,38
43,274,487,204,104,55,53,37
42,271,481,202,102,58,52,35
46,283,471,197,103,47,42,32
44,309,511,204,110,47,41,29
49,260,449,199,90,41,37,28
48,257,413,171,81,43,39,26
48,257,401,174,103,43,42,27
47,254,432,181,102,44,41,31
58,250,457,188,95,42,44,31
55,246,434,179,92,50,44,31
63,255,422,163,89,52,43,33
63,257,442,183,72,51,42,32
62,259,420,178,80,50,43,31
53,219,342,158,86,53,43,31
52,204,343,145,87,52,40,33
50,206,366,195,93,47,40,33
48,199,336,179,88,48,39,32
46,189,332,181,72,47,38,31
45,195,330,178,78,50,35,30
58,251,401,211,85,44,42,35
52,232,350,166,74,42,37,32
54,236,354,163,74,40,39,34
56,245,379,165,90,41,41,33
57,256,430,173,82,33,43,34
57,212,447,172,82,42,53,39
57,209,456,177,84,41,54,39
57,222,472,177,99,41,54,40
57,216,470,181,88,40,52,40
61,240,491,186,86,45,58,47
44,228,410,158,82,37,46,36
48,234,435,188,85,38,47,38
48,238,442,185,64,40,48,37
51,238,436,181,86,44,50,38
46,225,402,164,86,40,41,30
48,233,439,168,88,47,39,34
43,247,426,123,88,54,39,32
45,250,426,129,103,56,39,31
38,233,409,148,87,53,38,32
49,249,491,180,90,53,47,37
49,229,463,183,85,53,51,35
52,225,465,199,105,53,54,35
50,199,434,200,91,50,54,36
54,225,468,183,87,50,55,35
44,183,346,165,82,51,52,30
49,219,365,168,102,47,50,30
49,240,379,158,85,37,45,29
51,243,398,158,87,42,44,28
54,254,369,161,97,46,45,31
57,257,408,179,98,44,40,30
53,243,408,161,75,45,37,33
53,212,393,151,69,46,41,36
51,212,381,142,65,40,39,35
46,173,397,142,75,34,37,35
50,198,377,130,77,37,38,36
56,212,354,143,80,35,34,36
54,219,394,206,103,33,30,33
54,223,420,225,106,35,30,33
57,277,395,224,92,38,29,31
64,337,384,228,96,36,31,33
62,340,371,227,104,35,32,30
63,337,349,191,85,38,37,29
66,359,337,200,86,38,39,30
68,344,340,205,102,40,43,32
57,274,324,189,100,42,43,31
52,245,319,182,90,41,44,29
53,248,294,173,89,39,39,29
54,210,279,157,93,41,41,35
47,186,326,153,88,41,38,34
44,180,397,177,86,41,41,34
43,174,393,172,86,44,44,38
47,194,386,161,97,45,48,39
44,214,481,155,95,44,49,37
46,200,450,155,84,47,50,36
48,191,422,124,83,46,49,34
50,203,458,127,95,42,46,30
42,172,465,139,80,40,41,29
45,168,386,173,81,37,37,28
47,192,422,186,78,34,41,30
50,242,397,189,75,36,41,32
47,239,381,229,75,37,41,32
47,242,372,227,78,37,41,32
56,282,400,233,74,39,50,39
55,278,345,220,93,36,47,36
55,244,331,225,103,34,46,37
55,239,304,191,92,33,45,37
60,244,329,201,88,35,50,39
52,197,279,163,112,34,44,31
63,282,353,171,101,37,45,35
65,285,355,163,94,40,43,34
68,288,364,160,93,44,44,34
64,285,359,187,96,42,43,31
64,284,404,190,73,43,47,34
51,186,379,189,70,41,45,32
45,207,380,182,66,45,46,32
40,205,379,180,83,42,45,32
41,215,375,155,83,42,42,32
44,221,372,166,79,41,37,30
57,231,356,180,84,42,47,39
55,203,356,183,125,37,45,39
58,203,352,180,128,41,47,39
61,211,339,161,132,46,47,40
55,194,293,154,137,46,46,41
45,185,287,129,137,48,43,31
45,185,302,128,105,47,43,32
47,189,320,158,91,45,46,32
44,180,316,165,100,40,45,32
49,193,396,209,94,41,53,33
44,189,403,209,87,39,47,36
45,187,397,208,104,38,49,36
61,228,431,227,109,38,54,41
61,219,421,220,96,42,55,40
59,206,344,166,111,41,46,36
59,199,363,186,124,39,45,35
63,228,370,198,110,42,51,36
43,200,332,178,117,44,43,30
51,232,347,183,116,41,43,31
52,239,334,190,98,38,43,30
54,246,291,181,79,37,43,29
51,225,265,177,99,42,38,29
57,239,336,162,83,40,46,31
48,204,315,164,80,41,47,30
49,188,391,165,93,42,46,34
48,178,393,155,95,42,47,38
47,171,461,155,69,35,45,39
49,157,416,153,71,34,40,39
55,199,439,165,78,33,40,40
52,211,411,155,67,34,41,37
53,214,420,149,69,42,44,32
56,269,535,215,93,46,47,35
58,266,568,216,97,48,48,39
62,262,595,225,93,52,47,41
61,259,579,229,90,53,44,40
63,269,588,232,104,47,44,43
66,265,475,191,86,45,44,40
62,261,450,188,81,50,42,35
53,253,419,171,80,47,43,32
54,250,411,178,82,52,45,34
54,255,402,180,76,62,51,32
51,225,436,226,88,65,59,35
48,233,496,261,95,87,65,36
53,302,549,278,97,97,81,40
53,303,576,283,101,103,89,42
60,299,577,290,94,103,100,47
62,284,528,247,84,113,100,48
114,309,451,202,82,114,105,49
114,242,389,191,95,115,96,52
116,263,382,188,112,124,102,52
123,264,377,182,137,172,108,62
129,265,360,197,151,189,114,65
102,234,357,200,157,184,110,67
105,263,382,221,170,190,111,63
104,241,335,219,176,216,127,65
100,233,325,241,166,198,126,56
105,246,372,250,182,221,133,56
102,271,430,279,180,223,141,59
98,260,392,259,164,225,140,60
101,281,411,257,174,232,130,65
90,275,409,228,167,221,117,61
84,319,400,224,152,217,118,65
75,314,392,201,145,213,105,60
84,309,390,185,143,201,108,64
90,291,380,175,110,165,98,55
109,304,403,204,115,168,102,54
108,279,398,190,100,134,88,42
109,253,403,186,115,140,91,46
99,230,426,211,117,144,94,43
93,232,461,221,119,131,87,45
68,232,449,192,113,136,83,46
64,197,434,189,102,116,75,48
69,226,373,193,108,133,85,51
74,271,404,191,112,130,83,54
70,271,352,189,109,135,86,52
76,265,353,201,112,125,84,51
72,257,350,204,132,133,93,52
67,300,391,222,131,116,94,49
64,273,325,216,132,121,93,42
69,292,327,202,125,123,94,46
74,302,316,203,125,125,94,45
75,310,318,212,120,118,86,43
71,244,312,180,107,114,74,40
82,272,362,190,109,116,75,46
81,251,376,200,111,111,69,44
71,227,385,205,123,121,75,45
67,206,373,183,111,115,74,42
69,213,374,189,109,122,79,44
56,249,390,182,109,134,84,39
52,254,380,184,116,144,87,39
55,283,400,196,99,125,79,37
58,292,398,196,96,130,83,42
59,289,372,213,124,127,79,43
54,216,323,199,115,107,69,42
55,230,378,225,109,87,62,40
53,236,358,221,139,99,69,43
62,293,366,218,140,92,64,38
66,297,386,204,116,95,66,38
69,295,379,215,143,104,68,40
70,291,313,185,157,105,69,40
75,299,312,172,133,96,66,37
68,248,345,178,136,97,65,38
60,240,384,181,140,88,63,37
58,253,403,175,112,69,56,34
66,251,415,196,95,65,56,39
58,213,410,184,98,61,51,40
58,208,414,234,90,63,54,41
61,274,386,251,92,68,56,39
60,261,399,273,120,71,61,43
49,251,385,256,121,71,60,38
49,241,402,263,116,74,60,37
54,256,418,271,138,88,69,42
53,196,393,257,141,78,64,44
58,207,423,228,124,81,60,45
57,208,435,224,119,84,59,47
57,216,429,235,119,81,57,47
51,202,376,161,105,70,45,41
51,200,385,165,100,76,44,42
54,237,287,179,91,69,53,39
55,245,295,181,95,66,56,40
62,256,274,165,107,67,60,42
60,243,432,217,118,60,59,41
55,223,427,213,114,58,60,38
52,185,442,215,115,55,56,37
54,179,440,215,110,55,54,35
63,191,495,228,125,98,64,36
101,198,376,186,107,103,72,40
112,255,445,199,109,104,81,45
128,255,431,201,142,174,111,53
139,281,453,202,154,186,129,66
154,261,404,185,141,205,128,69
155,280,400,202,144,224,134,69
161,260,358,179,152,239,134,71
153,278,412,205,139,245,131,68
148,328,463,216,138,242,121,61
147,355,479,218,135,231,123,57
133,363,498,206,198,269,146,68
122,371,462,209,221,302,162,63
120,354,471,166,221,279,152,63
117,331,502,182,224,279,147,62
91,300,480,174,237,277,145,63
75,273,459,171,188,230,113,48
73,257,468,170,155,174,83,51
67,251,453,179,146,156,78,49
64,185,326,156,138,169,80,43
64,216,365,215,141,150,77,42
60,211,339,206,138,153,90,43
76,222,325,202,136,144,89,39
88,260,383,298,144,134,97,43
90,274,384,295,141,116,97,43
88,271,349,253,120,118,96,41
92,287,361,259,122,101,87,44
75,279,378,265,118,97,84,42
60,247,383,186,113,108,80,42
61,250,410,234,108,99,76,44
63,233,411,239,100,86,72,45
64,280,409,239,111,82,65,44
61,270,422,237,114,80,70,44
60,284,322,202,96,64,50,35
53,268,310,172,100,62,50,32
69,302,385,200,117,67,59,37
67,242,380,197,101,70,58,34
67,236,351,197,96,69,54,34
65,215,354,191,98,63,54,37
68,229,343,197,109,67,56,39
51,187,233,166,90,62,46,35
49,208,247,164,92,59,45,36
50,207,299,238,102,57,42,36
48,205,278,247,105,61,42,34
46,195,288,228,90,55,39,30
52,205,370,293,122,52,49,35
49,190,399,315,123,51,53,35
54,244,371,263,112,48,56,38
56,250,383,261,106,44,54,38
55,254,423,262,120,46,56,40
52,265,362,212,81,60,50,37
61,300,348,193,87,64,49,40
59,268,358,194,106,65,50,40
60,303,384,184,110,71,56,41
66,304,437,252,97,73,56,41
65,307,483,260,109,62,54,38
61,275,477,253,131,61,55,37
59,266,459,246,120,63,51,35
56,219,440,263,120,58,48,32
50,218,340,193,125,61,53,35
52,236,351,182,120,61,67,38
52,227,353,202,89,56,64,39
51,240,361,202,83,64,67,39
52,268,360,181,99,66,69,40
52,266,465,233,97,62,66,37
47,226,426,209,90,58,52,34
45,221,424,191,86,60,54,31
44,195,427,192,109,47,49,29
48,183,447,199,94,43,46,30
52,184,320,159,108,62,49,33
50,192,315,171,118,66,51,33
50,195,289,161,122,67,50,33
48,197,290,185,103,67,53,33
48,175,268,176,101,66,51,32
52,202,334,159,92,51,51,35
54,189,324,148,85,51,56,36
55,200,342,154,85,68,69,39
57,207,376,153,86,70,68,41
53,212,392,154,83,72,73,42
63,251,436,155,84,73,79,44
62,251,471,170,83,74,76,43
59,242,468,165,80,58,65,40
62,271,433,149,95,57,65,41
62,267,456,162,106,56,61,38
43,200,422,165,98,58,49,31
53,236,400,150,95,73,46,31
56,272,464,230,102,72,49,30
55,254,487,230,94,69,48,29
83,384,448,228,85,76,63,42
84,385,387,222,87,76,61,41
79,376,362,228,109,63,61,41
79,366,262,142,105,65,60,42
81,362,210,127,100,66,60,42
54,222,259,111,97,57,43,31
57,212,360,108,91,48,46,33
61,230,405,134,63,49,55,38
63,215,417,141,58,58,57,38
59,206,430,177,79,65,61,37
55,201,420,187,85,72,63,37
51,226,397,193,96,94,81,43
45,196,389,164,96,92,79,38
43,239,427,166,96,90,78,41
41,236,418,146,83,85,76,41
46,259,401,137,95,87,79,41
50,241,351,123,94,73,64,32
60,254,336,148,103,72,64,39
59,203,270,143,110,98,72,39
60,224,272,127,106,101,73,40
56,196,249,119,110,94,66,42
53,194,255,117,105,88,61,41
41,199,302,130,96,92,56,38
49,248,346,164,87,86,55,38
53,247,408,164,97,83,55,40
52,247,415,164,79,83,55,39
51,245,412,167,74,86,60,41
55,226,394,141,75,82,58,40
53,192,393,151,75,52,47,38
50,186,322,153,62,52,43,35
50,199,332,159,56,59,50,35
52,210,383,171,55,57,49,33
54,222,347,171,77,60,52,33
49,216,324,134,76,60,57,35
59,235,404,145,75,68,60,41
58,233,389,147,87,79,58,41
60,249,355,130,103,77,57,43
55,254,405,122,97,79,61,43
57,257,401,157,110,89,67,42
52,252,325,159,118,90,70,36
53,245,321,158,119,90,73,36
50,218,314,156,104,89,71,35
52,184,252,154,101,100,81,37
50,175,263,150,91,96,75,36
44,165,265,147,81,94,73,36
44,163,268,142,68,92,75,35
65,182,262,150,76,121,84,93
65,195,318,161,69,126,73,93
67,200,339,147,67,133,80,97
87,203,353,155,71,137,79,98
92,208,359,166,85,133,78,98
81,195,382,217,84,113,72,48
85,186,389,227,89,106,76,50
82,175,360,221,89,98,72,41
74,163,372,220,89,100,77,39
71,182,369,212,75,102,76,40
69,178,334,178,87,111,79,39
61,175,251,154,79,100,72,33
63,172,269,156,82,100,66,34
61,161,299,164,77,91,58,39
63,154,412,252,84,83,51,42
66,147,409,237,63,60,38,40
66,148,408,239,62,63,38,39
69,176,402,245,54,56,44,40
66,185,357,236,61,55,46,43
64,178,237,144,52,60,47,41
60,178,227,138,56,62,48,41
62,192,238,137,56,61,46,41
63,227,283,133,56,61,41,43
52,221,389,166,55,67,40,39
52,229,395,165,56,64,39,37
53,233,420,170,52,66,37,39
49,229,447,189,57,65,38,39
55,191,419,192,59,66,39,37
62,286,397,215,68,62,36,35
61,287,389,216,68,61,35,33
60,291,380,221,71,57,36,31
60,282,380,234,78,58,38,35
55,303,406,221,81,59,40,34
51,207,328,170,79,57,39,34
51,186,329,177,82,59,44,35
51,175,309,172,83,68,50,35
50,184,269,134,86,65,47,31
44,138,272,160,90,64,47,31
61,207,298,160,86,78,53,39
65,233,321,155,83,81,49,41
65,251,355,159,82,75,44,41
66,249,384,155,102,80,51,43
68,265,433,193,99,86,50,41
56,226,446,200,95,89,52,31
53,201,422,199,96,98,56,29
51,177,432,217,96,99,59,29
51,175,453,236,86,103,61,27
63,166,386,213,89,106,65,29
63,150,378,211,89,99,62,29
61,166,387,230,99,102,65,28
66,193,426,239,123,115,69,32
74,237,436,268,130,121,73,38
65,248,499,278,134,115,70,38
61,251,527,294,140,118,79,38
69,309,548,306,143,127,82,44
86,384,578,291,145,123,88,44
94,455,638,261,126,135,91,47
118,516,667,246,135,141,103,61
126,541,651,224,139,152,108,68
123,511,648,207,138,143,110,70
114,458,613,254,134,146,105,70
102,408,555,246,133,132,101,67
72,325,471,230,117,124,89,55
65,345,511,234,118,110,79,49
62,351,525,215,116,103,67,40
59,353,485,144,100,92,62,38
64,311,531,182,118,96,67,37
66,297,516,187,129,122,76,36
85,371,543,218,134,126,85,40
91,372,516,217,134,126,90,47
91,358,504,220,134,140,97,48
86,369,473,195,130,150,104,50
83,375,540,201,128,132,99,52
74,301,570,169,124,136,108,59
69,287,569,167,121,138,107,55
67,290,588,192,134,133,103,55
66,265,528,210,122,111,94,49
73,256,471,225,118,109,92,52
60,190,392,256,113,109,67,39
58,198,385,261,121,100,63,37
59,199,464,289,108,88,60,39
57,197,466,274,112,94,53,38
57,221,537,338,127,101,64,40
51,218,496,317,127,103,74,40
50,270,491,319,120,105,78,42
47,262,388,281,114,104,78,40
47,274,383,275,111,100,80,42
43,271,270,174,99,102,77,38
62,295,331,174,98,82,67,39
67,270,398,183,97,82,67,37
71,327,547,212,99,81,66,38
72,320,544,224,99,88,70,38
71,329,536,226,96,90,78,40
58,303,520,222,89,98,83,43
51,292,489,218,90,104,83,43
59,242,365,186,95,103,86,46
60,245,389,195,94,99,81,45
66,257,402,187,83,90,70,42
63,250,368,185,84,97,67,38
67,234,344,183,82,112,71,43
58,226,304,182,70,112,68,41
60,239,294,177,76,114,70,42
56,195,292,212,82,111,65,42
55,184,266,204,85,115,66,40
53,216,296,220,80,95,59,36
56,228,312,240,84,95,61,37
61,259,345,230,74,88,55,39
57,263,356,197,75,94,66,40
57,271,358,197,68,87,61,39
70,300,410,174,89,84,67,46
66,291,388,143,87,81,63,44
60,246,366,183,104,84,66,41
65,248,343,206,104,81,69,45
66,251,342,206,103,61,68,45
51,184,361,224,98,92,72,44
53,192,365,227,98,95,72,45
55,196,368,217,84,90,71,45
50,203,414,197,82,85,54,37
49,194,430,194,87,90,58,38
46,202,380,185,77,63,45,28
46,196,402,198,78,59,44,28
40,192,503,266,81,62,46,30
40,173,498,269,83,61,50,32
57,182,499,276,89,61,49,34
57,174,498,279,95,76,62,37
60,183,503,273,99,83,62,37
64,205,423,189,96,83,61,37
66,241,380,179,101,87,59,34
53,235,395,176,99,90,59,31
51,235,386,168,92,74,42,25
55,252,414,214,94,70,45,25
50,239,384,209,109,68,43,20
50,228,487,227,101,72,44,26
51,231,495,228,94,62,40,27
52,237,506,213,90,60,39,28
46,206,497,185,95,59,36,30
47,212,510,202,96,67,42,33
39,195,430,177,98,63,44,30
40,231,466,201,106,78,64,31
39,230,423,204,123,80,65,31
40,245,416,190,120,85,72,32
49,250,393,173,107,83,71,30
58,257,459,209,110,86,77,38
57,220,419,197,111,79,65,37
58,209,443,194,105,81,69,40
54,188,427,179,106,76,60,37
51,186,480,262,108,72,59,36
49,169,398,246,105,62,48,32
60,306,485,301,100,56,42,38
64,349,499,302,94,57,35,38
64,355,501,314,102,55,35,39
61,350,442,248,96,58,38,41
57,357,436,240,93,61,40,38
52,288,346,185,95,74,45,33
53,241,366,184,91,71,49,34
54,242,362,174,78,84,54,36
52,233,386,185,75,82,51,34
54,264,441,200,69,78,48,36
51,240,471,193,72,64,51,35
46,254,457,239,81,66,52,32
45,258,437,233,81,50,47,30
50,285,444,221,85,53,49,33
46,239,396,226,85,53,50,31
43,256,377,218,92,61,51,32
45,240,339,162,83,63,49,30
44,248,378,183,78,60,47,29
48,255,442,211,77,57,45,31
48,254,448,192,77,57,44,30
51,278,497,199,67,60,40,28
51,297,508,217,94,57,41,31
52,290,498,201,96,58,41,32
47,259,448,180,96,59,43,28
49,277,476,193,96,60,47,29
55,228,425,171,93,49,45,33
51,201,414,158,83,43,41,31
51,220,411,180,86,53,47,32
52,224,444,173,84,51,43,32
49,206,438,172,93,50,41,33
44,220,476,199,95,47,38,28
59,269,493,200,90,51,40,33
60,266,521,193,99,46,35,32
58,263,476,192,116,47,34,31
67,284,443,185,152,70,33,31
62,270,378,170,157,74,36,31
58,272,402,207,153,78,39,28
56,252,356,197,145,81,43,29
56,249,355,220,187,90,47,29
50,240,429,238,172,91,54,30
57,249,445,234,176,94,53,32
53,192,432,238,186,95,58,36
53,217,445,237,197,101,61,37
53,228,456,214,159,104,62,37
49,207,425,212,140,92,58,35
50,197,478,239,131,87,55,36
49,263,497,195,126,83,49,31
78,293,499,212,124,71,48,43
79,290,491,227,119,55,45,44
81,296,462,209,132,58,44,44
79,312,418,253,140,60,51,42
76,260,353,259,128,69,54,42
49,225,370,251,115,72,55,34
47,228,381,255,123,75,57,33
49,232,378,257,109,72,59,32
45,198,365,177,95,67,56,34
49,208,379,169,114,65,51,35
48,209,363,187,124,64,46,33
49,202,335,165,104,62,48,34
46,193,339,173,111,63,46,35
45,204,294,175,129,77,57,38
41,187,289,179,118,75,61,38
47,194,273,160,114,79,61,38
47,209,370,186,132,82,57,37
53,231,444,196,132,79,57,35
52,222,445,189,114,67,41,30
54,233,444,199,114,67,39,29
46,212,426,191,110,62,40,25
49,210,340,185,93,56,43,27
65,351,457,218,88,56,51,34
65,357,545,253,118,56,51,32
65,371,561,245,112,80,58,32
66,370,578,250,110,78,56,32
64,366,583,241,108,78,55,32
43,245,450,203,127,78,47,28
46,246,328,160,100,82,49,30
47,236,305,152,100,57,42,31
46,219,325,159,100,51,40,33
48,223,344,177,109,53,39,33
49,187,322,174,94,68,43,34
51,257,417,187,93,65,42,34
49,246,415,215,98,64,40,36
52,258,381,203,105,87,58,38
49,258,366,196,97,86,61,38
47,255,391,212,91,75,57,35
51,191,353,212,99,96,79,40
51,181,405,201,116,103,80,38
51,183,424,205,113,97,74,36
52,176,417,211,110,103,76,38
57,216,423,193,124,116,80,40
47,213,426,221,131,101,60,35
49,214,426,237,117,106,70,37
48,225,537,304,117,104,73,40
46,224,553,303,118,106,73,39
62,325,552,294,104,101,71,44
69,330,542,319,94,102,73,46
71,340,520,306,90,96,68,47
75,381,486,243,81,87,61,48
82,414,503,240,81,83,60,50
70,331,500,256,80,91,65,45
72,328,512,199,73,93,68,46
75,334,546,204,79,96,69,46
68,279,513,205,92,97,70,40
66,262,496,187,95,96,72,39
62,249,481,180,92,78,67,35
60,254,513,214,106,73,66,34
57,246,514,224,107,75,65,36
67,303,510,228,95,72,65,40
63,294,528,255,92,64,57,38
71,327,541,251,97,63,58,43
66,316,472,207,86,59,58,42
63,309,407,184,81,44,52,41
61,252,340,187,96,53,53,40
63,258,287,170,102,55,52,41
53,207,250,166,101,54,48,36
51,207,231,170,95,51,39,33
51,208,317,223,106,54,38,31
57,223,366,214,99,48,37,32
59,214,433,259,95,47,35,33
57,211,432,256,91,47,36,33
60,214,454,254,101,50,40,34
62,226,443,226,90,46,41,35
52,220,495,250,82,40,36,32
84,308,494,233,87,43,45,42
90,325,492,231,104,56,47,44
89,328,465,230,107,59,48,43
88,327,425,231,105,63,48,42
88,318,376,200,107,65,50,41
59,212,315,145,104,65,46,29
51,186,326,164,86,54,44,27
56,182,352,175,83,48,40,26
57,163,405,203,101,47,50,28
66,192,382,272,124,53,55,34
64,192,365,282,122,51,52,36
64,188,367,288,122,50,52,37
59,178,348,297,119,50,53,37
59,181,302,265,106,59,45,38
46,144,315,206,79,55,37,33
65,226,324,200,96,60,41,42
66,228,303,177,98,67,42,41
65,224,319,179,96,68,43,42
65,226,362,189,93,56,40,42
71,292,414,191,90,56,44,42
52,233,417,186,93,53,39,31
51,236,425,195,93,44,40,30
56,302,454,187,91,42,38,31
56,302,441,180,92,47,42,29
46,250,405,220,106,44,38,28
50,268,404,220,101,44,41,31
48,272,418,232,106,47,43,30
51,226,375,226,103,46,45,32
52,234,381,217,101,44,47,32
56,228,323,161,116,42,47,32
53,211,313,173,103,36,45,29
54,206,302,151,93,29,42,30
47,177,312,156,95,30,44,30
44,166,258,173,124,33,37,28
46,158,289,168,98,34,37,29
49,164,365,227,104,40,37,32
51,168,360,230,117,43,38,32
50,165,348,239,115,46,32,29
54,175,484,313,84,47,36,31
51,175,465,320,82,45,42,31
51,162,407,278,91,41,41,31
48,158,412,280,76,38,40,31
51,206,456,263,79,35,40,34
49,244,469,245,75,28,37,30
58,266,540,246,79,30,37,36
57,269,547,240,56,30,38,34
56,268,568,266,74,32,43,38
66,270,543,301,111,35,49,42
66,221,408,240,115,37,53,46
66,255,392,274,116,36,53,43
64,257,397,274,137,39,52,44
65,261,373,250,128,38,49,40
57,222,421,233,104,37,46,40
56,226,418,228,113,40,44,37
49,178,361,202,115,44,42,35
52,182,353,206,91,42,43,35
52,178,334,195,90,44,43,35
47,191,287,175,102,43,40,30
66,262,353,189,90,48,43,39
70,274,372,164,88,43,45,42
67,268,369,158,86,42,44,43
72,294,425,190,89,39,46,44
73,294,419,184,64,38,43,43
68,261,390,179,56,34,43,39
67,284,364,175,62,34,39,35
69,287,391,181,65,39,43,36
65,272,329,150,62,38,43,35
66,268,317,142,65,41,43,37
58,263,295,151,81,38,49,38
52,245,310,146,86,38,47,38
52,259,291,142,88,34,43,37
50,240,311,149,89,36,42,36
49,252,316,160,104,36,42,36
46,234,435,137,100,37,31,31
50,212,467,156,89,39,39,34
47,189,463,151,86,40,39,34
50,205,448,138,96,39,38,34
47,180,428,120,79,35,38,31
44,180,334,126,69,31,37,30
41,172,326,127,80,30,30,29
43,178,326,165,82,25,29,29
42,167,363,179,67,24,30,29
44,184,442,241,81,32,32,29
42,180,434,239,100,34,31,28
47,203,427,246,94,36,30,26
47,199,417,231,92,41,32,25
46,202,396,222,102,42,36,27
45,198,324,167,101,36,38,29
59,234,323,185,89,37,46,33
54,218,319,195,90,35,45,32
55,223,349,211,96,39,44,36
56,222,354,223,92,39,42,34
60,228,367,223,85,47,42,34
45,200,362,213,77,46,33,29
45,200,345,207,98,46,35,31
44,192,345,181,89,42,36,28
57,233,363,177,83,43,39,31
56,227,347,187,87,34,37,31
56,226,326,175,110,39,37,30
55,222,334,158,94,42,35,27
59,250,377,188,94,40,33,28
53,253,390,184,111,42,36,28
55,263,410,178,112,44,36,32
59,258,420,198,93,40,39,34
59,259,394,212,90,39,42,35
54,239,335,189,122,41,43,37
48,210,310,199,114,41,43,38
41,179,270,195,108,41,43,34
37,190,275,181,117,47,42,33
35,172,284,180,120,47,39,32
35,171,305,180,89,46,40,29
40,186,312,169,78,47,36,30
42,199,317,173,74,45,36,31
41,188,350,191,63,37,35,31
42,185,372,197,71,40,40,32
42,199,343,197,74,40,40,36
37,175,360,209,79,38,41,34
43,189,379,202,83,44,47,37
41,183,338,176,77,51,52,36
62,196,332,164,69,101,71,47
76,188,405,196,123,242,97,55
104,213,484,241,163,270,110,63
128,212,547,307,179,283,130,70
150,278,588,331,189,331,152,74
168,354,663,344,235,399,153,77
167,354,636,359,259,375,168,79
155,380,567,326,262,387,180,79
137,384,563,269,265,392,177,73
115,343,539,255,272,377,162,74
88,274,433,228,236,298,159,66
87,271,438,182,201,272,142,61
93,236,432,173,173,238,118,54
91,215,357,184,174,222,106,53
92,215,329,180,163,186,117,53
79,199,321,187,165,183,116,51
80,282,363,198,142,144,101,45
65,252,340,200,157,141,101,45
63,250,481,188,137,155,98,45
64,250,495,188,123,150,78,43
67,276,546,196,114,141,69,43
61,197,498,179,114,137,65,41
62,207,564,221,101,128,66,41
62,202,445,216,94,96,64,40
60,226,467,209,108,94,62,35
55,183,417,204,117,91,64,35
67,200,534,214,129,91,84,54
67,190,473,161,118,104,81,54
69,206,475,185,124,101,78,54
66,173,435,176,116,98,81,55
80,206,435,182,109,98,77,60
63,180,306,169,104,97,55,44
62,183,321,192,97,67,48,41
57,170,298,169,107,61,46,38
57,177,304,181,104,56,43,39
46,195,333,173,107,62,44,33
46,211,323,192,121,58,43,30
47,219,348,178,126,60,45,29
52,243,349,173,108,74,53,31
52,255,396,204,110,76,55,31
45,232,438,192,137,71,54,28
46,220,463,180,117,71,55,30
46,210,428,175,120,73,55,31
39,189,433,192,137,58,47,30
39,170,401,163,136,55,41,30
38,156,337,157,112,60,41,29
42,182,302,181,111,65,45,33
41,225,347,200,101,61,46,33
45,235,344,192,76,64,46,32
43,233,325,186,80,65,47,33
47,270,343,207,92,58,47,33
53,265,394,225,103,52,48,35
53,249,387,221,101,48,46,36
52,252,387,221,124,49,45,37
54,259,395,232,135,54,47,36
52,214,402,214,122,62,46,36
44,208,434,212,115,62,40,32
46,201,434,199,117,69,39,31
44,176,446,196,98,67,38,29
43,198,444,197,85,62,35,29
41,195,395,196,84,54,36,30
49,212,315,153,86,56,42,29
43,210,293,161,103,57,42,30
53,232,292,182,115,70,48,35
53,212,279,158,111,79,49,34
53,227,314,156,109,80,48,34
52,230,347,269,110,78,55,37
54,222,329,269,118,76,55,37
46,205,310,255,104,64,51,33
45,194,306,252,102,47,48,35
47,190,292,253,100,46,50,34
41,138,306,132,92,46,37,32
47,168,348,164,126,55,41,35
46,172,363,165,128,56,39,36
47,183,369,175,152,59,42,35
44,205,397,178,164,64,42,36
47,273,391,168,171,77,51,34
65,318,393,137,134,74,52,37
67,321,378,141,130,79,57,38
65,319,381,131,115,85,56,37
67,317,365,143,100,81,57,37
67,337,411,158,89,73,56,43
48,281,374,152,82,65,52,40
58,274,368,141,80,136,69,229
68,268,357,139,57,165,73,310
67,254,329,127,60,204,80,315
76,227,205,98,53,203,75,327
74,224,230,119,79,204,76,331
64,224,235,128,106,162,61,244
53,228,245,130,112,130,54,132
54,239,301,144,118,52,44,122
46,208,308,198,137,59,50,84
48,212,298,196,133,64,48,67
49,212,312,217,129,75,47,60
51,221,363,240,139,81,53,49
50,200,335,235,146,80,54,46
50,172,396,203,132,74,54,46
51,209,504,261,128,69,60,47
56,253,536,251,113,60,59,48
61,298,569,262,131,54,56,50
66,354,632,263,125,84,63,52
63,376,620,281,127,121,74,46
69,386,553,223,122,129,82,46
70,361,542,220,124,143,81,46
72,339,518,206,96,250,95,56
105,308,482,218,88,451,118,79
127,348,448,194,87,546,154,98
134,346,450,192,96,766,177,145
137,426,464,232,109,822,220,156
154,487,470,255,135,810,239,161
138,498,441,252,159,729,246,157
138,616,599,261,167,678,231,151
129,629,716,360,175,419,218,107
135,607,715,353,171,305,191,95
115,573,702,347,148,295,165,79
108,576,747,365,123,282,137,66
85,432,674,366,113,232,122,55
82,403,601,309,120,220,114,53
76,398,569,307,149,209,98,54
81,380,550,295,155,206,110,63
77,345,472,271,178,179,107,60
75,319,543,282,179,173,105,61
83,325,535,258,164,173,101,62
75,282,551,236,136,160,90,53
68,279,570,242,135,125,78,48
69,280,590,240,103,116,74,49
69,265,509,250,106,112,73,46
62,269,457,231,101,106,69,39
55,257,467,259,109,141,76,38
54,230,444,242,103,174,83,34
56,234,456,251,102,181,87,34
55,224,551,278,112,182,90,37
84,396,643,315,123,187,96,48
87,412,636,307,112,163,91,50
90,423,637,319,122,118,81,52
96,448,663,330,132,110,79,55
100,472,584,328,127,111,85,59
78,331,483,318,126,109,77,50
77,321,469,313,132,118,85,50
75,311,467,308,133,139,79,47
64,310,541,318,124,136,80,46
59,308,622,309,119,139,69,38
59,306,629,296,121,150,76,42
67,301,659,345,125,150,71,46
75,353,697,362,122,152,78,48
98,384,626,352,150,163,80,50
123,453,518,319,164,156,87,63
136,503,554,330,161,149,88,68
134,505,518,272,156,160,96,65
127,468,462,238,146,138,88,62
113,427,443,255,138,125,88,58
100,338,499,270,117,134,85,56
76,243,444,242,109,127,79,46
73,267,475,250,127,112,71,45
74,284,473,247,138,126,77,45
69,257,431,221,117,127,74,46
42,258,348,199,129,117,71,29
57,285,351,209,130,116,73,36
60,264,347,232,118,111,67,38
59,253,414,262,121,117,67,37
59,264,449,255,124,118,67,36
59,272,431,249,109,119,62,37
51,295,518,324,111,120,66,39
49,300,510,295,98,118,61,38
48,304,495,321,86,100,61,39
50,305,463,309,87,100,59,39
49,279,484,319,122,103,63,40
53,232,394,244,127,107,66,37
53,222,421,248,150,107,67,39
67,248,431,199,188,111,66,48
75,259,446,208,199,132,71,52
81,260,447,204,183,133,76,56
85,311,531,228,183,137,76,60
88,351,512,234,167,128,74,59
79,337,492,237,118,121,75,54
71,324,486,239,93,99,79,52
69,339,490,269,110,152,89,53
56,290,410,241,102,152,82,44
52,247,395,237,127,156,86,45
62,241,387,232,133,156,86,47
64,263,411,233,144,168,84,45
62,266,424,242,156,128,79,44
67,266,426,292,164,131,87,47
69,262,492,306,143,131,86,46
60,262,513,298,146,138,90,43
62,241,506,299,143,129,93,48
68,287,523,297,117,118,87,49
71,314,503,253,125,115,79,49
73,352,469,270,133,118,78,49
79,354,414,268,133,128,87,51
77,349,387,258,134,119,80,47
69,295,309,236,135,119,83,45
63,271,293,220,132,113,82,42
59,233,265,180,136,102,80,42
46,214,273,176,131,76,61,36
54,282,368,227,123,95,58,36
49,278,374,201,119,98,51,29
48,271,364,227,113,96,50,28
45,255,349,222,100,97,48,26
67,327,412,229,93,96,50,36
59,274,332,172,97,73,47,34
62,282,388,251,125,78,48,37
67,287,404,234,127,87,52,41
69,298,439,238,136,85,52,41
51,230,436,242,143,84,48,37
60,316,548,289,145,86,53,40
60,320,523,223,130,84,50,38
53,309,508,224,124,72,46,35
49,303,475,222,118,93,44,35
54,329,504,244,113,93,55,35
51,269,401,192,108,99,52,34
49,252,393,194,112,103,53,35
49,250,403,199,105,108,60,36
50,241,423,209,105,90,59,36
51,212,362,164,113,96,52,31
49,203,410,163,113,91,54,32
51,224,494,182,113,85,55,34
50,217,488,163,114,83,49,31
63,271,462,154,120,88,50,39
57,256,444,151,113,81,50,38
53,265,388,149,113,76,48,37
50,250,244,121,105,66,45,36
58,288,258,137,109,64,43,37
48,296,382,146,113,63,48,37
50,303,468,242,121,61,47,39
48,280,471,246,114,59,47,39
51,284,481,254,124,75,45,39
43,259,486,261,141,83,45,38
37,204,416,263,135,80,40,30
43,228,333,210,127,80,37,34
44,231,334,218,151,87,38,32
49,268,346,212,140,80,39,33
48,261,334,197,127,70,39,36
48,253,312,214,127,67,39,38
42,224,309,192,151,70,37,32
43,219,370,213,132,60,35,34
42,197,417,245,133,59,32,35
41,189,407,244,131,59,34,31
41,191,425,211,135,65,32,30
44,207,451,226,122,80,45,36
44,216,392,191,122,94,52,35
46,198,337,171,136,94,58,36
46,204,336,174,133,92,57,36
45,202,378,244,123,88,59,37
43,193,373,230,106,72,52,31
56,211,432,253,120,63,47,36
47,190,419,241,101,71,41,31
51,197,455,245,96,73,44,33
57,237,464,244,113,79,50,36
60,225,430,245,135,86,51,38
50,232,405,226,124,81,50,34
52,231,411,223,127,74,50,36
49,221,373,225,127,84,51,35
45,219,351,159,128,86,48,33
44,239,367,144,111,78,47,32
43,234,335,145,104,76,46,31
43,245,327,139,102,80,45,33
45,245,330,134,102,68,45,34
59,241,315,201,97,63,56,43
58,230,287,208,91,63,57,44
54,205,287,199,93,65,57,44
53,189,302,211,109,59,60,43
53,200,297,219,110,60,60,43
42,193,291,169,104,63,46,30
39,188,316,162,117,72,41,26
42,194,336,186,127,75,42,29
44,195,318,174,122,75,37,28
48,194,330,168,122,71,35,29
42,169,279,149,119,67,32,30
45,176,322,209,113,60,36,31
41,163,285,193,108,56,38,27
39,176,285,195,101,54,39,26
32,163,284,191,101,58,38,26
45,262,405,203,100,55,40,25
43,264,397,173,115,54,39,26
46,279,423,174,106,51,37,27
47,274,424,165,107,48,33,26
48,278,424,173,116,43,33,24
46,203,358,162,115,45,35,32
47,194,301,143,99,46,34,31
46,185,286,154,112,55,36,31
46,180,283,160,108,55,35,32
46,174,283,149,118,60,36,32
40,141,349,190,115,61,34,27
43,147,404,202,117,68,39,34
48,160,437,201,109,62,41,40
49,169,461,210,111,70,46,42
52,191,498,236,114,73,46,41
53,223,480,220,119,74,45,40
51,216,494,232,111,68,43,37
50,201,485,247,109,70,43,31
48,200,473,245,103,65,42,30
46,198,448,228,74,69,43,30
51,212,399,231,70,75,50,32
57,255,452,247,66,75,51,33
67,267,454,249,77,73,65,44
69,270,462,249,82,85,64,44
79,344,488,246,95,96,74,49
77,313,503,279,127,118,80,51
74,310,453,263,167,163,91,64
70,306,457,275,177,194,112,68
73,317,456,274,190,213,125,75
81,245,447,284,197,264,143,88
80,256,430,248,199,284,157,88
83,230,383,247,184,282,159,82
80,230,446,246,179,268,141,74
81,237,459,250,166,249,132,71
65,217,430,260,162,192,117,54
64,213,414,249,143,153,106,54
57,197,425,227,123,113,94,49
53,225,322,184,125,110,96,48
49,246,483,262,136,113,97,47
53,277,538,244,133,111,87,45
51,282,556,253,152,99,75,42
54,313,614,281,166,96,76,40
56,294,627,294,156,82,69,39
51,270,523,235,143,78,63,35
61,273,469,259,149,71,67,40
66,267,499,256,125,70,61,41
66,231,404,218,114,71,61,41
65,232,400,284,124,77,65,41
64,211,376,273,121,74,65,42
51,181,406,274,114,73,60,35
42,174,341,270,127,73,55,31
36,175,350,272,119,70,50,30
36,159,311,184,110,69,48,30
39,196,367,201,128,70,46,30
36,171,347,176,117,66,41,27
44,169,348,172,97,60,43,31
48,195,385,169,95,66,48,31
50,200,468,177,94,59,44,30
56,176,464,156,65,58,45,36
56,179,472,157,60,57,50,38
52,179,495,181,59,56,49,36
54,158,479,221,58,46,51,37
53,160,439,223,70,53,52,38
51,151,389,232,79,56,52,34
51,153,358,218,80,55,47,34
52,159,404,216,81,65,50,40
52,179,390,178,84,69,48,40
49,190,390,175,80,67,49,40
45,188,426,201,93,69,51,41
50,195,493,276,111,72,58,43
45,184,450,262,114,101,62,37
42,171,447,263,111,132,65,36
42,177,413,253,103,136,66,34
40,211,396,226,88,136,63,34
42,213,399,178,67,135,62,34
44,254,401,186,95,110,55,33
50,259,396,190,99,65,46,35
53,286,482,215,103,57,52,65
70,288,512,232,110,55,60,130
75,311,546,239,110,62,65,162
85,317,553,265,103,79,80,186
83,305,564,264,106,89,84,208
89,286,504,253,109,103,87,220
80,262,453,237,110,104,82,203
79,254,373,192,119,109,78,181
72,244,360,163,106,98,67,158
72,264,363,156,105,99,63,130
62,257,349,163,102,86,51,95
67,296,366,186,101,97,63,61
59,279,317,192,91,88,63,49
56,253,306,181,89,85,56,43
70,274,353,208,88,75,65,44
71,267,352,187,80,76,65,40
63,222,354,173,96,59,55,40
63,216,343,159,100,57,50,39
65,235,376,163,100,54,49,40
50,200,341,157,101,51,41,35
46,222,353,175,115,43,47,41
45,214,339,167,96,39,43,38
70,348,379,169,87,41,48,42
73,348,343,158,99,42,50,46
79,351,336,163,97,44,44,48
81,348,342,170,83,42,37,43
82,357,345,168,112,50,39,45
63,234,310,190,124,51,33,40
56,209,323,196,112,46,35,35
47,198,293,166,112,52,34,28
50,223,355,196,128,57,41,31
45,221,363,202,106,52,41,28
46,213,361,183,91,51,41,30
47,226,345,188,102,56,38,29
48,249,382,206,97,51,38,31
44,248,487,188,78,48,40,35
44,237,478,176,74,53,41,37
43,240,478,171,76,53,43,36
40,228,466,156,63,51,42,35
35,199,446,136,66,49,45,33
38,162,240,123,68,50,51,34
44,172,277,177,76,44,52,34
42,185,281,180,75,44,51,33
46,194,291,187,78,42,51,34
50,198,276,186,86,43,50,35
57,205,328,233,87,42,44,36
58,211,318,229,83,42,46,38
58,194,312,230,83,45,47,38
56,181,316,229,78,74,47,39
54,221,321,228,67,80,49,38
50,227,339,182,56,84,47,35
44,216,319,149,46,85,42,35
51,242,368,181,49,144,79,41
51,241,360,176,64,183,96,42
49,191,349,176,76,197,97,42
44,146,283,181,82,213,103,42
