249,309,434,217,189,141,67,108
241,321,464,179,187,156,82,117
228,284,435,165,179,162,77,105
223,281,423,173,174,156,77,98
210,255,427,169,150,132,76,88
209,252,378,164,149,137,77,90
205,266,361,183,154,123,66,83
185,245,333,171,145,117,65,64
200,246,364,175,153,156,76,84
250,237,339,180,150,162,76,90
281,275,367,185,144,158,76,100
292,239,340,191,150,154,72,97
289,240,332,191,151,152,73,100
273,244,300,191,131,126,62,86
269,264,289,195,140,128,57,89
236,212,245,196,147,137,58,82
226,252,284,183,133,148,62,79
262,250,274,185,131,145,60,94
262,273,349,224,156,137,61,93
225,279,390,234,155,136,66,93
232,278,382,220,147,129,64,86
224,247,379,215,144,134,65,90
199,277,391,224,154,142,71,78
206,249,330,184,138,145,73,79
201,221,306,168,149,149,74,75
208,219,301,166,150,153,78,79
223,248,314,179,145,138,76,77
197,224,414,178,155,145,70,81
235,248,431,172,152,134,62,86
232,246,423,161,129,123,60,82
222,249,438,180,135,119,55,81
215,249,443,196,161,121,51,83
224,250,344,195,142,108,48,79
184,244,304,192,137,117,50,75
174,253,318,186,138,115,52,70
164,276,308,194,139,114,53,65
173,251,304,167,141,117,54,62
168,263,383,175,143,120,51,59
150,242,396,174,142,127,52,54
198,246,406,186,149,131,49,63
216,224,408,169,151,136,49,64
226,249,391,165,125,127,53,63
251,260,333,148,121,122,54,74
283,277,358,154,138,122,63,97
260,266,351,215,140,116,61,95
253,264,353,218,151,117,63,97
241,244,332,219,151,124,62,99
207,240,319,223,152,125,62,87
200,227,285,227,145,119,50,63
206,222,293,171,150,117,57,69
208,216,340,169,134,108,55,70
195,203,365,177,133,117,63,74
264,168,393,205,140,121,63,103
238,186,408,193,143,123,67,105
248,220,374,182,145,147,65,104
241,224,335,180,140,148,66,104
258,224,306,172,145,146,58,105
209,235,316,157,152,152,59,78
218,285,343,166,142,146,60,86
203,255,351,177,128,134,55,84
206,266,347,174,134,138,64,84
195,265,356,170,126,130,62,76
220,268,335,160,119,135,64,80
234,223,296,159,135,144,66,72
223,226,315,163,149,150,71,71
251,212,320,166,146,147,66,78
259,261,342,189,152,149,66,83
232,250,322,194,150,145,70,78
242,254,311,187,141,142,68,84
265,308,312,185,135,136,68,88
241,309,298,181,135,144,81,85
231,296,278,179,126,140,81,81
329,407,283,171,138,134,87,104
370,415,311,176,138,128,87,125
424,427,330,169,121,113,85,127
430,432,362,179,118,106,73,126
451,424,361,193,122,121,77,134
402,332,351,185,108,134,66,119
360,338,356,197,110,141,67,96
310,279,340,224,147,167,72,100
326,275,352,236,176,179,70,100
313,267,353,219,177,167,64,90
294,263,346,217,172,154,63,97
348,294,326,204,170,155,62,107
424,374,341,191,148,140,58,124
422,413,309,197,131,140,73,127
462,443,306,187,124,158,75,126
499,452,321,194,158,160,77,131
517,469,334,198,162,155,81,124
459,414,304,187,168,152,83,98
465,386,306,183,173,151,74,96
416,343,292,188,176,139,71,98
411,401,301,202,164,146,79,92
340,332,282,202,157,141,73,80
321,322,273,198,153,145,76,85
290,305,263,169,142,137,73,83
363,358,280,172,149,146,79,101
313,267,287,171,139,134,66,94
304,263,272,180,162,151,73,97
326,294,294,193,172,163,67,91
340,332,348,200,178,164,70,88
304,343,365,196,180,159,64,68
320,401,355,186,179,180,78,72
417,466,364,197,180,170,69,76
437,462,354,202,174,151,71,88
462,481,342,198,165,149,70,91
477,500,336,204,172,142,72,90
483,466,356,206,180,114,61,96
417,423,353,194,178,109,67,103
404,424,370,186,175,115,63,102
388,408,387,191,176,115,61,100
333,327,382,183,164,121,57,96
324,310,368,176,159,122,61,92
316,296,374,158,138,129,59,79
273,269,378,164,134,124,69,71
240,217,321,159,126,116,74,73
231,212,298,151,116,105,76,74
198,220,325,163,103,103,71,65
199,196,333,169,108,115,70,68
188,209,322,155,96,107,57,66
178,226,353,162,103,115,55,66
172,224,383,162,119,123,54,67
204,264,364,143,120,124,56,82
170,348,445,150,126,108,51,76
174,351,479,141,135,112,51,77
197,347,484,128,137,109,52,78
254,357,500,152,133,110,56,97
236,322,503,151,131,111,58,90
275,224,427,148,128,113,59,102
276,209,419,151,126,118,61,103
303,226,432,144,115,114,57,114
269,250,423,116,119,104,58,103
273,252,427,117,114,97,55,100
264,271,421,116,106,88,54,92
271,312,400,108,94,89,51,93
217,290,368,127,96,91,53,72
227,270,359,147,94,96,51,70
246,279,323,141,93,100,53,85
209,264,321,138,98,107,58,82
202,215,307,145,104,95,61,79
217,226,293,140,106,103,61,88
191,212,257,130,97,102,59,83
157,190,250,138,108,103,56,68
185,190,266,145,104,94,52,68
189,193,238,141,106,96,46,69
232,206,291,136,105,80,44,70
247,243,323,128,101,73,41,70
242,242,322,132,101,77,42,70
269,301,364,129,104,87,44,77
280,336,372,147,133,96,46,80
264,360,354,155,145,103,51,71
254,335,324,155,150,109,53,69
264,341,328,151,150,109,52,74
237,293,302,139,151,104,55,73
229,271,292,131,138,100,56,72
276,258,278,130,130,104,53,101
278,301,295,137,136,110,58,104
271,307,295,137,141,105,58,101
259,322,326,166,148,117,67,103
247,321,374,192,145,113,66,100
200,317,367,185,137,105,64,74
201,276,368,183,122,98,61,72
201,273,401,178,116,110,64,70
240,247,355,165,111,107,52,65
242,224,312,133,107,111,50,67
215,182,300,136,113,122,56,66
202,181,318,135,114,115,51,62
201,188,366,141,105,101,52,69
151,200,383,152,107,87,48,60
140,191,392,142,97,77,49,61
160,211,390,144,90,60,47,61
163,231,380,143,108,77,48,62
164,225,309,144,119,85,45,56
169,227,328,118,105,85,47,58
198,243,310,114,108,94,50,59
173,221,333,103,109,106,48,56
182,214,367,105,96,98,51,58
176,218,382,99,88,98,49,58
183,216,383,106,99,100,47,60
155,196,388,112,105,99,44,57
186,219,383,113,106,89,43,64
186,214,359,115,110,94,45,63
197,198,346,119,124,98,48,71
180,181,296,115,121,98,51,66
192,193,289,120,118,98,52,69
170,183,274,141,127,98,53,63
177,202,290,142,128,94,51,63
177,227,269,140,108,86,49,58
186,233,318,140,110,88,49,66
169,237,325,137,105,88,50,69
154,226,316,115,94,84,48,71
179,224,344,116,95,94,57,77
174,202,350,120,101,97,57,74
174,266,408,143,100,109,69,75
186,266,407,141,104,103,67,75
198,276,436,179,121,104,68,81
183,255,401,178,108,100,62,70
184,264,429,176,106,95,67,73
191,210,333,149,106,93,60,75
197,192,325,146,105,99,61,71
186,234,337,118,102,97,62,69
169,260,347,120,107,91,59,75
175,267,311,114,111,106,57,73
167,272,370,119,124,110,51,64
178,317,530,145,128,111,49,65
182,294,507,136,116,118,46,67
178,306,497,145,120,119,51,71
177,290,503,153,117,103,46,70
167,285,475,155,98,84,45,69
165,238,282,141,91,75,45,73
191,238,279,134,86,64,45,71
209,197,299,124,78,60,39,62
203,213,284,116,69,67,44,68
212,197,275,116,68,68,50,78
199,202,313,107,67,79,51,73
178,226,332,120,71,77,51,73
153,220,327,114,81,81,55,77
212,250,333,108,89,84,51,73
201,259,358,111,94,88,48,62
191,265,381,113,105,93,52,64
188,222,364,99,102,89,50,63
190,240,373,99,101,105,51,69
107,200,370,133,114,112,51,64
120,230,396,158,132,112,53,68
134,217,364,173,134,101,49,69
124,237,366,200,147,106,51,68
128,224,335,228,166,111,56,67
227,219,333,215,159,111,55,78
233,226,328,224,149,120,51,76
234,230,346,238,161,127,56,78
262,224,450,231,161,127,56,89
320,282,462,239,138,105,49,88
272,304,473,246,137,105,57,82
303,275,428,225,133,94,60,94
328,282,415,227,138,98,60,92
320,283,326,248,137,97,62,87
281,216,313,225,143,113,62,92
298,185,307,217,142,103,54,106
278,186,303,208,143,106,52,97
252,176,349,223,122,121,55,101
254,205,355,202,120,123,50,102
238,215,340,194,117,136,60,96
252,239,354,216,123,136,63,104
248,238,353,235,127,140,67,102
236,236,313,212,140,125,65,94
235,196,263,205,139,131,68,91
264,236,290,212,137,108,62,106
257,235,278,222,152,109,63,88
252,247,310,222,147,100,58,89
325,254,307,209,124,92,54,111
315,278,318,204,121,89,52,113
298,257,308,220,130,97,59,103
272,240,314,191,105,108,60,99
267,220,303,173,104,105,58,98
194,207,284,171,113,108,59,77
208,276,287,190,135,105,68,76
192,263,294,177,121,92,62,72
207,301,312,174,124,75,61,70
197,308,305,185,151,97,63,71
179,354,404,188,157,113,65,66
198,292,444,180,142,109,55,66
214,300,462,170,148,119,54,64
208,267,460,165,145,121,50,68
206,267,462,169,158,116,51,66
204,226,458,186,154,96,45,69
177,230,430,191,152,98,43,65
198,238,412,196,153,100,43,64
180,235,385,208,163,99,47,59
198,230,393,200,123,90,46,67
207,270,350,180,120,113,52,73
211,282,368,178,119,110,54,69
171,307,362,166,121,104,51,66
197,320,361,156,116,107,48,70
185,327,369,162,129,108,51,64
187,286,330,156,121,83,44,54
176,265,281,138,114,84,46,57
174,224,294,134,115,77,47,60
152,214,298,124,104,73,47,55
167,240,284,126,90,78,44,52
171,244,266,132,92,85,42,52
165,251,265,134,101,96,44,54
161,261,267,137,100,117,44,60
151,269,298,149,100,116,44,62
183,264,290,140,113,112,46,66
192,267,289,139,113,108,50,72
193,282,301,131,109,101,46,71
196,267,296,150,107,79,52,76
200,244,274,152,121,88,50,75
153,222,308,162,113,93,49,75
129,221,310,155,118,103,46,72
135,207,306,163,125,103,49,72
146,247,302,182,141,101,44,62
146,247,295,190,134,98,46,59
144,243,270,193,143,103,45,58
167,234,299,212,145,99,45,55
211,266,331,211,156,114,49,63
213,227,313,186,146,114,51,67
218,277,449,212,165,115,54,72
220,284,459,209,165,116,54,72
208,342,485,218,182,123,54,79
175,339,470,218,174,114,48,71
203,359,500,220,170,115,53,73
213,336,399,184,157,117,50,88
218,330,413,212,158,114,52,92
244,329,364,229,145,109,60,97
252,392,411,232,141,103,64,106
216,398,413,229,147,111,64,105
202,400,479,261,146,113,66,91
212,421,496,246,139,110,69,95
213,432,625,233,125,108,68,94
192,361,606,233,136,117,66,84
196,374,627,272,161,135,66,78
216,398,571,250,164,155,71,85
206,383,578,310,183,152,71,80
175,334,437,291,188,160,77,74
172,330,423,314,215,159,80,73
170,318,381,333,224,151,79,78
217,368,516,338,221,124,77,70
219,366,497,274,208,138,81,72
207,359,502,273,202,154,85,71
212,357,580,276,187,161,85,74
230,335,586,216,151,174,88,74
176,258,531,207,161,182,88,84
164,260,557,218,159,177,84,79
170,255,575,218,165,161,68,77
203,282,530,178,140,158,70,88
190,285,510,172,138,135,67,89
188,303,506,172,129,141,68,78
194,296,474,165,130,154,74,81
200,316,456,181,147,175,74,78
179,345,509,199,151,188,87,75
177,349,531,250,155,187,85,68
200,328,516,240,157,187,83,78
205,323,487,245,166,177,78,78
201,328,481,257,162,152,88,85
213,272,395,259,158,126,69,77
238,267,380,216,154,130,68,81
233,272,347,222,146,115,64,70
225,283,342,214,132,133,70,72
217,246,342,214,128,137,60,61
190,259,363,212,133,139,61,61
153,265,373,215,140,134,63,59
147,241,355,216,139,133,61,60
162,254,505,265,153,128,56,57
200,289,517,269,143,136,64,63
212,292,523,267,136,132,64,74
211,279,499,256,122,127,61,74
212,276,529,262,132,151,63,77
206,269,419,208,123,148,59,77
202,242,405,196,136,138,47,88
201,233,398,204,162,191,63,82
202,236,417,234,169,199,65,82
194,285,391,260,175,188,67,80
191,372,480,287,171,180,69,82
178,398,489,292,173,197,82,83
162,443,511,297,172,181,73,85
232,563,592,327,171,173,81,107
242,576,619,345,169,167,79,113
260,529,601,343,174,169,79,115
252,535,634,370,186,159,74,109
260,537,704,416,204,127,75,118
207,460,716,401,210,133,71,105
197,601,843,497,228,142,74,109
185,642,874,514,231,157,77,110
208,676,892,522,231,147,76,114
234,714,866,491,209,145,78,111
236,725,874,515,214,149,78,109
228,634,846,421,190,148,81,106
242,668,883,399,229,164,84,109
249,642,859,375,216,163,81,114
243,634,881,437,226,171,97,125
269,610,876,398,215,172,102,130
292,622,812,426,213,164,100,127
289,548,696,425,165,134,100,127
266,531,702,415,168,130,100,119
287,488,647,346,150,147,83,105
265,460,602,348,151,152,81,104
239,384,567,281,160,159,79,97
246,410,665,273,159,162,92,101
255,411,659,261,142,161,93,106
203,351,606,242,135,144,96,95
203,367,585,249,140,132,92,91
237,388,602,261,134,132,92,97
231,372,494,294,133,126,75,90
228,379,488,314,165,137,77,97
238,389,489,325,170,129,71,101
253,381,445,327,183,138,72,108
238,423,472,399,190,144,78,117
216,429,495,381,195,145,79,115
228,393,474,374,171,140,75,105
228,382,480,368,183,153,72,104
206,380,507,380,182,182,84,101
190,323,455,297,171,177,81,102
206,278,457,276,158,175,77,98
201,290,455,269,156,179,92,106
211,314,469,254,146,190,99,108
222,319,459,193,125,154,85,103
220,270,409,175,119,147,83,93
213,343,470,259,136,152,93,107
241,353,465,263,140,153,77,99
239,396,535,277,142,140,72,99
223,395,556,285,142,144,75,97
230,423,611,304,158,149,79,99
231,384,539,282,166,146,68,87
203,377,537,270,162,134,65,81
198,325,474,296,170,125,64,77
202,335,455,309,192,134,68,80
182,303,413,291,189,131,60,73
197,364,455,256,170,145,72,80
191,416,497,261,177,146,72,84
179,424,499,216,166,147,75,85
182,445,497,200,149,141,68,83
198,454,479,279,149,144,71,85
172,405,456,284,151,128,59,78
165,361,452,301,143,124,59,80
201,433,523,319,150,124,61,92
227,406,510,323,150,111,64,102
227,431,569,268,149,107,65,104
229,421,549,252,149,102,64,103
243,448,505,228,151,104,64,106
217,379,438,193,136,91,55,100
194,406,474,197,123,100,55,89
200,419,432,189,114,95,54,96
210,416,415,184,111,94,56,97
204,391,433,179,111,97,63,94
195,376,411,212,120,92,64,91
252,389,425,193,128,91,68,102
241,325,439,180,141,97,65,90
230,342,492,200,142,100,66,89
213,314,496,205,137,98,57,86
232,318,473,190,139,107,60,82
150,257,436,183,128,93,48,62
185,293,386,187,107,95,61,75
224,295,373,183,111,122,75,98
233,310,412,178,110,119,78,106
231,311,440,172,105,125,83,112
262,312,450,174,119,144,87,121
240,308,458,187,128,143,83,115
208,290,424,187,126,116,67,96
230,293,378,187,131,122,69,91
220,307,370,244,164,125,60,89
248,315,382,270,175,118,70,98
246,315,436,265,175,120,68,96
241,303,457,265,174,127,72,95
229,292,459,284,171,120,67,93
241,291,465,249,147,116,67,91
191,289,471,235,129,107,52,75
182,264,403,224,122,107,52,71
197,279,424,235,122,98,51,79
204,283,423,213,118,97,53,77
240,280,414,219,117,99,58,93
230,261,361,202,105,91,58,90
234,266,371,204,112,95,59,95
223,272,387,195,108,93,58,92
226,282,377,224,131,122,60,92
215,291,406,192,115,111,53,76
213,288,412,202,123,117,55,73
230,283,410,206,122,115,53,82
229,298,375,186,121,116,51,77
207,282,393,153,99,88,51,75
163,263,435,159,99,87,53,76
169,261,453,159,109,99,56,81
178,259,511,177,99,90,57,80
188,215,496,183,114,103,58,82
184,211,497,178,116,110,57,82
185,220,445,172,117,109,57,82
192,245,424,157,115,101,55,78
173,270,354,174,127,113,56,69
175,282,354,184,114,101,57,70
187,295,372,193,115,96,55,69
199,271,353,198,112,94,55,76
253,336,381,222,114,90,56,87
293,373,397,195,123,110,63,97
350,450,414,216,149,125,67,104
346,457,406,217,151,124,68,110
342,492,393,244,165,138,71,105
302,452,417,239,161,135,69,101
265,416,428,232,160,129,60,88
183,340,406,209,157,136,56,76
217,323,398,206,160,144,55,77
224,304,527,212,157,134,54,74
233,349,510,198,150,142,54,68
227,356,568,211,136,123,63,76
223,340,560,197,110,105,60,78
253,360,560,197,98,100,63,76
257,358,520,186,87,99,59,80
247,304,515,182,100,105,63,85
254,288,406,164,94,104,57,80
270,323,413,178,103,100,58,79
233,339,456,189,122,101,56,84
244,336,395,162,115,101,56,83
247,322,388,174,128,100,50,79
245,351,514,189,135,99,48,80
246,333,526,182,129,103,52,99
251,317,481,167,121,100,53,90
227,301,488,163,126,103,53,88
227,318,492,162,103,102,56,86
231,303,387,160,117,107,60,93
207,302,421,169,131,123,57,77
200,271,410,160,123,122,52,81
210,276,426,165,121,129,65,83
208,263,395,160,122,122,64,93
188,248,476,175,123,119,60,87
223,263,449,175,117,102,62,87
198,274,490,195,121,123,78,83
211,279,470,200,126,116,70,95
217,301,488,225,133,143,77,87
258,311,430,223,148,173,84,100
235,289,445,239,148,182,95,107
297,355,422,264,180,176,93,110
297,392,424,289,199,187,98,106
295,410,421,288,196,200,104,111
276,414,458,280,175,187,106,106
280,501,476,265,175,219,118,100
231,477,537,248,146,221,117,101
226,449,592,262,126,226,116,94
248,422,611,251,144,215,110,100
250,440,585,262,178,224,108,111
239,348,553,265,171,185,87,111
262,342,542,325,186,179,81,109
258,362,543,340,194,168,84,109
248,363,542,338,196,186,91,108
310,340,515,332,184,199,104,90
316,326,508,326,185,196,99,86
287,302,507,252,168,202,100,78
273,251,431,192,170,203,94,76
257,237,409,185,157,172,86,57
173,227,412,192,138,135,65,59
176,243,419,192,134,138,67,60
177,254,334,192,134,128,68,72
186,261,308,178,115,126,77,80
197,271,318,176,107,123,76,89
225,290,314,174,138,127,75,89
258,342,348,183,157,144,76,93
258,339,349,191,172,146,77,91
268,350,386,185,179,142,78,93
262,341,381,190,181,171,76,84
224,326,399,180,168,175,81,81
177,245,357,170,161,168,79,76
176,236,370,169,152,164,74,70
161,286,356,189,152,189,72,62
175,318,344,202,147,160,68,63
211,305,344,208,136,152,68,69
234,337,395,214,138,162,78,89
268,394,438,218,127,160,82,98
273,346,441,224,118,127,75,96
264,366,484,216,136,139,82,101
250,381,533,217,148,145,79,102
230,360,503,218,144,131,73,82
245,305,506,221,153,133,65,75
237,302,492,195,153,135,71,81
231,243,459,177,142,129,67,78
335,360,566,221,167,138,72,99
351,382,566,213,161,145,76,106
314,398,563,271,178,163,81,105
320,406,575,278,178,171,78,98
350,458,576,283,180,165,79,105
267,439,473,269,178,184,80,94
255,484,537,310,189,183,84,93
274,515,544,265,170,169,85,106
269,529,555,282,177,159,86,114
232,525,635,329,188,162,84,109
224,484,612,315,165,122,79,104
243,458,621,282,163,113,82,116
255,484,619,293,197,124,93,130
261,503,647,286,198,124,93,130
264,492,565,256,190,125,92,131
244,518,559,258,180,119,90,127
212,536,581,270,189,123,79,113
206,495,599,250,154,114,62,85
213,529,632,259,140,123,74,96
205,512,626,227,133,121,71,90
215,490,722,250,148,132,83,97
229,511,741,252,127,125,88,107
225,493,701,257,131,152,94,115
212,422,634,238,154,163,87,101
223,435,681,250,162,167,93,111
252,441,567,237,152,167,85,114
238,403,513,233,153,163,83,106
209,411,636,238,155,149,70,92
215,444,689,251,130,145,88,113
210,419,660,255,128,147,86,115
187,414,705,252,132,148,96,122
196,382,677,246,131,149,94,126
193,361,584,240,123,130,96,128
178,305,523,240,130,129,85,111
213,350,580,240,121,117,82,108
204,347,534,280,171,120,81,107
207,366,514,280,186,135,84,107
237,418,497,288,193,155,89,116
261,544,571,287,194,139,96,127
248,534,504,306,207,139,97,130
284,554,548,250,165,150,95,125
305,530,562,255,147,135,93,126
287,491,578,239,146,122,93,122
281,377,505,239,142,139,89,116
328,471,574,224,127,156,92,116
294,444,553,238,132,141,95,115
279,489,589,250,150,161,100,122
286,550,607,272,143,167,104,130
281,544,599,259,138,175,118,143
212,496,605,286,144,162,121,149
241,568,674,309,164,175,125,171
298,648,674,321,156,171,129,186
337,701,738,325,156,166,149,212
344,757,775,348,181,154,138,213
351,784,783,330,180,165,140,210
360,747,726,338,168,153,137,199
342,707,770,340,173,154,130,181
316,660,811,346,195,159,117,170
298,606,861,327,188,179,117,154
290,541,817,379,191,180,113,154
283,584,875,399,202,183,123,156
292,599,863,418,224,209,153,177
300,557,782,419,209,217,145,157
331,562,759,424,196,198,144,212
331,586,789,380,202,194,151,229
307,544,725,323,213,239,146,227
335,501,657,285,209,206,118,214
316,556,696,301,210,197,117,217
304,554,675,324,238,215,123,175
304,534,662,330,257,216,136,151
306,500,648,345,236,155,124,137
230,455,674,330,210,167,138,143
258,395,651,286,237,193,134,131
266,427,618,277,230,170,126,119
297,458,681,307,205,169,117,138
320,476,662,289,199,184,122,137
345,528,681,314,223,183,116,148
368,612,723,365,203,162,124,160
361,576,712,341,179,182,140,166
342,561,680,303,166,185,133,153
332,563,722,328,169,174,131,152
318,548,759,341,154,171,130,140
306,455,759,330,164,170,129,144
301,485,749,352,199,167,117,135
303,492,694,405,229,160,112,133
329,559,674,407,241,202,113,138
356,613,703,383,230,200,105,140
357,625,592,356,224,207,137,168
378,610,643,339,205,190,133,172
386,607,660,315,206,195,133,181
353,569,716,342,217,155,131,180
329,486,605,347,225,154,129,182
309,552,731,358,239,140,87,141
270,551,693,356,229,146,86,133
251,595,704,324,212,165,89,117
315,597,694,287,186,242,131,143
293,651,738,281,180,244,129,122
312,602,628,289,145,254,148,144
326,628,646,292,145,250,151,152
326,585,632,285,123,238,144,149
271,592,604,309,151,170,119,128
279,535,596,312,159,228,129,130
230,487,598,273,166,224,113,113
238,448,606,270,167,221,111,113
259,455,609,262,173,220,109,115
251,402,572,224,187,232,99,106
241,414,547,209,185,180,85,104
239,484,557,231,177,168,69,92
254,489,525,230,181,179,80,96
237,489,512,223,179,173,91,104
268,575,540,226,164,188,157,155
271,555,555,218,160,183,168,172
287,497,515,193,150,178,170,172
258,488,521,220,163,197,168,166
259,503,533,232,166,206,173,170
244,532,601,266,163,182,122,128
292,533,557,273,171,192,108,116
296,549,558,273,203,275,151,132
308,573,621,285,194,290,169,142
323,525,636,330,193,300,160,129
314,373,508,294,173,294,160,133
264,378,544,314,172,292,165,126
232,372,572,318,162,246,136,110
220,361,524,313,231,257,122,110
192,365,471,271,234,249,120,109
202,395,506,263,238,260,119,103
207,411,539,231,255,268,114,105
233,406,524,237,254,263,105,102
238,430,526,225,209,235,108,80
246,453,559,205,208,220,106,85
237,440,634,222,201,212,116,92
253,404,558,285,191,208,127,102
243,430,591,277,174,180,123,103
233,357,567,257,155,205,123,111
301,375,580,263,153,211,134,130
306,417,610,287,171,220,143,141
299,467,714,296,195,223,143,141
374,475,730,362,199,221,153,167
402,481,721,366,198,178,149,171
397,477,751,386,207,187,146,167
391,436,666,385,205,185,125,151
406,506,694,358,173,163,113,141
347,463,681,294,164,163,98,112
325,463,689,311,169,155,83,101
294,425,617,297,167,148,76,101
307,433,624,290,167,135,81,105
277,333,501,282,170,149,91,108
268,364,462,337,185,160,94,105
248,369,464,312,174,173,105,104
213,403,488,324,179,185,110,99
204,449,515,317,187,210,119,107
255,425,465,291,177,202,114,122
252,400,448,227,163,195,110,124
253,402,464,247,190,184,98,125
265,450,509,241,170,179,91,124
247,388,466,226,148,144,79,114
202,371,466,236,153,142,74,96
200,376,468,233,148,147,84,97
225,381,501,262,152,189,110,106
208,300,447,246,164,180,106,98
215,288,448,250,175,180,102,99
208,297,494,365,202,196,114,103
202,299,499,366,212,195,111,103
182,314,483,378,201,162,94,91
166,299,457,371,192,156,95,89
153,303,438,364,182,167,97,87
134,289,407,248,175,168,85,79
216,324,450,267,188,170,89,81
225,378,434,236,188,163,83,85
225,362,425,227,189,160,80,82
227,377,452,237,193,148,77,83
252,490,568,233,164,176,81,94
212,481,546,215,140,183,79,100
198,420,509,180,118,182,75,91
216,470,545,211,145,193,87,102
212,465,537,223,148,202,95,101
196,383,402,231,187,153,89,89
164,344,391,220,187,143,88,78
159,380,489,218,191,150,91,83
129,353,471,197,195,159,85,73
138,352,485,190,188,135,72,73
127,308,496,217,165,143,77,77
157,329,522,229,166,138,71,73
147,272,441,231,157,126,71,67
151,230,450,242,133,92,66,65
172,249,470,239,134,95,68,75
168,265,488,213,110,80,60,77
174,269,436,224,109,79,61,83
189,274,427,230,113,76,59,84
197,281,409,216,120,91,62,90
179,259,353,210,121,87,59,78
188,315,374,216,130,93,57,74
163,309,392,191,130,94,59,66
152,306,432,177,136,102,66,76
139,309,434,176,119,106,67,72
137,321,450,169,112,107,70,76
120,270,439,171,101,102,70,74
118,249,418,179,95,115,70,82
105,265,413,182,81,111,63,73
106,258,397,176,90,98,53,67
103,231,364,166,91,103,51,66
124,311,392,155,95,107,52,70
156,329,407,154,96,93,47,68
158,322,380,152,97,91,45,63
161,320,428,185,105,93,60,75
156,325,464,191,105,86,75,73
137,253,434,191,116,90,139,89
93,241,443,185,119,95,179,100
88,229,425,177,116,88,194,104
96,277,467,169,114,88,196,106
120,283,471,176,121,96,199,119
115,254,438,165,106,91,167,107
114,248,421,153,96,84,127,95
197,308,474,153,107,99,114,107
196,307,415,130,102,101,108,104
195,339,471,142,93,96,92,90
219,350,465,146,96,94,86,90
217,344,484,159,115,95,80,89
156,325,466,229,136,88,73,78
149,278,448,222,130,74,66,68
131,223,327,222,128,75,72,71
94,226,355,219,126,75,79,74
112,230,372,217,112,90,198,109
101,198,335,168,81,83,216,110
102,219,330,171,84,90,221,116
111,258,388,162,89,86,223,119
119,239,378,179,86,87,238,121
101,241,369,191,86,75,165,98
108,278,446,180,77,73,141,95
118,278,473,177,75,67,136,95
128,284,526,199,85,78,141,105
113,295,532,186,82,72,112,101
120,294,526,172,82,66,97,95
118,270,499,175,84,65,95,90
107,292,508,196,86,66,91,84
84,272,466,185,84,50,74,63
92,288,470,199,93,54,62,59
87,283,501,203,90,58,58,59
85,296,513,227,96,63,52,55
85,272,487,223,102,67,51,58
98,257,438,203,89,68,45,53
129,330,477,185,78,69,50,70
133,372,469,178,77,70,46,67
131,349,447,139,69,72,50,72
135,355,463,147,92,76,57,76
126,400,525,165,100,81,57,78
93,339,490,164,101,78,51,60
91,299,453,158,107,89,60,67
97,317,422,184,135,93,61,67
98,313,388,171,119,86,53,65
96,259,295,151,113,81,52,63
95,245,284,159,116,93,54,66
96,318,335,194,120,79,47,61
100,368,400,182,92,68,45,59
94,372,400,178,88,69,45,55
95,378,406,184,96,73,55,60
94,398,454,191,97,56,52,59
99,337,410,185,91,70,51,66
89,264,363,175,89,72,49,64
87,245,362,175,88,68,48,63
88,229,380,174,81,69,42,64
87,197,318,195,91,73,45,62
77,243,450,215,108,62,44,52
73,232,454,235,141,66,44,50
98,236,480,251,152,69,51,54
117,307,552,279,155,71,54,53
152,345,591,271,151,67,54,65
156,324,524,266,144,67,54,66
160,327,517,264,121,64,55,69
149,377,528,275,126,73,54,72
138,338,470,295,148,75,53,73
99,304,407,301,164,78,55,64
88,300,474,288,157,77,53,63
87,333,507,302,178,79,55,62
93,286,555,323,181,79,61,73
90,328,542,286,163,90,65,77
89,327,573,286,155,94,65,81
95,326,552,284,159,100,70,87
126,348,556,268,139,99,73,94
135,377,507,279,139,98,70,88
141,337,511,301,144,83,65,85
155,340,513,287,137,80,64,85
167,388,487,290,134,72,60,83
152,362,451,316,144,77,58,83
136,337,429,258,137,72,48,76
138,325,413,236,134,73,46,72
142,340,458,246,137,74,48,82
130,373,568,264,138,83,47,79
127,417,681,305,134,80,52,79
134,415,701,320,126,82,67,92
133,441,746,340,142,102,77,99
129,471,741,350,149,106,78,96
152,409,664,351,178,106,82,106
151,352,595,283,169,108,76,102
144,342,564,273,170,108,64,88
140,320,511,280,172,89,52,84
130,246,512,271,177,91,47,74
97,261,583,289,158,87,43,60
86,252,531,284,151,77,45,57
109,325,631,313,173,102,63,82
126,343,649,291,164,118,74,95
125,344,604,286,152,112,72,96
132,340,540,270,168,125,74,98
147,369,573,291,192,131,79,108
136,314,599,320,176,112,69,97
130,310,584,313,171,96,55,85
123,296,584,320,178,99,62,82
129,295,597,338,164,85,60,86
122,319,606,348,144,78,57,76
118,335,487,310,162,91,55,69
107,339,534,321,162,93,56,69
112,366,637,347,160,96,56,76
119,353,597,308,151,93,55,72
138,319,664,338,164,105,70,94
139,315,713,345,151,100,72,96
146,375,719,347,159,106,75,99
156,370,630,322,157,99,73,101
154,385,642,335,162,98,77,110
136,440,626,327,149,88,62,94
141,467,647,336,153,84,78,109
139,412,640,336,165,86,74,104
126,453,725,325,161,86,73,102
141,480,764,317,155,93,77,112
141,465,759,309,174,105,75,112
150,423,703,281,167,103,59,103
146,415,676,261,148,93,62,101
152,384,630,288,163,98,67,104
131,367,574,288,175,96,65,84
133,311,549,233,153,81,64,82
111,308,546,227,156,80,62,71
113,304,545,232,155,81,60,72
152,298,609,225,149,88,69,109
175,266,627,227,139,82,62,112
185,326,618,228,146,84,63,115
191,381,711,265,139,88,68,121
213,432,744,294,160,111,85,141
190,420,655,303,154,101,76,114
165,437,683,309,160,105,79,113
145,397,698,330,164,110,83,111
152,363,614,316,186,125,85,112
135,418,627,286,171,107,68,87
130,428,656,259,168,106,65,83
134,411,597,243,158,105,63,78
147,480,610,259,156,99,57,80
160,536,655,259,129,78,57,92
144,466,599,259,125,73,55,91
138,449,563,249,123,73,54,91
134,452,611,265,130,71,51,87
128,372,577,230,123,75,59,93
119,261,535,237,133,81,61,87
113,217,506,232,129,80,60,83
136,294,518,237,131,83,66,90
140,313,498,233,132,81,74,93
138,345,508,229,134,86,70,84
115,338,448,179,111,73,60,67
117,359,507,185,110,79,61,67
105,300,511,199,112,89,62,68
115,294,492,189,101,92,62,72
135,248,443,206,92,87,63,79
139,293,454,227,99,91,63,81
152,288,398,232,106,85,64,87
177,284,378,222,106,73,56,85
169,310,405,222,107,69,45,79
150,303,395,205,112,79,44,74
149,300,478,200,115,81,48,74
160,293,510,196,113,90,54,80
117,346,600,195,109,88,54,79
112,285,577,188,110,93,55,78
117,304,625,220,118,89,53,77
123,294,643,219,117,84,50,77
93,317,655,221,112,80,48,66
101,268,570,225,110,80,46,62
100,280,580,227,105,73,45,61
94,270,553,210,110,68,44,61
90,292,553,217,113,75,49,63
86,271,511,206,118,73,46,64
80,259,502,190,119,75,46,59
84,247,507,186,133,86,57,72
88,243,516,189,122,84,56,70
105,260,411,175,114,76,55,73
103,245,416,176,112,73,54,70
101,249,445,185,116,75,57,74
110,275,496,187,104,66,47,67
116,321,495,202,109,69,54,75
93,284,499,198,109,71,49,68
97,295,511,206,105,75,51,68
116,325,506,198,98,75,52,66
116,329,524,204,103,78,61,77
110,281,501,159,82,71,56,71
110,269,497,180,86,71,57,70
114,315,550,194,98,80,57,71
124,387,637,234,129,94,60,83
131,371,565,233,123,92,54,83
127,370,542,234,124,91,53,79
127,369,534,215,119,89,52,78
152,432,570,230,136,90,55,93
130,356,461,191,109,80,48,80
121,359,443,176,107,74,42,68
124,374,454,171,109,76,45,72
129,370,449,169,112,75,44,73
113,230,313,129,83,61,40,63
113,205,313,129,83,56,39,65
112,201,368,144,84,53,40,67
109,172,354,146,87,56,37,63
111,178,396,141,89,61,42,64
105,244,482,173,102,78,52,67
106,258,494,203,109,74,53,65
100,246,458,198,109,77,54,60
117,317,546,235,128,82,62,69
116,378,555,249,141,85,63,71
113,348,498,227,130,76,55,68
107,343,476,207,127,75,54,66
104,342,487,202,123,72,51,67
118,303,409,161,100,63,43,71
112,252,374,181,87,55,41,69
103,242,347,185,87,44,34,59
108,283,390,178,79,44,35,60
118,284,374,182,82,44,39,67
96,269,399,203,90,69,50,65
97,257,426,193,84,70,49,65
96,263,419,181,77,70,50,65
90,210,362,176,81,72,53,74
83,247,426,193,94,78,58,80
73,257,387,168,88,58,47,71
92,294,405,168,90,64,52,74
103,296,397,169,94,64,52,78
115,297,415,180,94,65,55,84
128,306,375,171,96,68,54,75
127,293,374,176,108,82,60,77
117,267,328,159,116,82,60,74
107,255,339,153,116,82,60,69
95,254,326,140,115,83,55,52
81,227,329,116,104,85,53,55
88,223,304,102,92,79,51,60
95,183,306,88,78,85,58,78
100,245,306,106,86,90,62,79
116,259,301,104,84,100,70,91
117,288,370,115,82,112,78,90
127,288,374,114,85,113,82,91
119,313,378,125,83,108,75,77
128,314,418,136,78,105,73,80
137,302,425,142,100,109,74,84
135,275,381,143,107,98,65,88
131,296,390,154,111,94,59,97
138,280,400,156,116,98,58,96
143,250,384,183,149,113,59,97
122,247,383,187,144,118,63,88
140,281,435,208,158,119,68,99
140,267,425,201,152,119,70,88
144,290,436,199,156,117,74,92
148,287,409,168,142,107,72,87
174,316,428,173,151,96,66,92
173,314,398,186,142,91,64,79
190,319,418,198,145,90,63,85
200,388,424,211,154,111,70,90
193,385,468,229,154,113,73,93
178,377,473,223,142,133,73,85
174,371,458,192,134,138,70,84
152,376,534,200,142,149,77,83
132,275,566,209,139,137,70,78
146,280,551,194,137,154,96,86
152,297,674,223,148,136,94,86
191,268,692,263,179,131,96,95
195,311,677,271,181,120,90,90
210,314,644,261,176,135,92,91
206,323,627,259,175,137,65,86
211,305,474,253,193,147,73,93
255,331,470,264,169,150,72,94
279,313,465,280,171,180,86,108
292,308,436,274,169,171,85,109
292,300,484,294,189,204,102,112
288,330,514,290,172,196,96,110
225,333,506,260,174,202,104,104
199,300,439,222,176,181,96,96
211,323,549,241,185,180,94,109
213,338,517,256,168,124,81,107
214,365,586,299,171,138,81,105
206,394,590,307,190,133,70,101
220,437,631,316,190,128,67,104
217,446,547,308,190,147,83,96
206,438,551,275,187,156,85,91
211,405,472,242,180,154,89,99
256,401,462,233,188,159,95,109
262,382,475,236,178,163,95,104
246,392,507,252,176,147,87,96
258,383,489,254,170,135,80,101
251,359,492,247,187,152,75,91
218,324,507,261,215,146,73,84
217,346,511,292,230,164,87,104
197,304,463,293,271,195,105,100
194,309,460,291,271,193,105,97
190,355,493,284,276,184,108,97
264,390,457,290,246,183,113,104
251,354,379,262,257,174,103,85
251,350,369,244,227,152,80,85
258,345,412,257,231,158,90,97
273,321,389,267,228,152,89,100
202,262,356,241,225,158,86,91
209,239,421,252,204,152,85,95
214,275,444,266,204,182,95,105
191,281,417,253,210,181,85,91
219,269,363,303,229,180,96,94
209,264,370,300,222,177,90,92
188,311,361,288,217,171,91,91
271,320,339,271,200,125,83,92
290,334,412,295,207,127,93,100
260,332,407,225,182,134,79,94
296,320,423,229,182,125,78,111
347,325,392,224,196,158,81,115
296,296,400,226,195,153,76,109
309,284,340,187,177,163,72,107
317,291,370,232,183,167,72,105
295,297,435,270,200,229,98,92
245,267,424,290,220,234,94,84
233,312,449,316,229,251,95,82
233,326,450,323,259,257,94,82
266,383,478,314,280,281,101,84
255,391,507,312,307,253,88,87
306,403,509,282,293,235,94,90
357,380,499,246,316,234,107,101
333,366,500,245,302,218,102,99
358,366,471,219,280,181,106,113
362,367,391,159,238,160,98,106
321,340,374,175,241,194,114,104
272,334,348,181,191,186,111,98
293,355,356,184,196,194,125,107
246,301,347,185,198,198,118,97
249,329,376,183,193,200,124,106
279,350,385,174,181,170,105,103
275,389,449,181,197,167,99,105
249,378,453,192,177,165,79,92
239,380,564,240,179,172,78,91
223,339,525,254,178,172,75,81
206,324,518,257,178,184,80,80
213,285,551,332,257,189,96,73
224,280,567,335,261,185,103,92
220,245,490,351,286,192,111,88
284,298,541,376,300,210,121,91
262,338,575,386,314,193,116,90
268,326,563,330,277,191,108,96
291,336,537,330,284,192,109,88
294,369,540,313,258,186,106,89
253,336,502,291,254,199,96,93
284,306,477,296,244,197,99,96
282,321,435,328,253,194,96,93
271,319,472,344,269,206,99,101
265,313,490,316,254,201,92,101
260,360,603,371,269,199,90,109
265,378,684,421,279,217,122,132
271,366,706,425,265,209,120,136
285,381,717,423,256,200,114,134
285,497,717,435,287,214,114,134
289,470,620,419,288,198,125,137
254,446,511,373,287,186,92,115
243,474,553,345,298,207,104,117
207,478,572,368,308,203,104,108
226,349,576,356,283,175,100,108
226,394,614,318,278,164,84,99
224,410,660,338,276,162,83,101
216,405,611,345,282,131,78,104
311,399,564,310,247,142,79,105
298,381,512,311,261,158,87,115
313,391,584,305,280,152,98,123
317,370,547,246,270,147,102,116
332,340,500,221,232,158,100,102
241,330,532,198,231,152,102,100
221,341,524,174,220,134,95,86
184,279,426,180,176,135,91,77
176,273,456,232,185,128,87,79
147,281,485,275,250,126,88,82
154,265,423,270,253,118,84,84
156,258,426,301,248,117,86,87
161,257,438,302,248,114,83,72
148,263,397,270,237,112,81,69
152,252,438,233,199,104,80,82
187,242,439,248,208,101,77,82
187,254,452,230,210,106,78,80
187,224,387,241,225,125,73,86
212,219,436,239,222,125,74,88
233,241,431,249,196,119,67,78
207,249,445,233,192,133,73,77
208,236,431,217,196,133,68,80
201,243,449,186,162,107,60,76
177,248,447,212,156,120,66,81
154,201,375,186,143,123,67,77
142,179,353,189,140,117,64,76
144,185,398,179,125,133,70,77
142,177,400,189,119,144,71,74
143,201,338,159,131,140,65,67
144,234,359,159,128,137,59,62
137,235,357,152,118,128,55,58
128,226,345,172,148,112,55,55
121,232,322,158,149,101,50,53
124,224,333,211,179,102,51,60
163,245,373,209,189,102,68,74
170,250,380,230,215,106,71,74
195,308,472,326,239,121,84,89
196,310,491,337,237,118,85,87
195,314,526,315,209,112,88,94
141,280,494,332,205,111,75,85
154,310,554,346,190,131,78,87
157,318,559,271,130,112,66,80
168,338,622,284,129,131,71,86
169,335,644,297,134,151,72,75
186,339,646,291,121,153,69,75
212,338,660,333,139,151,82,100
190,293,607,372,153,151,78,99
208,286,533,361,166,141,75,99
262,307,511,345,163,119,74,107
261,326,563,337,162,121,77,106
240,303,478,271,140,95,58,81
249,279,434,190,125,95,59,79
232,308,444,180,111,98,61,77
176,287,419,172,104,96,57,64
163,292,394,207,138,113,59,71
159,294,397,215,136,135,75,81
155,301,392,206,141,134,71,78
171,286,391,209,145,131,70,77
177,279,417,236,167,142,77,89
176,243,365,203,172,137,77,87
167,290,449,229,179,137,79,96
157,296,471,250,195,150,89,98
160,284,450,246,196,147,89,97
164,289,427,290,208,141,84,97
206,358,443,322,189,130,81,102
219,343,358,317,200,117,68,92
229,363,407,321,188,103,55,90
226,371,461,325,179,105,60,93
218,370,445,305,164,120,69,94
182,320,493,301,170,131,70,88
225,298,521,282,152,125,73,104
222,276,468,279,167,121,76,106
225,283,446,283,178,121,71,104
233,292,451,274,186,111,64,101
245,278,374,244,174,99,65,105
188,285,347,241,168,97,59,83
179,274,368,228,156,103,58,79
154,236,338,230,150,102,57,77
130,243,345,212,139,97,54,71
100,240,354,207,141,112,54,64
126,254,343,214,151,114,53,63
152,281,311,202,137,112,55,70
156,281,332,208,176,113,57,69
171,304,391,224,182,107,57,75
178,310,373,222,187,86,54,76
164,289,362,206,178,85,55,75
155,300,385,208,179,84,52,70
164,303,396,212,142,89,54,69
176,332,359,207,139,107,55,77
171,319,363,197,122,111,56,78
184,317,352,216,130,108,54,79
177,298,349,220,151,115,57,83
164,297,307,197,150,117,54,85
153,256,354,201,149,95,48,70
177,267,398,210,158,93,51,75
167,276,433,201,151,95,59,82
201,288,460,211,139,83,60,84
200,284,467,217,147,74,58,83
197,294,473,184,129,77,65,95
201,286,437,182,118,74,63,92
218,315,448,189,122,74,62,95
181,294,397,212,160,95,58,90
186,286,389,215,151,102,62,92
215,282,303,239,191,112,68,89
208,289,321,245,200,114,69,91
187,235,262,254,207,115,65,81
193,239,363,231,186,103,66,84
221,271,372,222,187,104,63,86
237,240,361,207,146,101,55,82
240,340,477,219,135,102,56,84
239,349,534,201,122,100,55,83
255,342,477,201,103,103,54,85
257,365,476,209,103,103,57,85
249,374,534,190,98,100,58,85
234,289,514,192,119,115,72,91
235,319,472,197,133,134,76,92
223,354,505,196,142,129,77,87
197,320,542,187,144,126,78,87
188,340,498,205,163,126,76,99
194,335,420,197,171,111,62,91
204,326,406,202,176,106,65,95
207,342,421,202,199,163,77,101
205,335,367,207,201,165,75,102
173,283,359,196,190,166,76,88
194,296,352,203,204,180,87,92
264,393,445,228,220,192,93,109
322,372,405,223,197,177,88,113
336,370,415,223,208,235,102,115
344,395,509,232,208,243,109,122
340,401,505,248,225,248,106,114
287,380,466,233,209,245,106,101
263,422,488,256,232,234,108,102
282,451,498,262,238,214,110,107
282,461,424,316,262,235,115,98
305,471,429,297,248,283,131,101
315,456,379,290,286,287,136,112
290,413,342,297,291,287,139,112
254,389,317,295,301,281,137,101
315,441,346,250,299,264,136,104
284,417,330,243,282,207,119,101
349,415,352,246,255,197,109,93
336,418,359,245,278,223,104,80
377,421,351,239,250,226,105,101
332,351,301,211,237,227,97,104
360,405,305,230,245,227,104,115
338,370,328,257,261,241,122,118
353,356,333,257,239,228,134,133
314,353,368,294,272,199,126,116
315,347,396,302,280,197,124,114
378,358,422,326,347,207,125,108
396,395,393,331,344,193,121,120
419,418,391,323,346,200,123,124
424,414,407,323,358,235,127,126
432,452,416,355,386,250,131,126
354,398,384,341,366,320,144,125
302,340,381,341,378,321,142,109
263,317,428,363,367,310,129,89
251,325,381,370,359,300,143,94
239,273,359,332,316,300,154,107
326,356,452,330,309,250,137,112
320,355,501,317,298,253,133,114
327,361,459,287,284,293,157,125
443,417,511,260,268,316,156,151
436,407,484,275,286,318,142,144
377,403,453,325,322,323,148,144
365,415,404,315,315,330,150,141
370,436,414,330,345,287,141,146
320,464,467,399,372,312,150,134
324,468,528,495,489,302,188,150
364,440,639,515,490,297,189,158
446,502,695,527,493,316,199,167
438,521,745,528,488,334,208,171
374,472,745,495,482,297,190,155
396,519,748,468,390,312,165,151
359,494,621,410,336,282,159,140
273,455,577,403,384,291,154,128
263,410,516,415,413,366,174,128
296,509,474,393,408,354,192,154
254,470,420,310,375,344,188,143
274,484,477,298,363,351,201,155
253,451,464,277,303,341,205,155
260,446,479,281,241,257,163,136
234,297,446,276,216,244,145,110
234,271,447,263,245,257,157,107
191,253,438,257,264,272,138,85
183,289,518,306,328,260,134,100
182,291,509,274,326,268,142,102
186,279,507,285,363,282,142,102
177,285,501,297,339,276,123,101
186,295,470,318,334,254,123,102
182,254,394,311,271,254,120,88
159,244,365,313,283,244,111,86
153,236,379,290,225,253,117,90
160,288,463,321,255,263,119,97
154,277,448,307,256,272,130,99
176,292,461,293,273,249,132,106
179,281,468,283,263,246,131,105
161,342,548,315,313,240,136,100
162,302,478,283,296,222,133,89
181,322,540,277,280,221,122,88
157,304,518,265,257,225,106,73
164,341,538,280,258,213,101,82
155,282,451,251,207,195,91,79
150,300,473,266,207,189,103,93
117,268,406,257,215,171,100,88
121,273,401,239,225,174,97,87
101,230,373,230,228,172,103,79
114,248,407,239,233,169,97,81
114,236,369,253,233,174,86,69
114,234,387,263,252,205,102,71
118,235,441,282,272,200,110,81
118,244,467,407,289,269,113,79
104,272,446,413,305,273,111,77
99,253,455,385,297,270,116,74
107,296,494,404,290,274,115,91
102,324,476,407,275,272,104,81
100,312,439,311,292,222,108,83
92,298,456,306,279,223,107,81
106,361,524,326,296,217,103,85
98,328,477,301,285,192,88,65
91,301,475,289,276,201,94,70
97,328,491,261,277,192,104,78
98,303,441,242,266,186,102,79
85,274,423,212,247,192,100,69
85,275,421,264,288,175,106,73
80,265,371,277,303,180,105,69
76,236,356,297,360,234,90,58
114,238,377,340,369,238,106,67
132,181,331,349,381,265,135,80
139,167,329,337,379,301,143,87
143,219,352,327,400,332,152,94
145,236,382,354,346,307,162,98
125,225,352,311,331,304,153,92
110,240,322,323,364,279,129,84
105,236,346,353,377,270,134,83
127,222,392,359,359,221,126,80
138,239,366,315,326,207,120,98
135,254,409,315,351,227,125,98
126,241,396,305,312,230,126,96
126,262,378,242,281,195,115,90
152,267,371,221,246,192,108,88
145,260,396,203,292,217,106,65
165,299,438,233,273,209,106,77
167,312,455,275,351,200,129,87
172,312,454,275,339,199,119,87
139,291,431,291,351,199,123,90
135,266,403,303,352,159,130,93
105,222,362,304,358,151,123,81
106,212,381,262,280,149,96,76
104,217,379,263,295,159,105,78
91,213,360,262,287,164,114,80
93,221,353,235,239,179,106,80
91,261,325,213,220,196,114,84
97,262,361,205,230,197,117,86
107,262,361,202,202,209,122,86
139,306,362,282,273,231,125,92
143,306,368,304,282,233,124,85
150,255,347,327,289,223,136,90
146,286,387,342,288,232,147,92
130,282,399,345,314,229,147,99
110,225,385,284,270,209,159,96
96,215,388,284,276,216,154,95
89,224,402,276,282,219,155,100
84,197,373,277,285,212,148,99
98,193,360,278,262,220,145,95
85,216,416,272,271,232,124,86
89,222,436,316,290,247,127,88
119,233,449,320,403,253,148,89
117,223,380,317,408,267,142,82
109,205,377,316,410,266,147,80
108,185,353,326,426,258,149,81
132,200,404,320,429,251,160,89
105,190,379,301,321,245,128,77
111,175,380,287,339,282,131,80
111,167,365,285,337,270,118,80
125,217,346,280,303,258,113,80
99,207,299,224,271,227,91,72
107,211,291,211,262,250,90,72
106,211,286,225,252,208,92,70
108,275,396,219,251,216,100,71
86,246,387,201,252,232,101,71
103,245,343,195,265,253,102,77
105,246,372,221,274,236,103,75
100,266,390,205,241,215,89,69
94,220,362,251,284,231,89,65
94,223,361,246,281,237,88,62
74,238,395,252,264,245,95,52
81,230,406,254,251,228,89,52
82,212,386,243,248,237,95,61
89,244,336,216,196,203,91,65
120,245,334,218,184,178,86,70
129,233,320,234,201,143,80,78
119,238,282,229,214,160,96,81
119,290,381,272,220,178,103,77
127,311,393,276,248,181,112,77
109,307,410,289,270,177,115,76
111,312,388,264,253,183,112,71
110,311,388,265,263,196,108,73
113,262,369,223,251,172,116,74
100,217,337,206,231,175,112,69
119,226,367,205,223,204,114,74
109,241,392,220,236,230,155,82
114,268,408,205,220,221,149,81
113,271,347,251,258,229,141,84
114,267,353,268,251,225,136,85
105,295,399,248,269,263,175,89
104,274,387,240,259,257,156,79
98,269,455,247,261,257,165,80
116,280,481,212,276,266,175,92
115,264,482,195,303,319,188,89
96,215,395,213,303,312,171,90
134,279,414,263,326,302,168,91
151,294,350,279,367,320,183,104
141,293,332,276,343,309,180,97
144,293,324,275,323,267,173,104
157,327,333,298,310,248,166,100
135,317,397,327,375,254,169,113
119,306,370,339,372,255,170,108
114,307,357,398,448,302,181,122
116,307,356,402,464,329,174,118
129,312,374,430,535,367,172,127
123,266,267,403,530,375,186,125
133,259,260,373,500,359,165,124
148,291,273,346,448,343,205,121
151,299,334,364,459,338,257,139
135,262,320,316,399,324,259,133
136,261,324,290,348,315,253,123
162,289,347,308,389,321,263,130
163,291,387,298,440,335,251,127
165,292,354,342,496,336,205,119
174,316,373,339,497,325,210,127
172,320,408,348,504,340,207,140
140,271,378,360,509,368,197,133
123,208,319,366,477,360,191,134
121,188,292,345,421,397,184,127
137,303,296,467,482,405,186,118
134,300,260,516,492,399,180,107
136,316,290,554,554,379,233,119
135,325,290,542,541,374,213,111
146,332,309,574,576,334,229,120
115,228,289,509,540,290,226,119
145,245,277,483,562,288,218,117
146,238,260,434,499,329,176,105
152,260,322,491,510,306,166,104
148,275,357,486,510,293,152,91
155,259,354,520,588,313,185,103
143,268,400,558,641,354,263,139
146,292,438,566,621,297,259,135
143,268,399,544,662,328,282,149
129,252,371,516,668,381,322,170
121,281,409,486,635,392,308,164
149,299,390,462,571,360,257,142
148,269,345,494,669,378,255,147
147,286,362,495,646,405,243,138
151,302,351,502,640,388,187,120
153,290,291,481,600,362,175,117
135,277,251,425,567,354,160,110
127,302,349,392,502,353,164,108
135,334,403,415,526,325,194,117
132,328,439,376,482,282,190,109
157,356,469,361,448,278,185,109
143,341,470,375,454,268,202,123
143,321,402,362,454,252,204,126
153,285,327,315,410,200,170,108
155,294,343,317,404,223,181,104
136,231,300,306,414,302,200,114
131,242,304,310,417,296,187,98
148,324,326,315,363,294,172,97
132,315,336,279,331,306,171,100
122,299,315,285,309,293,176,101
114,323,338,302,294,240,159,88
127,344,360,346,313,255,162,92
124,292,342,339,288,261,160,84
133,308,324,344,275,253,150,85
142,315,300,324,282,234,134,84
152,291,278,314,314,220,124,85
143,268,313,266,319,229,107,79
133,258,317,272,332,281,117,92
120,228,330,265,330,276,111,88
144,249,309,301,375,314,117,104
136,255,383,295,343,321,126,106
144,248,336,307,366,336,138,106
136,218,319,289,365,299,140,94
166,264,316,342,492,333,158,117
149,243,333,327,464,349,152,110
151,247,252,324,461,340,150,113
146,233,252,287,421,326,158,117
159,245,271,289,431,319,151,114
128,208,282,218,284,281,136,92
127,197,323,262,352,222,142,98
116,196,353,318,394,210,144,94
146,303,431,320,393,184,135,97
160,341,454,318,372,160,135,103
162,339,445,324,378,170,132,106
163,370,427,277,305,179,116,90
163,381,415,210,243,172,115,85
146,294,336,217,236,203,101,72
119,253,301,205,235,226,107,65
112,246,341,199,239,235,106,53
102,208,338,194,220,216,107,50
114,173,320,206,247,230,95,63
92,198,318,206,244,235,102,62
98,202,329,196,229,272,103,60
118,227,301,196,191,269,97,63
128,226,274,245,247,295,93,68
124,249,321,247,213,287,89,61
121,250,359,246,221,280,98,65
115,230,345,249,226,225,93,64
96,200,354,272,230,223,99,68
127,184,355,217,166,185,98,70
155,179,330,200,172,226,104,85
185,158,279,188,155,228,105,98
189,249,344,232,179,224,98,99
187,252,325,299,251,230,107,107
162,266,321,323,269,249,109,103
133,269,317,337,274,222,108,96
102,287,336,341,275,192,97,86
116,243,269,318,263,194,98,88
132,264,359,266,215,168,82,78
126,254,384,241,201,167,101,84
154,262,370,222,191,157,105,77
173,255,368,248,225,164,105,85
169,253,430,247,226,166,106,91
162,243,380,220,241,210,115,88
172,252,362,212,241,195,105,90
151,227,375,232,246,202,103,89
126,224,376,206,219,200,101,75
113,218,321,221,242,227,115,68
106,214,281,203,244,237,122,70
105,206,338,212,247,247,116,61
102,200,322,224,256,242,125,65
96,198,314,228,269,265,157,79
95,191,316,209,253,276,149,80
102,177,315,217,226,245,135,78
99,176,253,227,222,245,141,79
100,230,290,205,231,292,148,78
100,238,282,193,226,287,112,63
123,240,274,194,224,271,119,66
121,264,282,231,248,285,135,78
111,277,308,233,281,312,137,80
128,249,369,241,302,291,148,100
130,253,404,249,316,301,180,111
124,307,514,265,340,300,174,110
123,309,550,263,349,283,168,105
129,348,548,258,336,283,175,114
129,394,557,259,309,324,180,106
137,398,548,270,292,349,163,99
124,355,453,250,256,342,163,98
126,349,506,206,247,361,166,97
119,306,517,193,244,364,172,91
104,234,450,205,272,309,158,87
114,215,428,191,266,255,143,90
122,243,437,221,274,251,155,101
137,287,384,243,288,248,171,103
144,288,379,260,289,248,164,98
139,287,374,248,270,261,149,95
132,282,396,277,295,282,152,92
129,261,429,273,292,308,180,97
122,198,369,263,248,344,167,94
118,182,331,244,222,395,174,101
117,191,337,243,198,400,184,102
103,227,355,246,161,398,179,96
98,244,305,236,185,422,148,94
94,247,313,231,194,414,144,105
104,244,329,237,194,330,122,103
120,244,346,228,187,320,111,105
125,229,321,177,210,344,136,114
134,211,332,176,204,317,127,104
134,203,327,231,208,275,122,95
124,232,356,249,245,292,120,91
108,247,397,239,250,314,132,89
106,256,449,281,246,274,116,77
129,285,450,323,244,283,130,79
123,295,474,328,324,312,129,76
126,277,459,316,323,322,145,76
125,252,406,381,387,327,153,69
121,248,333,367,383,339,159,75
96,212,329,333,382,301,148,74
111,221,317,306,319,310,157,83
119,224,285,303,323,338,193,98
121,227,291,258,265,313,183,102
121,260,350,277,317,309,188,103
115,288,383,274,336,360,199,109
97,274,367,259,348,368,229,115
110,270,381,259,332,334,195,106
110,292,419,251,334,337,202,106
111,249,380,215,276,338,198,105
120,205,322,213,246,338,221,107
129,216,335,248,226,316,206,103
116,267,357,265,332,354,203,93
178,251,320,245,319,345,190,96
184,247,362,274,344,377,208,104
188,252,371,277,353,343,214,119
183,265,394,287,386,321,199,116
187,221,394,308,313,277,210,116
130,295,460,344,332,300,215,116
141,291,416,322,316,251,202,114
210,329,407,331,333,239,168,95
219,323,425,303,297,252,163,93
214,310,404,277,349,281,177,114
215,229,303,221,353,268,208,134
230,246,310,258,359,257,221,145
179,231,307,335,335,253,215,147
184,286,312,367,359,252,247,155
184,295,321,363,295,210,234,147
181,295,323,386,277,208,200,128
153,368,405,414,333,219,180,112
127,358,415,343,345,269,189,105
98,315,370,312,367,292,159,98
103,324,464,318,368,290,154,91
148,326,474,320,361,295,162,95
169,246,423,253,302,329,182,105
176,239,419,280,384,396,210,120
197,256,421,312,368,404,217,128
228,260,352,330,426,414,223,132
214,268,347,349,460,415,257,144
197,254,345,351,462,401,243,142
193,240,329,331,386,344,216,133
177,212,334,312,358,310,195,122
131,201,323,295,306,320,182,118
107,186,323,246,254,313,140,97
93,188,304,253,239,310,140,80
96,245,381,287,270,266,142,77
109,243,402,269,254,265,147,74
115,240,395,250,218,271,154,75
114,241,405,245,211,280,151,76
117,232,422,232,210,270,143,78
115,191,385,188,155,255,123,70
102,190,357,174,158,318,134,74
85,175,328,174,151,278,126,70
88,215,372,196,160,260,117,70
101,227,361,188,183,253,117,80
104,212,341,186,199,256,135,86
115,202,323,206,205,158,115,82
123,226,346,261,223,164,119,90
144,210,368,267,232,210,111,100
181,270,410,282,243,205,118,130
214,277,419,309,248,206,108,143
222,318,428,312,264,213,125,155
231,304,442,294,284,221,154,165
232,311,391,286,286,169,162,163
226,266,355,267,264,191,176,143
198,282,369,238,291,235,188,132
193,272,380,234,291,246,186,122
189,279,352,207,257,247,165,110
182,272,389,228,268,276,167,111
160,263,384,235,282,272,153,108
160,245,369,230,239,240,135,105
185,237,352,225,223,228,134,106
183,320,427,235,231,224,125,101
186,320,410,213,191,201,112,97
178,322,401,213,173,187,116,89
171,333,405,230,205,180,121,87
154,370,446,270,229,215,126,84
150,317,418,260,219,218,129,85
134,310,381,268,264,312,149,90
151,325,385,270,271,321,151,92
150,317,384,289,262,332,150,104
123,266,336,280,291,310,143,101
115,232,259,276,298,322,176,104
120,239,297,256,260,247,162,94
93,229,294,256,264,237,162,95
89,241,396,227,244,225,162,82
82,223,398,175,173,244,178,91
128,233,404,172,156,221,141,83
133,243,386,195,169,189,137,85
128,218,379,178,146,174,118,78
129,202,246,167,150,203,125,93
131,212,257,178,149,200,110,83
130,254,353,204,153,218,123,95
146,325,477,197,163,219,126,96
148,336,479,212,165,250,138,102
162,348,491,215,178,243,146,99
167,372,527,231,216,232,141,101
152,390,496,231,223,241,135,89
226,330,375,248,239,262,138,102
233,319,378,251,254,265,136,99
235,319,368,258,259,246,114,89
279,392,315,249,233,242,114,102
292,356,348,236,230,220,107,108
231,357,359,212,197,206,113,106
228,361,343,200,181,182,102,106
226,362,388,196,158,174,101,105
196,267,408,216,146,174,93,89
193,271,356,203,131,204,108,88
184,252,338,195,135,217,115,79
183,262,387,215,132,215,114,76
174,242,345,202,126,216,110,72
179,247,337,160,138,218,120,82
152,232,339,160,132,189,121,78
153,268,388,177,128,161,101,70
160,257,358,136,124,142,105,70
160,266,372,141,135,176,123,80
118,244,354,141,141,166,127,79
124,236,343,154,146,156,111,80
127,203,314,163,162,163,116,84
122,227,297,179,170,197,121,85
120,217,269,198,179,188,108,80
111,211,280,208,174,193,94,68
103,208,281,199,177,198,95,67
102,217,263,168,156,191,86,58
93,200,304,149,139,188,98,57
94,197,307,121,132,170,99,55
105,185,289,118,130,175,101,61
125,209,334,130,118,180,101,63
148,218,332,149,151,218,108,75
174,220,293,166,163,194,89,74
177,249,310,168,152,192,83,74
175,277,355,166,177,194,75,70
155,254,310,163,185,202,80,66
132,238,313,151,163,156,72,56
115,265,319,143,157,165,70,68
116,251,314,161,181,170,79,75
113,227,259,155,155,167,85,78
113,238,255,144,144,163,81,77
118,357,427,181,194,177,89,78
108,361,444,188,194,180,90,72
116,354,436,172,170,183,83,71
112,364,441,171,192,196,80,73
129,362,438,195,204,186,77,76
124,261,334,171,165,180,67,78
119,215,303,162,163,192,83,75
122,220,291,166,163,239,85,69
129,193,288,174,133,226,85,66
117,229,344,186,119,222,87,64
113,200,294,218,125,221,94,60
109,212,314,219,142,228,97,60
98,199,339,217,148,165,98,59
102,227,345,219,151,150,94,58
98,235,329,195,147,153,94,56
97,242,308,147,151,163,108,59
97,225,288,147,134,124,94,61
99,234,267,160,133,165,105,68
86,215,271,146,132,172,103,65
89,183,253,177,164,195,103,66
92,179,257,182,161,222,88,67
89,174,260,179,159,224,86,62
80,190,273,165,157,199,68,53
87,200,282,173,152,195,71,60
94,204,255,147,123,179,96,67
97,207,249,133,104,162,97,67
106,216,276,129,104,156,98,71
100,200,287,165,93,160,97,71
103,193,292,160,94,164,97,67
105,160,287,149,114,175,82,72
102,167,313,153,120,159,72,67
102,198,298,155,119,159,75,65
126,199,291,113,119,155,74,70
123,186,315,121,151,185,73,69
112,190,321,118,135,176,68,61
111,174,294,134,133,163,65,61
103,150,296,141,137,171,59,58
72,148,302,152,146,186,67,52
91,157,239,140,118,165,74,60
103,151,234,156,122,174,75,59
105,162,243,151,121,185,82,58
114,166,246,144,124,196,92,68
116,163,198,134,130,211,94,70
102,191,195,146,148,225,95,68
94,204,216,139,161,212,89,65
104,238,244,152,159,204,83,65
94,226,267,164,152,197,109,57
91,237,289,175,170,187,110,57
87,207,281,164,154,171,116,52
97,198,267,162,134,167,116,52
87,174,248,160,134,167,118,54
86,172,197,151,145,182,97,59
84,159,200,166,135,181,93,56
93,160,197,176,132,175,85,57
147,212,328,187,136,176,92,76
147,212,352,175,142,177,95,77
150,212,354,174,140,209,109,79
151,208,356,150,119,197,103,78
153,221,379,155,131,206,99,77
88,214,301,144,134,218,103,59
93,199,283,161,148,260,103,64
104,200,282,154,147,242,82,62
113,213,266,173,152,262,92,75
118,203,251,171,144,254,91,73
127,183,261,180,174,253,85,83
133,188,251,171,184,226,105,91
128,185,249,178,185,219,147,94
123,174,251,158,179,190,153,94
112,204,304,210,202,207,158,97
105,179,276,208,182,201,166,92
124,258,339,210,179,199,174,101
119,269,352,208,171,178,151,98
139,296,386,253,184,184,142,93
149,303,357,228,177,172,140,92
157,311,373,226,192,223,137,95
135,255,309,220,185,238,115,71
165,258,310,245,234,235,111,84
149,260,318,228,268,256,113,86
167,254,312,211,265,271,127,99
158,241,284,212,269,267,146,98
162,262,337,253,318,262,140,104
142,295,340,247,301,288,152,101
166,265,293,231,288,281,166,105
142,249,293,237,302,279,158,99
144,247,284,228,290,255,132,95
135,221,234,196,273,240,137,90
133,185,231,170,267,213,112,78
115,198,263,172,258,202,111,88
108,220,268,160,235,183,113,81
109,234,283,183,233,162,112,82
128,237,284,193,201,176,117,81
130,259,289,213,222,192,136,100
124,260,269,208,217,243,117,89
123,249,264,276,265,244,110,90
133,254,264,281,265,247,117,96
125,240,243,277,275,234,116,95
109,192,221,266,257,246,114,79
110,181,226,281,275,197,112,73
115,176,200,240,260,205,119,71
100,180,246,297,264,232,129,62
104,199,257,301,257,228,125,62
123,198,262,317,279,225,127,65
118,187,239,316,273,239,138,66
116,182,248,314,304,278,130,75
126,163,185,294,372,294,119,86
136,210,219,337,389,298,121,95
122,213,204,321,375,292,107,91
131,243,214,345,388,273,93,93
129,240,204,357,396,260,93,91
127,249,221,330,336,249,97,86
105,193,193,271,320,265,92,72
131,192,217,301,344,300,120,80
119,180,222,280,325,311,121,77
120,180,233,276,291,297,129,81
118,175,211,288,290,285,125,78
119,191,207,322,339,285,176,119
87,202,207,360,358,251,160,115
148,189,208,350,356,237,167,121
157,197,201,336,355,228,168,117
162,186,215,359,369,221,171,116
161,175,233,401,430,223,153,89
173,153,212,349,392,210,148,89
138,176,208,383,463,243,144,83
134,165,205,378,449,243,140,91
121,165,195,340,450,259,163,98
128,186,160,257,345,236,131,84
128,261,196,284,354,241,139,90
174,281,226,239,266,226,141,100
178,338,245,250,269,244,147,98
210,337,242,279,253,237,122,97
247,352,250,295,290,289,138,109
285,406,413,364,366,282,153,120
255,389,404,352,364,287,160,111
250,339,395,347,363,263,155,105
231,340,408,404,427,303,157,106
199,360,485,435,467,281,163,121
184,264,357,385,413,296,149,107
207,265,352,425,423,283,135,106
216,269,351,445,459,314,129,108
211,275,343,387,410,290,126,105
199,227,307,345,343,282,108,74
148,247,326,318,327,262,98,73
113,246,346,273,318,259,118,73
138,248,347,232,260,234,135,70
141,244,347,227,257,197,139,68
153,259,311,317,237,185,136,67
158,216,288,325,253,199,181,88
161,219,272,329,245,222,180,87
142,229,285,337,261,202,172,97
238,286,301,378,269,226,172,118
235,270,298,386,412,226,179,129
233,268,288,401,449,256,145,120
240,283,293,409,461,246,140,124
241,286,290,406,460,255,136,120
179,248,307,358,442,240,129,104
175,236,273,298,384,293,130,101
206,247,316,270,332,269,115,102
219,230,296,272,311,264,117,104
209,225,296,283,313,264,117,104
178,199,272,282,330,258,160,115
179,195,321,235,237,208,160,106
147,203,288,233,229,224,163,101
128,188,295,218,223,212,153,97
122,162,292,190,196,201,150,91
125,174,289,190,172,207,128,68
129,173,232,211,173,220,113,70
121,151,262,242,222,190,132,84
100,157,265,272,233,198,135,80
124,181,291,278,243,219,155,94
134,167,293,279,262,239,147,94
135,186,298,303,274,204,146,94
149,213,329,286,236,194,127,92
150,203,326,260,242,205,127,97
135,194,306,264,231,185,105,86
145,217,355,264,203,153,80,84
157,218,360,223,185,162,83,89
144,222,342,201,186,174,88,76
160,238,359,169,146,213,91,80
158,253,363,211,156,216,90,79
158,259,384,368,231,216,95,85
142,249,398,372,230,246,99,80
149,238,372,379,224,308,103,81
134,221,378,383,222,290,100,68
164,248,397,362,214,290,106,76
150,281,424,239,156,293,109,71
148,280,400,233,161,299,102,71
146,270,390,236,178,231,91,70
145,273,418,256,192,207,81,73
121,285,450,273,208,211,74,68
118,235,366,235,183,224,95,71
126,242,373,230,177,178,101,74
129,258,368,236,181,179,110,73
160,263,325,251,182,176,113,81
166,224,250,223,159,182,116,80
190,225,250,231,182,178,118,78
198,299,249,247,181,172,114,85
216,312,275,244,188,185,105,88
217,343,349,239,201,202,136,94
207,330,337,238,202,204,139,93
216,387,346,257,195,196,135,107
217,348,362,287,207,195,140,111
202,326,372,274,193,176,138,109
172,289,289,244,191,182,119,103
186,315,311,249,199,177,115,105
170,266,323,239,193,164,94,108
152,293,368,193,183,168,86,94
144,292,345,190,176,210,100,103
161,295,341,186,137,185,89,109
191,284,346,221,135,174,87,117
182,270,335,209,131,169,92,115
186,217,270,199,126,184,93,119
189,208,266,199,131,173,94,115
192,203,305,223,151,177,91,110
157,217,320,192,144,176,94,104
154,202,316,186,133,202,96,90
147,191,311,194,146,239,104,90
145,196,316,193,142,216,100,79
142,206,334,222,138,221,101,75
131,201,336,255,152,236,101,67
120,198,322,251,167,226,109,67
120,206,327,246,155,176,105,60
124,204,319,246,151,190,98,64
99,194,297,191,141,180,99,63
161,150,252,126,132,170,112,79
182,168,297,125,116,159,106,83
191,171,312,233,133,159,106,83
191,184,369,249,140,145,114,84
199,200,336,255,150,158,116,88
174,257,353,273,146,163,105,75
155,258,317,289,152,186,113,81
163,256,307,217,138,182,107,83
190,260,257,216,172,216,102,88
190,286,317,215,172,223,106,84
183,263,294,200,180,239,113,84
232,293,300,171,174,223,104,73
279,328,297,173,185,238,109,85
276,347,320,164,145,211,103,86
285,322,270,172,149,204,97,89
318,318,292,185,140,180,94,94
293,293,309,188,136,174,91,97
242,248,301,176,129,166,90,84
243,220,252,161,135,165,93,76
272,215,253,142,115,165,100,77
234,194,233,111,115,166,95,71
224,183,190,143,140,182,94,64
225,212,178,184,169,202,94,64
243,292,204,191,185,209,96,75
207,314,190,199,208,221,90,70
219,323,201,258,252,234,87,71
229,319,230,279,246,224,84,79
227,306,241,265,231,203,83,81
195,236,253,280,221,197,83,71
179,208,303,292,206,200,93,71
156,196,287,255,161,189,102,71
136,202,282,242,167,197,103,68
263,241,320,246,167,193,104,90
258,224,313,227,164,228,122,94
268,228,302,227,174,212,113,96
285,240,306,241,186,212,114,105
299,273,317,246,172,211,114,104
198,237,314,267,175,228,126,93
201,239,311,274,201,204,116,94
204,248,286,281,194,197,122,94
178,254,283,276,181,209,128,80
199,206,255,254,193,214,130,78
221,215,211,247,217,193,118,78
226,213,190,251,204,173,112,71
261,260,269,250,201,181,108,81
291,290,352,287,217,157,89,83
271,299,364,310,242,180,101,93
300,302,385,294,209,197,110,84
305,307,386,312,204,207,109,83
282,259,348,297,217,215,106,73
253,219,289,248,219,242,129,77
250,215,282,219,186,225,118,60
191,205,246,213,204,209,129,62
187,211,253,170,199,221,135,72
234,210,251,172,202,212,139,71
265,214,302,192,175,190,120,68
272,218,297,182,181,216,145,95
270,231,317,180,199,226,129,93
275,274,353,208,222,206,128,96
226,279,347,208,206,197,127,96
213,294,295,224,251,198,130,102
210,295,291,221,244,162,105,84
207,286,264,230,225,181,132,91
190,249,238,250,211,192,125,85
181,230,234,255,215,198,122,84
146,215,243,225,185,206,120,76
126,212,268,233,222,207,128,84
157,252,285,239,222,183,98,81
187,254,293,187,227,183,105,82
233,269,289,187,271,228,125,91
241,256,271,179,253,215,127,86
250,262,255,200,226,205,112,77
242,244,244,197,263,254,112,75
215,240,209,207,265,283,150,96
228,224,202,200,217,251,143,92
231,215,193,230,236,260,143,100
227,229,181,208,258,259,152,97
226,224,171,198,209,234,158,94
229,210,164,201,190,196,161,98
186,225,187,197,187,191,156,102
203,256,194,170,157,170,152,98
202,241,186,170,106,185,159,103
190,218,183,159,98,175,175,112
182,227,196,149,85,162,133,85
169,236,190,162,109,178,158,87
130,199,173,148,110,179,158,94
119,188,188,137,112,169,149,93
124,204,219,137,117,163,133,84
134,218,240,170,136,172,136,92
138,206,267,171,169,192,103,85
142,216,291,174,171,209,126,77
141,222,294,180,173,229,121,79
138,207,272,195,212,264,114,82
133,200,272,206,240,270,133,80
126,195,241,199,220,267,154,88
113,190,223,202,224,275,156,89
135,207,220,213,229,267,161,93
132,204,220,233,222,236,156,91
148,182,255,215,204,238,142,93
164,168,252,211,192,223,134,101
172,206,251,209,190,197,111,101
160,198,264,208,193,193,114,99
161,226,285,194,173,184,119,107
146,219,215,177,152,177,118,102
139,223,214,170,152,187,113,86
175,190,245,177,148,201,114,89
172,178,273,172,127,205,100,80
200,175,256,169,112,207,96,73
217,191,268,164,107,200,109,72
208,206,267,169,126,189,103,82
190,200,311,189,132,172,98,79
191,199,283,198,136,172,110,79
174,172,275,181,147,170,111,78
156,161,268,172,144,166,101,88
166,146,273,173,131,153,106,78
152,233,207,164,133,168,114,78
148,228,191,144,139,170,106,86
152,244,222,172,133,188,119,83
166,254,219,192,165,197,116,75
182,275,246,190,174,197,104,82
185,211,244,181,182,186,109,80
261,225,245,179,174,171,115,83
271,255,259,166,176,134,97,86
263,258,301,153,152,132,115,83
247,234,284,157,144,137,117,74
247,237,276,158,129,153,111,77
197,232,290,157,131,176,112,69
180,203,268,153,129,189,126,67
180,194,234,167,136,180,111,66
246,218,232,167,132,194,128,77
246,206,218,165,134,186,133,78
221,195,197,169,147,172,125,75
223,200,208,171,155,172,117,80
224,222,205,164,144,185,143,83
171,234,198,194,156,169,130,79
161,237,206,228,161,165,129,75
175,239,214,242,152,159,131,80
189,214,182,239,147,169,128,83
191,211,189,233,147,181,103,78
177,189,188,216,137,182,102,84
195,218,239,185,126,178,87,83
194,235,269,161,123,177,83,82
190,252,280,164,133,172,89,78
217,243,286,183,142,146,91,90
219,222,289,175,145,138,89,81
207,198,247,171,146,163,97,79
210,182,199,168,146,185,116,86
196,165,226,201,166,177,115,91
181,186,225,193,169,192,116,90
205,203,214,188,162,206,123,93
207,204,230,197,188,217,123,97
194,199,250,212,189,205,106,88
193,214,227,187,167,213,105,80
215,204,203,183,186,232,105,76
178,202,207,185,193,228,117,70
178,202,195,173,167,201,111,67
184,216,210,173,179,196,108,65
183,191,219,156,170,179,109,62
153,163,230,142,133,133,104,58
155,146,235,142,119,125,75,56
151,147,241,143,131,126,77,56
174,166,244,142,141,147,111,58
174,187,236,147,151,172,107,59
161,188,230,154,157,185,119,64
153,222,303,180,166,206,136,67
166,217,295,186,163,205,135,67
158,192,271,172,138,191,114,70
152,174,265,161,125,185,125,70
147,175,264,192,140,180,109,58
148,150,187,165,132,160,94,56
133,142,196,155,136,191,110,60
117,148,208,193,151,198,102,59
118,185,227,209,160,209,104,65
129,204,236,195,150,213,107,71
128,199,219,198,147,209,107,69
141,204,238,238,189,202,113,72
136,199,281,225,197,206,139,77
135,161,262,225,188,184,131,74
123,147,300,217,191,176,137,70
152,180,328,217,193,173,137,76
151,198,341,186,144,154,135,84
142,191,300,168,114,129,113,74
142,194,299,162,119,137,108,73
153,210,286,162,107,124,95,72
136,200,335,184,104,161,103,70
126,197,326,185,113,177,90,56
126,202,322,185,113,186,93,60
173,228,340,219,153,195,102,70
163,199,332,228,161,207,102,71
154,213,332,234,172,202,99,67
148,197,309,221,169,213,104,72
170,210,337,242,183,211,96,74
131,245,362,227,171,199,89,73
127,261,365,229,172,210,112,81
132,231,315,211,167,200,110,87
139,256,330,216,178,191,110,87
155,252,327,193,191,221,158,106
161,191,287,162,172,224,160,103
169,258,373,160,171,209,151,102
173,285,447,179,182,205,150,98
188,277,473,195,186,186,159,96
155,287,468,208,179,214,121,81
153,303,470,216,194,227,144,91
149,247,412,210,190,227,138,84
153,234,362,245,230,231,143,93
144,216,334,231,231,256,148,102
144,272,420,245,224,200,144,96
160,259,423,262,212,189,123,89
158,252,427,261,215,196,126,93
170,288,459,225,163,201,128,101
163,292,464,226,148,187,124,90
164,249,388,213,156,196,125,96
134,279,455,205,157,200,121,90
148,302,476,226,152,187,119,86
120,258,448,212,153,175,108,64
141,314,477,229,156,187,82,76
169,335,481,235,154,194,82,77
196,311,413,222,153,190,91,112
194,303,397,197,165,210,108,116
191,295,375,194,159,224,106,117
182,253,388,177,151,216,111,115
171,208,396,183,153,227,142,116
147,207,447,183,159,222,139,86
158,200,431,208,151,219,139,85
161,206,434,233,173,220,141,85
152,257,453,236,185,203,138,77
146,262,464,220,174,204,148,82
177,275,447,228,175,210,150,90
203,299,500,259,178,199,145,99
203,297,502,259,171,252,149,97
247,240,465,256,173,290,171,116
265,301,466,260,168,280,131,108
249,318,447,262,183,282,138,104
227,321,403,224,195,282,134,101
253,334,394,221,190,271,143,112
218,373,439,232,183,230,127,100
193,336,445,237,200,235,131,95
188,336,482,247,189,240,139,97
198,320,483,254,182,252,141,102
174,314,487,244,187,242,142,96
167,295,431,229,189,241,130,96
164,287,435,223,181,245,130,98
216,280,397,205,214,238,111,99
205,267,384,189,206,228,121,89
204,289,423,219,204,184,126,91
234,262,409,234,194,182,128,103
246,276,425,248,184,160,136,100
224,264,445,246,144,186,155,105
225,273,469,245,138,191,142,103
256,262,457,263,117,187,125,106
232,269,489,254,135,189,121,93
217,236,444,230,131,194,112,97
194,222,407,232,129,184,89,90
187,226,395,235,131,173,91,92
136,226,361,166,129,171,96,84
138,235,331,156,111,180,103,86
141,253,374,150,109,167,103,81
133,250,378,152,118,151,105,75
146,273,363,170,131,148,103,70
140,255,343,187,130,148,98,68
141,254,353,209,156,184,181,81
143,244,312,212,155,188,187,85
148,245,314,206,143,183,188,94
131,214,368,180,139,195,194,95
140,241,442,179,145,220,198,99
156,227,441,152,137,231,143,96
150,217,470,156,139,227,132,93
146,215,488,166,156,232,125,86
152,215,475,183,148,244,130,86
159,192,421,170,144,228,138,84
166,188,383,166,127,201,135,88
172,210,373,165,126,200,137,88
189,243,406,182,114,204,137,99
199,270,439,189,132,213,139,106
189,260,431,188,135,214,125,101
182,262,471,211,154,191,113,95
207,256,469,209,167,239,188,119
204,237,426,188,164,238,190,113
191,249,367,166,163,213,198,113
200,268,395,243,172,214,201,119
190,267,358,228,157,231,204,113
162,260,314,229,158,192,148,93
230,282,306,246,173,186,141,95
228,231,352,278,186,208,123,88
226,230,424,221,187,211,128,90
234,262,441,225,194,216,149,94
245,252,447,220,185,214,140,94
188,239,461,220,200,218,147,89
188,238,407,188,220,223,141,90
186,285,355,211,224,215,140,91
163,253,399,214,225,204,114,87
150,256,409,223,226,196,115,80
181,254,428,239,225,225,123,91
182,261,454,241,197,193,117,90
178,195,420,226,210,199,112,88
198,195,352,215,208,196,103,90
199,219,369,226,218,199,101,91
151,249,348,220,201,169,82,79
154,244,311,222,264,284,130,90
151,235,299,231,259,278,125,83
142,235,326,257,255,270,123,76
122,246,448,269,270,286,123,79
127,203,450,251,266,301,133,80
123,195,453,234,197,237,99,81
124,209,486,227,192,248,96,80
132,263,488,255,213,269,109,89
150,241,348,234,180,262,109,90
157,247,323,228,182,265,111,89
151,258,322,233,170,236,106,79
164,255,278,244,166,232,106,80
145,199,278,202,137,215,97,78
141,196,276,187,153,221,127,89
138,170,261,182,146,183,116,97
158,255,246,190,161,188,122,102
143,250,245,183,166,184,128,101
154,273,270,180,168,209,137,110
163,281,304,210,181,196,138,110
155,281,310,220,185,200,139,103
144,242,351,218,201,188,132,99
163,279,393,223,202,178,128,105
191,262,373,234,204,154,135,99
194,256,358,238,186,162,107,95
207,282,415,268,195,174,102,105
213,263,420,277,192,211,114,107
234,228,404,264,211,250,164,128
201,217,410,249,218,266,157,128
216,263,421,265,239,263,165,126
237,275,380,241,250,262,170,122
228,268,356,241,267,262,169,118
205,290,326,296,352,271,165,94
206,292,332,314,367,283,159,84
180,250,356,330,407,285,160,86
183,284,354,323,399,277,159,89
184,287,353,311,396,314,233,121
172,257,344,273,307,280,208,119
166,254,331,268,294,248,217,130
174,264,316,241,234,241,212,122
142,193,319,248,263,259,240,133
147,174,348,248,243,183,173,115
149,211,344,227,242,179,180,114
160,230,368,242,247,181,170,102
142,213,363,209,253,226,175,107
138,213,370,207,221,217,138,90
148,226,346,208,238,217,143,96
150,218,365,255,266,234,130,98
137,209,337,228,257,234,130,100
130,206,332,223,228,194,117,93
111,211,322,220,246,214,113,88
107,210,320,235,241,205,107,70
95,180,300,184,202,201,119,67
178,265,292,176,182,193,116,71
188,297,332,214,187,188,121,75
203,293,319,225,170,151,116,86
197,298,321,222,173,175,103,87
198,299,323,221,180,186,114,90
156,251,371,235,198,188,111,92
162,217,323,218,207,190,105,89
156,221,352,205,189,187,106,78
150,198,332,197,167,175,126,88
147,193,333,199,169,170,112,88
147,146,277,187,185,169,116,78
143,142,283,175,172,168,114,79
136,129,262,174,176,181,119,78
141,182,256,161,168,179,100,64
173,232,258,169,160,163,93,58
232,242,314,194,123,169,89,70
239,275,313,239,190,197,106,75
277,335,299,230,201,235,120,88
280,344,310,231,199,236,119,85
287,345,371,236,223,235,120,90
232,342,332,221,226,230,122,82
242,333,327,177,178,204,116,80
195,283,321,189,178,209,138,76
190,240,316,191,176,206,138,88
229,198,259,190,153,202,136,85
230,194,242,185,154,221,158,93
212,175,226,171,139,238,163,94
214,150,240,160,130,190,129,86
216,160,289,180,148,191,130,78
136,169,272,170,147,196,127,73
146,180,267,176,158,176,96,64
142,163,276,183,172,183,90,70
140,166,270,190,169,175,90,69
142,194,326,171,160,171,81,68
148,193,339,191,170,163,87,73
127,178,339,179,164,165,135,83
121,208,395,177,167,121,133,79
125,218,393,194,162,120,136,78
118,212,335,192,167,135,133,75
118,238,318,181,162,153,147,72
142,259,333,189,155,158,107,65
245,311,274,189,149,172,105,64
323,399,307,176,153,177,104,73
333,475,284,181,151,191,135,86
333,469,284,165,142,195,118,86
329,501,282,174,167,205,120,88
300,474,290,174,168,192,113,87
228,405,289,162,163,200,143,86
220,327,296,162,160,173,120,73
267,333,356,172,165,150,118,78
295,288,407,161,144,123,118,74
262,273,390,157,174,162,126,76
259,269,368,162,184,158,99,78
250,257,382,163,187,193,130,82
255,283,446,195,184,194,134,78
242,263,399,181,180,207,138,78
242,257,405,184,152,202,136,79
280,301,409,191,150,208,142,91
292,298,410,217,171,182,111,88
252,272,280,190,169,185,110,88
250,292,257,187,162,179,105,86
244,298,246,175,147,187,105,86
192,295,257,184,148,181,81,65
216,301,237,162,124,195,87,66
217,281,236,151,115,196,79,62
192,260,235,151,113,193,83,61
268,268,230,168,130,178,72,71
277,221,328,172,117,163,68,73
292,197,320,155,111,154,69,78
305,195,318,149,121,154,82,87
302,231,406,163,130,155,74,86
248,348,437,167,133,129,76,76
251,346,356,137,131,129,76,73
221,345,350,151,137,123,78,74
265,389,346,171,148,132,72,65
274,418,363,196,152,135,75,77
289,419,422,207,158,139,81,80
285,448,448,231,194,174,115,88
277,467,473,240,190,168,115,89
226,437,473,227,175,159,117,91
231,419,474,215,176,160,124,87
208,326,418,206,169,166,127,86
194,287,409,179,123,153,101,79
242,264,380,150,117,206,111,75
226,271,405,170,122,212,104,70
223,271,366,166,138,215,97,63
246,275,367,144,136,224,88,70
260,324,347,151,151,240,93,65
205,308,346,163,156,194,74,60
216,322,341,155,186,188,79,68
242,372,289,135,163,175,76,69
235,360,248,145,179,202,123,69
218,309,237,135,174,194,121,71
248,325,275,148,178,195,121,80
245,339,275,165,158,201,118,76
255,255,248,165,163,203,118,79
246,258,295,162,148,186,74,81
261,269,307,169,142,167,69,85
243,264,276,185,160,176,70,79
292,276,307,161,149,175,73,81
252,260,307,162,145,193,92,79
277,276,270,168,135,166,89,73
298,372,359,170,141,163,94,73
307,457,365,139,126,180,114,76
274,435,316,154,128,203,124,83
290,461,353,167,163,214,142,96
357,503,367,163,175,216,145,111
344,453,317,169,176,217,146,115
372,479,313,176,172,210,139,132
396,503,310,178,199,221,143,139
442,663,364,206,180,203,117,148
371,646,396,216,175,227,124,137
367,641,391,217,190,234,144,138
333,600,388,219,187,224,139,119
305,583,390,225,156,197,127,109
247,450,390,224,163,192,122,83
276,540,346,214,160,199,146,104
263,550,368,220,144,210,136,97
311,537,416,239,152,214,133,101
300,525,416,242,175,209,133,96
305,522,373,227,189,269,167,109
284,410,399,241,221,246,145,89
301,418,361,236,220,229,141,88
237,392,327,225,224,219,140,84
249,485,405,214,214,217,141,86
235,456,386,202,206,167,115,64
224,445,387,189,167,155,105,58
231,431,389,192,167,149,95,62
235,417,381,173,156,219,106,71
263,313,300,159,145,230,111,87
271,263,349,165,124,211,95,95
275,291,358,154,126,217,98,100
254,251,355,128,148,228,105,98
249,265,392,123,151,172,97,93
204,278,407,169,168,155,88,82
176,259,414,167,173,151,82,72
173,222,375,177,185,187,104,68
172,271,392,185,162,174,109,73
190,269,340,182,160,170,110,78
179,253,361,174,159,191,111,80
193,254,359,181,161,199,118,87
214,252,354,174,145,176,101,92
211,217,326,164,139,185,92,88
231,232,380,197,151,186,87,85
268,235,375,177,141,178,86,87
274,268,329,160,127,184,88,84
251,269,329,160,128,175,87,83
260,287,357,183,141,165,88,84
226,267,320,167,131,161,88,80
186,265,287,162,115,136,92,73
155,229,282,159,111,123,90,68
154,229,286,155,107,113,81,64
192,228,253,132,100,116,75,67
199,228,282,112,89,110,75,68
189,217,273,110,93,171,94,66
206,235,296,122,109,178,94,65
208,258,344,132,121,186,98,62
156,231,386,129,116,192,101,57
173,239,348,125,112,195,110,59
170,243,368,121,112,148,87,60
159,217,354,115,103,123,80,62
151,191,319,132,99,113,74,60
180,184,252,143,111,125,95,71
156,198,281,158,136,134,90,72
156,192,261,180,142,137,91,70
156,202,234,193,140,144,92,72
180,204,279,184,136,165,98,77
165,233,314,171,129,143,80,73
166,201,298,159,109,132,78,69
167,196,351,149,104,130,74,70
175,211,347,128,105,127,76,65
153,198,295,127,108,105,76,65
140,163,261,127,107,157,84,58
180,204,296,155,114,162,78,63
184,222,286,148,114,160,80,67
168,208,297,155,118,169,90,73
180,211,341,152,120,182,95,75
176,234,387,176,123,147,84,71
147,238,412,171,116,145,87,69
144,228,382,162,116,163,91,65
134,216,376,152,106,155,83,61
119,218,340,154,109,153,85,54
143,216,374,140,110,148,86,58
146,213,315,122,110,154,91,54
139,202,310,125,110,169,94,51
141,207,328,137,120,166,94,48
206,221,336,130,108,148,79,64
192,206,266,119,101,144,82,67
183,171,299,117,107,146,88,67
186,166,303,134,129,118,81,64
191,171,351,139,140,119,82,67
125,181,389,150,141,127,87,54
122,171,372,147,144,147,89,49
124,168,344,142,142,147,83,59
119,168,337,126,120,141,84,62
115,184,318,136,111,138,81,64
113,158,291,150,125,133,84,65
128,175,301,157,127,112,88,70
126,174,303,159,119,106,83,59
132,194,341,169,130,107,81,60
136,168,311,154,116,108,83,58
129,172,296,124,98,108,84,56
122,153,287,115,94,108,77,58
119,150,279,112,96,97,74,63
128,139,261,119,72,85,73,70
123,168,244,116,88,88,71,71
124,166,228,120,88,100,66,70
142,178,251,124,82,101,62,69
145,197,277,138,88,120,72,66
132,202,246,141,98,125,78,56
129,201,239,143,89,131,82,54
134,198,233,139,90,123,91,60
143,232,242,141,91,119,89,60
142,222,244,134,86,98,80,60
141,206,245,106,80,110,77,58
139,187,257,101,85,108,71,57
138,213,271,111,87,101,53,49
126,214,274,122,93,103,55,51
117,210,265,114,89,105,55,48
146,222,281,117,88,112,53,55
159,226,285,109,77,106,52,65
155,209,283,114,113,110,57,69
155,162,257,129,114,118,58,66
159,164,268,140,119,129,67,68
133,156,261,148,126,120,69,66
130,145,297,165,128,120,72,59
152,140,300,158,111,151,85,67
203,172,297,138,105,146,82,67
206,170,285,151,106,135,74,66
214,185,278,154,113,129,74,65
205,183,222,145,124,137,74,61
185,178,259,155,117,114,60,44
98,144,248,151,115,118,63,37
130,163,240,140,111,120,65,43
115,151,254,133,98,119,60,39
140,184,249,132,89,107,56,52
143,183,203,115,83,88,56,52
162,187,220,125,91,86,56,57
132,161,203,119,95,82,52,51
135,155,197,119,103,94,60,56
110,139,216,121,102,103,62,47
155,144,214,119,96,102,57,55
135,136,212,119,109,111,58,49
139,138,246,152,134,126,65,52
152,170,292,168,130,124,59,49
157,162,292,165,127,117,55,51
111,157,289,166,129,120,62,45
109,154,281,190,124,118,65,43
112,172,293,170,96,105,59,46
128,159,233,151,89,91,68,50
123,151,219,152,97,95,69,46
125,152,222,159,102,99,65,48
136,177,227,118,92,104,66,52
130,184,207,120,92,98,69,48
103,161,195,116,94,112,75,45
99,159,191,118,87,121,73,45
100,168,256,107,80,120,72,43
100,148,256,108,80,104,65,42
110,120,269,96,77,109,70,43
120,124,300,94,75,95,57,42
120,151,397,100,71,83,57,42
118,142,377,116,83,86,58,42
106,149,394,120,78,90,60,44
122,148,386,114,82,93,53,52
103,152,383,121,87,96,49,55
110,151,295,121,89,112,57,58
141,156,315,122,79,106,66,61
144,151,299,115,83,109,65,58
129,149,288,122,83,118,71,53
162,202,338,130,86,134,73,62
165,189,353,124,88,123,67,60
143,192,361,137,102,126,59,57
145,191,353,140,103,129,67,60
163,229,377,138,115,150,88,64
154,198,374,147,176,170,100,62
187,239,419,189,221,183,112,71
199,240,411,205,267,221,143,78
235,254,410,227,299,238,161,90
248,244,399,240,299,228,151,95
265,265,391,250,291,225,151,95
260,253,375,252,275,235,149,100
258,256,356,243,269,259,129,97
274,326,413,327,378,267,135,119
318,369,494,348,445,324,144,123
313,362,486,385,500,339,143,120
303,351,474,418,568,398,176,117
306,345,481,437,583,405,187,135
338,417,493,375,507,403,223,129
285,407,410,395,486,384,225,128
269,405,512,365,455,391,243,145
278,407,561,337,374,361,235,158
314,449,581,330,391,356,227,149
256,362,548,344,401,364,183,138
256,331,574,324,394,361,173,137
256,321,476,354,383,367,157,127
250,322,465,347,375,399,215,128
295,290,484,342,313,374,210,120
278,251,517,351,306,378,211,116
284,276,519,336,288,410,234,115
282,281,505,297,262,399,241,115
282,311,548,298,262,366,199,95
178,301,500,297,299,397,201,94
220,310,488,328,345,426,198,108
226,294,488,343,362,411,189,110
228,311,508,367,413,466,188,119
231,278,420,348,417,440,164,117
230,284,488,362,399,437,170,125
212,309,516,329,365,393,174,119
208,360,502,350,383,392,167,111
209,362,509,412,411,341,165,110
217,368,507,420,414,365,170,111
210,356,450,415,408,339,172,105
198,308,381,401,408,358,188,105
236,256,409,378,367,335,184,112
232,228,378,282,299,305,178,106
230,221,370,274,283,272,187,117
242,234,353,236,277,294,190,123
249,249,355,250,308,301,171,123
196,262,329,278,310,299,166,120
199,259,326,275,274,306,156,108
182,248,303,304,320,345,176,103
176,276,373,317,320,337,162,95
216,279,422,382,316,324,164,96
220,255,431,350,294,350,176,111
226,285,432,376,373,454,209,128
223,342,523,345,331,424,174,119
226,347,542,349,325,401,176,119
189,359,536,287,301,425,173,123
183,359,509,295,379,420,196,121
171,379,568,281,315,291,172,110
191,335,507,331,331,312,195,133
196,312,491,363,373,332,215,147
172,320,472,349,360,281,220,136
173,339,485,352,294,270,193,128
207,334,471,346,295,290,203,135
263,396,473,323,329,285,181,121
273,409,491,314,299,269,153,107
277,397,485,308,307,284,165,114
281,372,486,339,337,264,171,126
259,358,471,371,332,230,148,119
202,302,449,358,287,209,144,108
178,266,367,319,266,215,162,116
176,283,416,333,255,203,147,116
168,329,417,303,196,186,133,99
176,315,381,244,176,177,139,100
189,296,386,253,186,237,169,112
204,355,530,310,267,300,159,103
218,369,548,331,298,298,159,108
229,340,588,323,334,320,173,115
277,376,600,322,341,383,173,125
289,441,629,311,335,357,158,133
281,433,558,286,313,339,159,131
277,445,536,331,359,350,224,131
275,450,626,339,374,339,227,139
302,529,694,384,388,364,240,145
277,503,685,391,403,398,238,131
279,499,764,407,403,393,262,143
276,480,809,451,386,410,215,139
293,486,715,449,365,440,214,126
258,406,662,426,357,413,196,122
252,383,662,442,364,427,206,135
249,390,556,429,362,418,175,128
266,398,479,329,395,429,208,147
248,411,490,332,396,419,204,153
203,387,465,343,395,373,200,140
218,400,472,342,422,320,189,133
221,364,445,326,405,299,208,141
194,359,471,329,352,263,171,116
179,308,423,306,323,227,175,105
166,279,462,278,307,231,178,107
170,258,473,267,276,237,188,103
153,249,469,263,287,247,198,104
149,220,440,276,312,229,220,122
154,273,467,274,313,216,213,128
151,294,470,282,317,263,234,133
102,299,441,295,299,263,245,140
101,310,447,305,287,270,220,129
108,316,452,260,228,259,186,112
111,282,460,280,241,259,178,110
116,278,416,269,255,237,151,102
134,293,404,219,226,221,131,95
137,310,475,260,219,217,127,99
168,306,435,295,224,257,152,110
170,312,427,281,201,258,164,114
163,307,430,299,227,277,166,117
161,338,491,318,240,278,149,110
160,350,471,280,243,327,148,104
147,362,498,266,260,324,124,97
144,363,487,263,262,322,103,93
151,358,483,245,218,293,92,83
143,335,464,293,232,302,102,90
143,310,437,282,244,266,154,98
119,286,437,262,212,236,172,94
124,281,449,269,209,270,173,90
157,290,531,270,211,269,174,94
166,251,479,213,196,251,179,95
166,245,440,212,191,260,178,99
170,249,419,224,192,260,164,101
158,258,410,218,194,251,171,101
136,337,378,244,201,247,178,102
125,333,417,225,193,271,171,95
135,353,447,224,172,232,127,81
155,366,475,238,220,260,126,90
187,349,477,237,260,251,121,91
181,247,409,247,326,262,121,86
179,261,385,263,334,258,130,87
210,255,427,284,358,263,141,94
218,244,414,272,376,292,174,90
209,292,462,286,360,279,180,103
223,335,483,254,308,263,174,118
256,348,582,344,331,249,173,127
227,319,545,354,342,237,169,122
200,348,573,349,309,245,147,123
185,348,559,365,322,276,159,118
188,313,551,376,314,292,160,109
171,306,457,289,290,305,210,108
174,320,484,282,257,336,217,109
188,326,515,373,245,277,211,103
198,300,495,419,368,283,221,117
195,346,497,447,417,325,237,120
215,373,498,449,430,343,237,136
214,390,497,440,439,353,230,143
211,356,462,386,442,386,232,145
198,370,513,331,341,391,215,133
178,327,508,283,288,355,252,144
136,281,538,295,263,359,224,131
163,283,571,331,255,350,223,120
200,280,533,318,275,318,221,118
201,249,477,297,278,332,219,124
206,249,480,311,303,363,163,120
213,273,457,367,319,332,139,111
202,283,398,342,343,319,169,123
160,296,440,387,391,324,193,132
202,310,443,390,393,319,222,133
241,353,436,390,389,283,219,129
231,369,456,343,381,330,237,131
229,411,500,335,361,337,212,128
225,392,452,269,292,340,200,120
191,380,451,255,273,308,160,104
148,362,542,248,234,293,151,91
151,338,509,243,256,290,139,89
158,232,452,232,234,272,153,99
196,264,517,245,222,257,134,96
208,260,500,248,211,242,133,102
206,220,392,228,221,291,145,103
200,214,364,186,167,242,128,95
190,304,386,216,169,233,107,77
175,355,337,229,183,250,118,89
166,361,331,222,201,250,131,89
154,385,350,229,189,194,128,92
152,380,387,241,193,199,146,90
187,441,440,219,194,202,164,122
169,394,420,186,177,227,178,112
188,422,456,201,201,252,170,116
201,416,468,189,198,249,171,117
205,453,476,209,214,236,153,119
179,339,427,226,241,246,146,97
176,350,470,229,259,275,135,100
167,364,450,224,242,247,141,107
172,370,483,242,264,256,136,113
175,331,487,268,315,286,149,119
162,335,545,267,313,278,143,110
174,334,515,263,296,207,129,108
178,310,524,275,315,224,120,94
160,317,494,270,303,235,132,85
169,348,553,245,244,225,129,93
193,349,483,222,210,216,134,95
183,324,503,235,207,217,130,94
154,297,544,220,186,204,127,90
163,285,540,208,175,187,154,117
149,244,452,176,160,194,146,107
172,240,429,206,217,202,146,108
178,303,469,228,222,198,164,119
183,302,427,242,217,209,174,123
178,328,534,274,247,215,165,107
177,326,551,283,251,180,163,104
142,319,582,282,219,164,159,107
146,278,568,256,228,219,154,103
153,273,550,245,207,205,145,99
165,234,417,208,171,207,119,88
165,230,396,206,170,220,124,84
157,237,355,180,165,218,120,78
146,227,279,184,145,236,105,65
146,241,262,167,143,238,112,66
156,262,356,163,136,232,110,71
153,274,367,155,128,228,105,73
173,277,390,165,186,286,127,75
184,279,394,160,200,272,132,85
182,272,398,166,220,274,130,89
165,244,352,226,230,291,132,93
172,224,352,303,316,304,198,118
157,215,341,308,289,260,189,116
144,196,330,305,286,229,217,125
168,282,383,347,320,237,230,133
157,281,393,313,318,211,227,126
154,286,378,243,235,185,174,104
141,279,382,230,231,185,171,104
148,282,399,248,229,162,135,88
115,186,346,178,155,139,99,66
130,180,337,182,165,153,100,69
134,192,322,179,160,155,98,72
136,202,318,174,148,145,94,70
138,202,292,170,131,143,82,69
137,220,332,193,147,167,87,70
123,230,318,200,140,154,90,78
119,218,330,195,141,159,88,76
128,207,315,218,152,162,85,77
116,219,326,198,150,162,107,86
123,201,322,185,158,157,121,94
164,194,311,175,154,161,116,85
158,249,371,181,161,143,115,82
166,260,380,155,148,153,114,81
163,299,457,186,158,178,114,86
166,299,431,186,140,173,99,78
135,293,447,182,135,163,97,81
134,253,410,179,128,168,111,85
121,270,429,177,136,152,114,91
126,207,351,147,128,123,95,78
112,197,346,169,136,107,98,76
110,217,344,181,141,115,101,70
130,207,337,186,148,119,97,67
130,191,293,189,138,123,102,56
137,257,292,199,138,129,109,52
151,275,314,177,139,133,108,62
149,280,294,168,142,122,110,61
143,297,312,162,138,129,115,64
140,285,317,163,142,121,106,61
129,239,339,142,142,116,100,59
111,228,366,142,132,107,102,51
125,220,383,139,124,123,116,65
117,198,366,143,126,131,103,60
112,234,415,154,121,134,107,64
118,232,399,171,152,135,108,66
126,229,394,188,154,133,102,76
104,209,359,182,153,140,112,76
115,224,413,184,147,128,116,79
133,204,378,189,151,124,112,83
164,240,385,184,122,122,112,90
160,233,353,165,117,131,123,85
165,240,363,163,120,123,103,77
178,227,319,162,114,113,96,80
174,214,300,198,124,115,101,79
151,174,295,205,130,125,103,74
159,174,285,203,136,142,102,77
166,218,316,218,140,156,94,75
152,221,353,208,137,161,93,74
155,237,351,156,123,163,86,74
159,234,361,140,130,166,96,77
157,233,365,135,122,163,85,79
144,198,355,150,120,139,87,80
161,198,309,156,123,138,85,87
161,192,313,164,126,168,88,99
148,186,280,156,102,178,74,92
146,193,282,157,101,170,70,87
155,215,378,142,98,177,67,93
137,223,423,161,113,185,75,87
131,206,432,170,131,165,77,73
147,221,438,178,132,154,74,73
142,270,479,187,132,150,73,71
131,261,449,209,134,145,72,63
115,242,389,196,124,162,77,62
150,281,426,196,106,176,83,76
138,275,427,196,117,180,95,78
156,255,415,192,127,178,94,82
154,233,356,150,129,189,104,81
170,245,415,141,127,176,100,79
141,216,407,132,146,162,109,66
159,256,443,156,164,150,111,71
144,259,413,160,164,165,114,73
146,289,416,159,165,164,116,76
129,285,355,163,166,165,116,77
138,296,354,157,154,154,102,74
113,259,312,174,149,152,91,71
132,261,340,168,143,137,96,76
131,233,349,171,131,124,90,74
148,245,355,170,126,103,85,74
135,215,323,181,145,115,96,79
135,222,316,129,120,112,98,76
142,244,280,122,117,129,113,87
138,244,264,123,121,157,119,84
121,256,319,170,134,158,121,86
121,283,339,169,103,156,111,80
124,287,357,196,120,183,112,81
116,256,367,210,126,182,93,58
126,272,421,226,126,158,86,71
132,246,391,205,119,161,84,67
153,230,371,195,126,175,99,69
160,240,355,177,139,186,99,75
161,286,389,190,145,183,98,79
168,279,333,187,146,188,90,72
163,309,336,188,157,190,91,75
140,298,326,198,157,210,105,73
137,293,328,196,140,182,106,75
116,248,322,191,154,203,106,74
95,246,333,198,162,209,111,71
109,220,337,185,155,226,124,76
108,269,359,181,155,193,101,75
100,266,385,180,162,209,100,72
98,256,351,159,148,193,99,67
119,262,328,121,133,181,96,69
111,256,294,110,126,180,83,58
120,246,338,112,130,186,94,59
129,256,356,113,123,159,90,59
130,248,392,142,118,156,93,62
119,248,424,155,135,170,109,69
120,242,432,160,132,138,102,70
146,234,414,151,123,138,94,69
140,227,393,159,119,143,91,63
161,250,375,137,108,130,90,67
165,293,397,134,90,119,84,57
161,289,388,133,97,127,91,53
132,286,357,143,97,118,91,54
133,302,359,130,90,113,88,52
117,290,347,127,104,128,86,47
106,273,305,127,121,156,109,55
111,274,318,122,110,148,104,58
115,267,439,114,114,152,109,68
130,261,409,142,118,154,110,69
121,263,413,143,107,160,113,69
133,220,394,151,117,127,92,76
151,248,410,175,147,136,94,79
218,231,326,192,142,129,87,82
215,203,325,185,158,134,96,91
223,210,322,189,166,143,88,91
236,284,369,184,149,144,74,84
280,319,358,182,131,157,91,90
268,378,333,182,132,165,100,83
262,388,348,169,115,186,96,70
283,407,384,165,104,173,100,75
281,368,347,157,103,176,100,75
244,341,376,160,101,171,88,77
217,294,342,128,100,164,80,78
235,296,379,137,110,148,83,82
278,278,351,140,112,147,84,89
270,311,389,188,151,164,91,93
263,302,411,223,157,160,94,93
258,298,430,227,153,168,99,93
256,292,395,226,153,163,110,94
193,277,415,220,151,155,107,86
190,228,413,185,126,134,107,82
194,228,387,161,155,153,118,88
190,240,423,172,162,152,114,82
183,241,471,190,169,198,122,89
164,243,452,189,170,205,128,88
176,258,448,199,167,219,128,90
170,274,427,171,134,222,132,82
166,277,482,179,142,222,143,96
158,283,484,153,122,198,134,97
165,335,513,164,126,196,136,96
162,347,505,148,109,183,130,97
156,339,512,140,120,164,109,91
168,336,444,141,109,154,92,83
177,324,392,142,112,121,74,77
186,265,334,140,111,124,85,85
179,277,320,145,124,144,87,84
181,276,306,158,123,153,90,84
203,282,310,135,118,157,93,84
223,298,330,165,143,185,129,101
213,304,324,162,159,213,121,102
209,264,386,161,159,217,118,99
202,258,383,153,153,257,130,100
206,323,409,201,179,259,133,105
165,316,387,191,164,240,102,83
154,308,386,189,149,225,99,78
169,306,365,194,153,206,111,83
180,315,386,195,149,151,95,81
143,216,344,149,119,148,89,70
143,195,365,146,116,160,95,70
141,212,477,198,136,152,112,66
121,243,440,192,133,145,101,59
121,246,427,187,138,134,108,62
112,247,421,187,139,128,109,63
146,260,396,181,139,114,100,67
152,261,309,130,123,94,78,72
149,229,333,128,109,96,78,69
131,206,348,144,104,89,69,66
152,214,373,140,100,86,65,63
131,235,418,143,113,106,93,66
128,221,393,135,107,121,96,63
206,238,391,222,200,157,124,85
218,277,409,325,319,248,153,108
239,294,449,366,394,275,177,123
237,285,451,386,421,298,170,128
246,307,442,389,428,298,173,130
192,315,466,356,418,306,172,127
185,342,478,268,342,259,149,111
135,320,431,206,252,247,135,101
152,307,389,178,229,229,147,110
148,325,486,228,248,222,142,110
188,309,456,284,273,198,131,102
198,266,412,296,274,175,136,106
213,260,393,297,274,162,148,111
243,287,485,299,266,139,127,98
239,285,434,293,293,206,139,99
212,286,420,235,238,201,137,99
211,271,462,233,252,225,158,102
197,272,467,278,285,257,137,96
154,242,381,317,317,275,148,99
232,195,345,315,292,233,138,97
235,283,405,315,301,250,177,116
243,291,404,319,309,233,169,110
295,328,415,295,294,228,171,120
302,350,444,276,310,259,177,129
254,357,441,264,298,275,181,130
250,325,449,336,346,279,140,115
247,329,444,349,339,306,138,117
194,339,523,387,348,301,157,125
199,360,501,409,322,286,155,115
198,367,494,418,332,277,150,109
242,369,455,386,355,313,156,112
234,386,418,365,382,360,156,117
228,350,303,323,384,354,135,92
221,320,325,290,376,330,123,90
218,321,402,272,367,338,131,96
167,312,428,262,299,302,119,88
153,271,428,256,262,251,129,81
204,311,442,268,244,252,132,96
214,336,464,288,277,262,135,103
219,322,434,326,341,257,139,117
216,305,407,327,344,253,141,118
225,303,399,334,346,212,111,117
218,283,397,414,395,217,128,116
193,240,357,400,357,203,122,109
185,233,316,369,293,242,198,129
212,252,318,349,287,236,205,137
205,261,412,360,286,239,207,135
169,253,428,246,218,234,206,129
169,266,433,328,250,250,214,134
194,279,435,373,318,244,158,104
167,266,443,416,334,244,154,93
169,266,406,419,324,245,159,101
163,260,418,426,321,248,153,105
159,234,418,346,288,253,165,98
137,226,434,325,235,217,149,100
136,238,471,308,219,214,150,103
136,216,445,303,225,213,147,100
135,195,394,294,215,212,166,91
135,195,392,300,219,189,145,87
135,203,435,265,203,182,154,88
128,174,401,236,194,172,145,85
118,183,428,210,184,171,152,79
108,192,434,213,182,169,121,81
125,217,428,219,185,169,117,83
104,213,357,213,162,160,95,69
118,202,323,184,140,183,101,67
125,201,279,179,132,190,92,70
129,222,333,202,151,165,87,70
110,199,318,178,149,157,90,72
145,200,352,175,148,156,92,67
147,205,356,177,156,162,86,70
152,215,373,196,155,141,76,65
149,185,310,170,140,142,73,56
184,190,312,184,144,184,100,61
177,161,299,185,150,204,99,68
182,191,321,196,143,181,95,64
178,192,322,199,170,187,95,63
182,226,402,208,169,193,107,62
152,217,402,227,159,176,98,59
138,278,428,237,158,158,96,56
127,296,478,265,172,160,100,63
122,294,499,296,159,158,114,69
121,271,446,293,173,191,129,74
119,283,462,286,189,203,128,71
116,261,480,293,198,214,135,72
141,232,411,264,192,217,141,73
152,220,363,210,181,217,134,69
147,221,374,194,166,187,136,75
143,228,387,242,173,159,122,75
136,205,352,233,176,144,116,78
101,256,382,232,173,152,116,75
81,258,369,229,169,142,115,78
85,272,393,238,163,134,85,72
81,259,404,183,139,126,86,69
77,244,392,177,110,185,97,65
95,172,359,165,103,184,93,64
118,198,423,176,100,181,92,67
127,189,416,188,109,184,92,64
131,203,400,177,108,187,91,63
128,215,399,166,110,155,79,62
120,217,429,168,106,144,69,57
103,205,378,208,115,148,58,48
114,221,395,206,113,147,53,52
138,204,369,209,115,156,91,72
141,200,353,214,122,144,92,73
143,200,356,222,144,156,106,82
140,188,347,180,143,151,110,81
142,176,304,153,140,149,117,82
133,193,314,141,144,155,118,84
142,196,327,156,146,131,117,85
133,226,331,187,151,113,112,80
134,227,329,177,150,113,112,82
131,238,342,221,173,146,110,80
115,235,333,240,167,143,87,63
104,237,341,236,175,162,95,65
108,209,330,223,160,162,86,59
125,247,363,238,179,174,88,67
108,242,347,204,161,159,88,71
104,243,405,185,164,158,85,68
99,239,401,173,147,145,76,62
108,235,400,157,139,142,78,62
82,213,383,147,109,129,76,49
77,181,401,144,99,117,69,42
79,175,359,153,88,98,65,44
81,191,357,147,80,111,62,43
67,200,323,132,81,118,77,45
96,174,317,121,82,129,72,46
120,180,331,153,96,133,70,48
123,190,352,145,104,135,78,49
141,170,350,149,106,118,85,52
136,152,357,156,102,114,69,47
130,185,379,181,103,106,69,51
110,218,357,170,108,125,73,46
128,221,321,164,104,142,77,50
111,221,287,167,121,143,71,49
128,241,329,173,133,140,72,54
129,226,355,175,150,145,71,52
140,229,350,161,145,164,89,56
122,216,349,158,145,151,83,54
134,213,383,170,130,150,79,60
124,196,365,160,119,152,83,61
109,220,360,128,93,149,85,60
95,236,398,135,79,102,64,58
94,233,401,147,81,116,69,58
80,234,365,147,93,134,74,52
108,253,392,155,107,132,72,60
116,233,369,164,115,131,70,62
124,180,307,156,114,153,70,62
127,177,326,144,105,142,64,61
121,192,367,119,98,128,59,58
92,174,314,113,86,132,58,48
80,175,296,144,81,130,63,46
59,170,309,147,88,111,59,43
49,170,292,150,92,114,67,45
52,158,302,157,96,112,64,49
67,154,328,156,98,110,67,48
68,146,330,125,99,139,69,44
73,150,324,125,100,142,76,54
75,156,326,150,118,140,68,53
90,154,302,153,114,140,74,52
82,162,297,152,112,148,87,58
87,159,309,147,112,117,81,60
81,180,392,154,108,105,76,51
86,190,385,152,100,112,78,56
82,188,368,151,104,133,97,56
93,193,387,151,109,155,99,55
119,236,465,166,110,157,102,63
128,228,403,155,108,161,104,63
131,221,422,131,100,175,109,59
130,244,435,137,104,187,94,62
123,263,444,149,101,166,82,60
108,243,384,156,98,174,83,59
104,245,376,156,100,183,99,71
98,245,372,156,96,161,92,72
119,254,370,146,93,147,88,71
127,222,354,143,93,152,87,68
152,231,358,135,96,146,88,67
151,219,351,137,103,145,86,65
153,222,341,137,104,154,88,66
138,197,455,156,99,131,89,65
129,211,435,156,96,114,84,64
103,182,406,138,91,110,81,63
100,191,428,137,80,106,64,57
95,184,448,154,87,93,62,58
85,185,332,143,98,103,62,58
90,203,385,137,100,103,61,59
84,194,366,136,101,115,59,55
105,212,350,132,106,136,64,50
110,230,375,141,102,138,60,47
112,219,419,143,114,140,59,41
108,181,364,148,131,145,72,56
96,184,368,150,130,151,79,57
95,200,394,147,125,126,80,58
95,202,342,153,137,125,79,61
93,227,367,141,135,162,115,69
94,249,397,137,124,199,136,65
130,317,418,145,138,188,140,71
116,303,401,204,147,198,139,72
135,298,443,208,149,204,144,71
135,315,435,232,164,216,136,68
136,318,444,230,161,190,117,68
155,257,462,249,157,200,113,63
157,246,458,216,151,192,109,62
139,243,417,192,147,202,106,65
142,195,348,166,115,172,83,65
141,177,349,186,124,170,72,62
82,178,343,177,116,156,63,59
114,179,330,190,133,203,83,59
118,172,324,186,130,195,89,61
138,175,345,202,154,186,84,71
140,201,315,184,177,212,100,79
152,285,455,181,195,235,113,80
128,293,490,176,205,209,119,85
123,290,499,182,211,204,115,88
97,292,508,164,195,208,120,76
94,304,577,220,215,193,107,67
94,232,462,239,259,201,101,66
103,215,427,233,251,195,96,60
104,216,420,252,248,196,93,47
105,213,424,299,274,219,100,55
104,155,335,274,249,223,102,55
103,235,374,290,244,204,114,63
92,261,393,292,264,222,110,65
98,262,398,314,329,232,126,80
108,264,410,282,316,219,124,80
139,265,456,289,328,218,157,99
130,194,414,307,337,240,163,101
143,170,418,330,336,223,167,115
143,194,441,354,317,238,164,112
147,219,435,383,351,234,173,119
123,234,371,376,342,249,150,105
123,243,389,340,327,228,153,106
115,258,377,339,316,233,145,93
117,279,364,292,311,253,146,89
113,268,422,245,277,267,141,81
116,258,427,248,273,249,139,80
131,251,422,318,312,295,116,76
127,246,433,349,338,296,112,71
134,216,417,364,305,257,105,72
125,194,331,391,317,266,119,73
118,196,343,385,310,261,112,72
92,189,323,319,229,199,107,64
94,157,292,254,172,184,118,67
98,136,315,223,165,185,113,65
97,180,315,182,153,142,79,55
98,234,339,181,158,145,80,54
97,235,336,211,190,155,103,60
91,243,350,220,190,154,86,56
80,251,342,210,192,151,87,55
84,230,335,204,180,140,90,58
90,162,307,196,183,147,126,66
92,163,335,160,150,141,110,61
90,165,328,147,151,144,110,61
92,155,329,154,150,146,112,59
88,172,345,157,161,159,118,64
88,180,328,174,158,192,98,54
90,174,295,181,163,188,99,56
99,177,295,180,159,199,100,57
94,211,307,182,162,203,98,59
121,228,299,166,127,206,102,61
119,231,292,143,119,178,100,67
123,241,321,154,135,173,101,66
127,266,356,188,144,174,108,64
121,236,340,177,145,188,109,65
98,217,336,198,164,191,98,55
99,229,386,205,171,187,89,52
92,243,377,194,158,193,94,56
121,219,336,177,169,187,85,60
122,226,373,178,175,173,85,58
119,207,354,150,156,151,86,61
116,195,332,160,150,138,80,58
113,164,401,156,149,131,71,56
83,189,407,156,132,107,65,54
88,194,364,155,125,103,68,56
88,210,389,176,135,110,63,53
84,203,388,162,148,106,68,52
85,231,364,165,141,101,67,52
92,211,375,157,138,119,70,54
88,215,367,147,130,120,65,53
91,206,342,128,116,110,61,52
92,209,386,141,118,113,62,55
142,172,324,147,128,131,77,59
133,158,380,147,144,142,82,55
135,128,375,148,143,148,86,53
137,136,387,152,146,151,86,59
138,123,312,153,148,153,78,55
94,140,350,147,149,147,72,51
98,158,338,149,131,127,74,50
101,212,368,152,129,117,81,62
95,229,361,171,144,145,88,56
103,241,425,168,134,157,96,63
94,241,393,173,139,160,94,62
96,237,375,186,141,174,92,67
104,260,447,232,143,169,85,61
104,258,457,216,131,152,93,64
96,252,405,214,124,137,91,56
95,246,426,205,106,139,98,57
83,242,403,211,107,121,91,51
75,193,338,163,99,119,87,46
76,171,360,166,95,121,76,44
87,179,372,164,112,137,83,50
89,180,358,164,110,128,73,49
88,174,352,148,123,128,80,55
77,148,319,171,125,138,80,56
84,152,301,170,125,126,77,56
73,135,278,160,111,117,68,51
81,154,276,174,148,121,65,53
87,175,330,193,141,122,60,47
104,226,349,183,144,112,60,45
98,232,337,179,142,140,79,43
100,234,334,183,141,148,78,50
106,219,362,171,104,144,77,47
128,224,343,156,114,141,79,58
120,190,332,140,123,148,83,59
120,179,400,154,132,167,71,61
118,176,413,166,144,167,77,54
120,181,407,195,163,173,78,55
93,163,381,179,156,176,77,48
93,157,431,188,150,191,82,55
92,162,372,179,147,173,92,56
94,177,367,196,162,172,86,60
84,187,405,200,149,160,89,63
98,177,391,194,146,165,91,62
92,168,324,186,142,172,85,56
92,159,346,192,135,157,68,54
93,157,337,165,110,150,74,55
89,144,282,136,105,156,70,48
95,161,328,164,133,154,68,51
94,154,328,162,138,130,83,55
96,175,311,159,139,133,87,57
97,178,330,165,148,141,84,59
93,197,367,163,154,144,88,63
65,195,371,156,139,143,98,61
61,205,403,177,152,166,92,59
68,213,409,178,178,171,94,60
74,216,417,184,170,168,90,56
85,199,396,195,176,201,120,63
119,208,366,182,169,208,112,65
129,226,358,189,177,206,117,71
127,201,344,198,167,208,130,72
125,190,311,192,161,203,130,72
133,264,283,187,175,173,103,66
118,252,306,192,179,176,121,78
120,246,274,186,157,162,117,72
123,249,306,196,218,176,108,77
136,250,322,236,254,186,131,88
129,172,324,252,259,192,141,102
128,182,294,257,276,179,130,93
171,199,356,306,305,188,140,112
173,226,345,353,324,196,155,115
164,223,333,342,315,200,144,106
164,215,342,345,306,195,135,92
183,209,392,345,298,203,134,95
144,199,328,311,292,204,132,82
145,188,332,247,223,195,128,78
144,199,403,247,212,203,128,81
142,231,411,234,220,208,133,86
111,243,376,228,220,234,132,88
98,227,388,202,192,245,147,79
83,219,383,215,186,232,125,69
77,209,314,239,200,225,120,64
74,189,287,253,214,219,113,62
82,216,281,251,204,203,131,78
94,219,274,250,199,176,105,77
103,208,264,251,192,187,108,80
102,208,278,207,161,179,105,80
104,229,322,175,136,186,115,78
87,185,322,181,148,196,106,58
99,176,316,223,172,192,100,57
109,237,370,240,187,182,98,58
110,253,402,249,203,195,100,61
105,243,423,251,195,211,114,65
118,246,419,243,191,185,103,66
127,261,430,250,182,194,111,74
111,235,410,234,187,191,108,71
117,222,385,238,193,191,126,84
116,228,373,249,186,178,116,83
114,256,399,260,180,172,110,81
95,261,392,225,236,171,107,78
108,251,361,206,229,180,123,83
106,262,377,193,214,167,103,67
119,246,354,174,225,160,91,66
110,225,333,164,226,160,91,64
108,221,361,158,159,146,82,56
104,201,364,146,144,148,65,50
101,193,335,141,136,138,67,53
98,199,376,164,116,117,61,48
96,202,381,168,146,141,67,55
124,197,359,163,146,186,104,72
117,208,386,172,144,184,106,75
120,214,381,168,155,185,110,73
111,201,305,148,150,189,111,71
117,224,337,149,117,183,116,70
79,215,342,143,109,139,86,54
77,206,292,131,109,136,84,46
67,227,317,161,91,133,78,46
76,233,322,181,97,135,80,47
89,208,278,176,98,141,70,50
85,207,284,178,99,151,73,46
87,205,321,195,104,138,86,51
106,184,319,192,113,140,86,57
108,190,353,177,106,138,93,63
95,246,392,195,130,159,94,61
100,245,385,208,134,156,94,62
101,258,413,197,128,167,77,59
91,244,399,181,123,166,74,56
83,236,379,170,124,183,77,57
87,169,342,147,94,170,79,57
95,178,341,141,110,170,73,59
111,195,319,141,132,172,77,65
118,217,311,133,137,182,84,72
118,219,299,134,138,177,73,69
112,225,372,139,150,158,67,65
110,212,362,156,146,154,75,63
94,208,375,176,136,150,74,56
81,200,428,176,126,137,66,45
91,208,437,187,142,118,66,51
89,205,386,176,132,122,71,54
78,210,395,175,136,130,70,56
101,198,348,154,132,118,67,61
99,175,267,152,144,115,67,61
92,163,263,133,127,124,67,55
97,160,272,156,135,122,66,52
106,158,283,127,119,112,60,48
84,199,353,135,118,123,66,44
78,203,356,139,103,131,82,44
74,202,371,145,105,123,83,42
76,197,375,135,103,123,82,42
80,204,380,162,126,128,83,56
76,155,337,168,140,128,81,60
81,171,382,181,161,123,75,60
81,167,361,191,168,129,68,61
99,190,366,189,164,129,70,65
89,189,378,173,153,156,77,63
92,175,353,156,141,155,80,60
89,163,313,151,132,187,78,61
97,199,386,153,117,185,80,63
117,191,353,148,123,188,78,67
121,186,341,163,126,173,73,62
120,185,348,172,126,175,84,67
126,211,382,188,125,140,78,67
127,186,338,175,124,134,77,67
102,168,356,171,114,145,80,68
99,187,356,158,103,128,77,73
105,209,358,187,135,121,58,74
117,237,335,174,140,130,60,75
109,239,309,185,151,155,78,76
100,238,336,193,160,144,90,75
94,226,319,188,158,141,90,68
97,215,320,157,128,132,93,68
94,165,315,146,115,126,94,67
95,154,313,129,109,104,90,67
92,173,306,129,96,101,76,61
94,171,305,125,98,104,77,62
80,166,323,117,95,111,74,54
56,144,328,107,91,135,78,53
57,171,363,116,87,138,72,53
65,151,369,103,90,134,71,52
94,159,385,117,112,144,72,59
130,160,363,121,123,159,75,70
129,174,342,123,121,155,88,70
145,155,328,125,121,172,95,76
141,155,302,149,140,182,100,80
124,159,310,155,138,179,97,76
126,165,326,160,140,174,100,71
127,170,351,171,159,161,94,70
125,192,354,180,169,149,86,77
123,193,344,156,153,148,83,71
133,186,301,139,144,143,82,70
96,177,293,131,133,138,83,64
99,196,325,137,116,140,72,66
84,189,311,140,105,122,68,52
102,195,331,144,101,110,67,58
96,191,376,148,115,154,87,61
98,191,373,155,115,144,81,63
96,153,331,149,108,137,80,64
97,166,375,131,100,139,82,63
79,154,343,132,105,151,89,61
68,144,295,127,75,116,76,60
66,151,290,138,80,119,71,56
64,153,287,137,81,116,68,53
67,140,232,133,79,111,69,52
69,143,247,131,78,106,68,52
67,154,252,134,82,95,66,52
69,155,287,118,82,96,70,55
95,156,295,109,80,106,73,58
88,126,287,105,91,128,83,58
86,124,271,109,94,121,86,58
93,129,277,141,100,120,85,59
90,129,317,147,105,114,81,55
61,136,305,148,104,118,85,54
53,135,287,156,98,112,73,53
75,158,316,159,98,102,64,52
71,216,402,155,97,105,66,52
71,214,351,145,106,140,78,53
73,209,347,138,109,145,83,57
109,223,393,140,109,139,86,62
98,208,383,149,104,140,86,58
96,134,290,130,110,143,88,55
100,124,291,148,112,153,96,73
100,120,292,147,108,142,87,71
73,117,299,145,115,144,84,71
100,119,293,132,114,146,84,75
100,115,303,139,116,143,87,78
101,133,310,120,108,110,82,65
102,157,335,136,111,118,86,63
93,151,314,131,101,113,84,63
56,159,306,140,117,118,91,60
53,159,280,119,113,121,85,57
45,166,300,127,109,109,77,56
43,157,275,133,118,98,78,63
69,148,251,141,121,97,79,56
69,140,267,129,106,109,74,52
73,141,274,131,93,100,75,51
75,140,325,127,90,107,78,52
76,134,354,113,81,108,70,50
55,129,333,109,92,107,67,53
56,124,343,119,99,106,68,62
90,143,368,124,103,135,65,63
95,125,296,115,97,136,56,67
94,133,262,114,99,143,58,62
97,150,295,121,101,150,71,67
111,165,286,120,96,155,74,62
85,177,277,120,94,144,83,66
79,178,267,133,95,141,81,60
81,169,256,164,107,138,84,61
109,165,223,167,111,134,80,59
105,156,227,172,128,120,79,59
108,137,231,179,137,116,71,56
110,134,235,171,137,117,82,58
110,148,275,154,146,117,85,60
102,146,311,151,136,110,78,55
93,164,318,159,129,105,72,53
113,152,313,166,132,111,77,58
115,165,366,184,137,115,76,57
127,193,358,181,124,117,72,58
112,197,343,184,123,139,82,60
118,193,330,186,147,157,96,72
122,224,430,179,138,151,98,76
129,216,397,174,145,163,97,78
117,208,435,180,142,161,99,80
119,222,455,195,154,171,99,82
125,223,461,210,150,173,93,72
113,202,391,228,157,179,90,70
104,212,420,236,155,173,92,71
101,197,390,249,187,192,95,69
111,238,378,268,204,178,106,86
109,243,365,287,230,173,113,95
106,246,380,366,304,204,118,97
151,258,381,460,352,244,128,124
160,309,445,483,354,265,127,125
167,275,426,501,370,272,119,123
182,296,493,487,357,268,113,129
185,289,467,429,298,253,113,124
150,272,446,332,299,230,118,102
146,205,386,372,372,229,137,103
136,197,409,367,370,252,150,106
121,210,413,390,377,304,156,107
126,220,415,398,391,333,155,117
135,236,446,396,357,325,141,116
136,247,455,329,300,346,128,117
128,241,450,309,289,324,105,101
119,202,415,269,302,299,115,90
109,214,451,289,290,295,116,79
107,213,437,291,289,293,114,76
103,215,444,311,261,259,112,76
142,234,468,331,260,271,122,82
142,233,485,396,310,261,124,89
135,210,446,419,350,240,135,93
129,194,422,413,353,239,138,93
127,176,396,411,354,217,138,86
100,186,382,386,363,202,153,97
108,179,318,338,295,177,134,88
108,179,314,280,258,150,126,88
106,182,324,306,266,169,148,93
120,196,360,293,258,199,152,99
109,155,326,281,233,208,136,88
100,155,380,299,247,215,137,87
107,172,380,297,219,220,132,79
113,185,382,263,194,227,110,76
113,174,330,251,210,206,112,81
116,232,349,322,244,212,112,87
114,227,279,305,249,229,114,86
116,222,270,305,257,246,116,89
110,214,249,335,278,220,122,88
129,229,343,337,261,210,113,80
127,178,400,292,230,204,111,80
129,206,428,301,256,189,126,99
121,203,454,315,271,158,127,96
155,275,472,290,266,163,133,92
135,268,412,283,276,173,130,88
134,267,359,252,285,208,154,85
131,274,381,261,290,224,147,74
136,285,373,272,291,226,146,76
107,243,361,297,293,236,135,79
96,239,372,288,282,230,142,79
102,243,383,294,286,192,138,71
115,209,329,291,250,166,129,67
181,200,336,301,265,176,128,80
177,183,369,290,249,169,134,77
182,198,373,305,330,217,128,85
178,202,355,304,316,217,101,88
170,233,378,276,308,217,102,85
107,228,350,301,313,201,107,76
110,215,290,299,342,225,106,87
143,197,277,308,274,190,107,84
154,194,284,330,278,190,110,89
156,157,248,333,271,186,114,90
152,148,264,283,246,196,118,88
160,156,295,262,208,164,117,85
126,170,340,242,208,153,119,88
117,214,327,222,207,173,125,79
124,275,351,217,243,199,124,76
134,276,341,201,242,196,125,75
121,274,333,203,232,208,122,67
118,270,278,209,230,211,121,61
138,236,302,203,241,216,124,65
133,167,304,223,212,230,126,64
132,168,341,229,189,248,121,70
143,180,390,252,192,238,116,77
145,174,386,260,200,231,118,80
122,172,378,251,164,218,107,78
118,173,371,234,162,198,108,79
117,175,341,226,160,191,110,79
105,151,274,222,164,186,107,74
108,159,282,210,156,187,102,75
102,145,255,205,159,180,105,74
112,160,298,195,152,155,98,72
110,199,296,228,203,135,98,89
112,218,321,217,209,147,95,85
111,227,323,214,209,179,101,85
122,235,344,218,209,177,99,82
115,218,328,251,206,174,99,81
97,196,378,226,159,167,86,55
92,189,367,213,139,163,89,58
87,168,374,206,120,156,84,53
79,161,360,219,133,148,74,52
121,191,344,182,133,152,74,66
125,188,310,181,139,176,70,71
130,185,331,181,153,188,77,76
130,189,303,187,160,179,68,74
154,190,330,197,155,177,89,90
139,211,341,200,159,176,92,91
154,218,316,213,180,221,109,96
151,217,281,226,182,215,103,91
177,234,319,275,190,216,106,104
215,263,318,287,239,263,118,104
206,228,288,289,261,266,124,98
198,228,338,284,249,220,118,96
201,226,346,318,260,211,130,106
179,216,332,276,250,203,127,92
107,189,300,239,196,184,118,80
103,182,287,240,178,182,111,81
113,190,279,265,176,175,105,84
107,192,279,230,177,190,91,70
114,186,273,237,209,205,98,78
111,193,309,244,231,190,89,80
113,205,381,267,226,183,89,78
110,177,338,229,235,194,86,68
109,188,394,214,209,196,87,74
101,186,393,207,188,194,98,68
99,197,415,229,170,185,90,62
112,205,385,197,155,182,91,67
92,215,401,196,135,175,89,69
105,196,349,192,144,171,103,66
103,209,348,175,128,166,102,70
121,227,311,164,134,152,101,66
108,213,277,166,147,168,99,62
130,244,244,179,152,177,112,78
128,242,240,183,154,176,101,77
135,268,298,197,156,160,97,78
127,233,282,195,145,157,101,80
137,253,299,201,144,172,109,84
122,230,313,188,140,172,98,73
116,254,366,203,143,161,94,73
149,228,380,195,143,165,80,70
143,226,376,170,144,204,98,72
137,211,361,147,133,180,92,68
171,233,372,154,133,171,92,71
172,222,328,131,133,170,92,69
142,210,263,137,136,172,109,71
142,234,314,140,131,135,88,66
141,232,349,144,137,139,91,76
118,209,344,155,137,132,96,78
122,202,324,146,129,149,101,80
124,208,308,148,136,167,100,75
133,219,377,179,140,158,101,79
129,228,377,179,135,154,95,74
111,216,385,173,127,152,88,67
99,208,393,171,123,155,98,64
112,212,403,180,110,121,81,69
110,183,308,170,105,122,77,66
134,171,282,202,117,123,76,68
126,165,265,205,130,136,79,64
127,157,247,216,145,125,68,63
122,140,229,211,150,131,67,59
113,147,285,191,142,129,72,56
81,154,276,163,134,136,73,46
82,155,271,157,137,134,84,48
84,166,294,154,138,126,82,52
77,211,319,166,150,135,84,53
112,218,259,220,177,148,83,72
111,236,319,219,179,161,85,72
123,244,332,214,169,154,71,74
125,298,365,224,164,156,71,77
124,289,376,233,152,153,73,79
92,280,370,213,149,156,78,62
91,256,318,233,156,154,84,64
112,257,322,242,161,155,88,66
116,196,272,232,149,165,85,57
115,163,235,235,190,168,88,57
139,180,244,212,179,164,82,64
141,191,255,183,168,164,84,71
122,194,253,180,168,169,88,69
121,189,259,227,191,165,87,70
121,181,258,204,165,164,82,66
96,151,277,206,155,157,85,60
93,133,252,208,160,152,89,55
83,113,251,201,156,138,86,53
70,103,253,167,157,145,83,51
64,104,245,165,135,135,84,51
57,101,257,166,140,138,89,61
57,109,277,169,142,143,82,57
55,107,256,184,161,160,93,57
59,117,237,163,133,145,103,70
95,130,259,153,138,150,106,83
101,141,248,160,145,155,116,84
131,184,270,160,147,138,113,100
137,189,261,157,133,124,101,100
148,197,272,154,136,129,98,96
165,226,336,162,133,121,91,89
164,254,353,149,118,113,71,84
145,231,343,144,105,134,72,67
142,237,367,138,99,136,78,68
139,234,384,168,97,124,70,61
116,208,372,164,97,126,72,59
116,190,354,165,107,117,77,65
117,186,349,163,115,97,77,63
122,174,338,164,113,87,71,65
121,169,328,166,118,90,75,65
104,177,323,173,123,97,79,61
107,159,304,171,122,99,77,54
155,211,292,170,117,91,71,67
160,213,308,170,144,129,78,75
160,213,304,161,147,131,73,78
156,201,249,168,149,132,68,78
164,198,258,171,147,138,69,79
122,195,376,200,157,139,68,67
114,197,375,205,143,112,61,58
108,192,386,184,135,123,69,58
119,203,392,163,126,122,69,63
103,206,403,171,123,128,60,63
111,182,359,167,116,127,59,62
104,179,345,163,109,124,61,58
108,182,324,166,118,114,59,58
99,169,312,169,118,123,60,53
95,190,390,200,133,112,60,51
72,178,348,178,133,114,62,51
101,193,357,170,133,127,65,51
103,192,357,172,134,138,60,51
106,195,349,173,138,125,61,50
110,183,281,135,130,122,60,52
134,212,306,133,128,131,82,68
119,206,297,131,122,127,86,73
114,212,307,130,107,134,100,75
115,210,320,172,118,136,99,78
112,196,286,168,114,137,100,79
98,151,294,173,109,131,88,69
90,137,300,178,110,153,112,65
84,158,311,183,115,140,101,60
84,167,319,180,110,141,103,58
81,178,324,185,116,147,105,55
66,170,276,183,121,159,100,50
65,167,261,186,127,154,73,48
65,147,272,210,139,151,77,46
66,135,259,204,138,146,75,44
68,121,240,193,125,143,72,48
64,139,254,190,126,130,74,49
63,144,268,188,122,110,65,45
83,162,279,192,127,112,67,56
80,156,271,174,131,116,67,60
94,153,277,179,139,118,85,57
96,136,255,181,137,113,89,60
99,153,251,176,147,104,92,67
86,127,205,147,133,100,88,59
91,135,218,156,135,102,91,54
90,136,202,155,143,110,86,61
89,147,221,150,140,110,80,59
89,158,315,153,123,103,78,54
88,166,342,148,126,104,75,55
80,164,345,130,110,111,85,57
82,172,351,122,96,105,73,56
90,193,399,174,121,111,73,59
86,171,325,184,124,114,71,56
108,165,289,175,111,118,76,58
129,202,313,184,116,113,62,59
129,231,359,198,122,113,65,56
123,257,324,162,115,117,61,49
125,268,348,150,112,126,66,49
117,271,353,155,118,142,61,48
97,254,379,150,130,145,61,44
80,232,380,147,126,142,57,43
90,176,358,142,119,134,61,49
93,182,399,154,127,139,57,50
80,170,393,157,130,126,57,47
72,162,340,166,122,115,53,47
70,157,303,166,113,109,57,45
64,155,306,176,110,111,61,45
56,124,264,165,108,100,59,44
78,138,273,159,98,93,60,46
79,130,272,142,91,92,61,45
80,122,277,141,104,89,60,46
74,122,270,132,100,86,65,46
74,123,233,123,90,82,67,45
52,137,259,126,101,78,68,49
49,138,260,134,110,84,71,51
62,135,256,123,99,85,72,52
62,131,263,118,106,113,64,51
62,139,256,129,106,116,60,51
57,118,222,126,97,115,55,43
63,131,263,124,89,117,50,42
50,128,244,119,93,133,57,40
72,136,248,117,87,118,54,42
72,124,253,111,89,111,55,41
78,139,296,155,126,123,57,47
73,143,285,147,122,128,66,46
75,143,291,153,129,132,71,48
54,141,287,152,127,126,73,42
73,144,288,163,126,127,76,46
70,135,306,154,99,119,76,43
77,125,336,181,122,117,68,46
75,126,337,181,116,155,75,40
74,125,340,187,118,157,71,40
55,121,343,203,126,161,72,39
99,150,370,192,125,158,73,49
95,141,327,174,113,171,80,46
108,136,321,175,115,135,65,57
108,143,316,170,115,129,65,58
123,206,392,172,123,133,61,58
95,180,311,165,125,140,64,52
98,191,319,165,113,120,59,56
84,202,341,164,111,105,58,51
85,203,349,174,110,108,62,51
73,170,354,173,97,104,62,49
70,169,350,178,104,101,58,47
81,168,391,187,112,107,66,47
85,183,392,230,127,124,71,54
89,189,430,270,136,132,73,61
85,184,359,262,137,130,78,63
82,189,354,254,125,126,78,62
72,185,315,251,125,119,74,63
82,164,317,244,125,97,70,58
77,148,261,195,125,94,68,48
82,118,247,181,120,123,81,54
82,147,283,184,142,132,83,58
113,182,331,208,152,146,78,55
102,188,336,198,153,157,74,51
115,236,378,214,162,173,108,77
120,247,384,227,179,174,103,75
127,246,434,258,175,169,101,77
111,231,410,246,182,161,100,77
111,223,389,248,178,166,137,81
99,175,356,242,194,160,115,58
101,208,407,254,181,141,109,60
99,208,359,236,175,155,114,57
89,211,384,236,159,161,132,61
89,238,418,234,186,155,118,64
120,243,429,233,163,146,119,78
114,225,406,205,168,156,121,81
111,211,391,191,171,142,120,81
122,212,353,183,180,144,146,94
124,185,324,151,145,143,128,91
106,173,295,161,169,162,129,81
106,156,272,228,184,152,126,75
104,153,261,231,187,163,125,77
90,135,258,258,184,155,75,62
93,146,247,262,192,145,80,72
89,147,341,272,170,129,73,71
102,138,323,235,157,149,89,75
109,168,332,231,155,163,90,78
107,163,324,223,186,191,96,78
120,231,430,235,193,207,107,81
124,234,359,218,202,206,118,83
112,270,367,218,216,228,137,81
104,258,390,224,222,215,136,74
115,274,441,239,202,189,128,69
109,222,347,253,197,179,120,57
113,248,379,250,201,200,127,58
116,218,381,244,180,153,101,62
127,210,349,261,175,155,98,65
115,202,338,236,172,157,103,68
108,191,324,206,166,156,104,66
89,161,282,203,152,147,93,64
118,153,274,194,150,151,86,72
128,167,273,172,145,136,85,73
129,155,177,145,124,138,82,73
150,158,177,178,196,163,92,77
162,159,183,179,200,163,79,76
150,195,239,194,223,182,90,72
144,198,265,195,255,205,103,68
148,202,284,206,262,223,118,73
137,206,279,191,247,201,116,85
145,207,289,196,241,186,117,94
133,202,293,217,246,174,111,87
140,195,280,216,229,174,107,87
136,195,278,217,235,170,98,84
124,204,354,213,205,186,91,69
111,230,425,201,225,203,94,76
117,209,454,190,219,208,138,94
97,218,469,185,215,203,142,100
102,224,502,185,237,187,155,114
106,219,472,208,239,167,152,114
100,200,433,250,232,157,151,106
94,204,386,235,209,175,121,93
96,192,375,248,211,176,110,91
91,182,343,257,178,183,82,71
86,170,341,239,171,211,82,72
102,168,307,199,158,200,100,67
101,178,310,205,173,179,94,69
100,179,304,191,154,165,92,63
104,172,289,185,178,166,91,61
151,185,287,180,183,146,98,68
133,172,286,176,192,150,96,68
135,149,244,157,178,140,92,65
134,146,266,165,188,137,102,69
130,151,263,150,190,143,107,70
76,183,266,140,182,138,125,64
95,184,274,158,182,131,111,58
95,209,293,166,185,140,111,57
91,205,287,156,182,137,109,49
89,205,289,151,146,138,130,51
93,178,283,158,144,143,105,50
75,198,314,188,145,163,107,56
80,176,307,196,153,156,104,54
85,200,321,192,135,167,108,63
86,200,310,202,152,147,79,59
79,185,299,221,153,134,81,59
78,178,299,217,147,110,77,51
64,177,306,215,138,108,92,61
53,151,263,215,152,105,92,59
52,147,275,215,139,104,88,58
94,161,343,205,136,99,95,65
116,149,309,168,120,108,97,70
120,145,315,165,127,124,109,64
125,144,312,174,160,138,106,65
140,154,307,189,166,143,110,68
126,149,229,198,176,150,105,60
115,164,277,199,195,172,136,61
112,157,253,248,221,194,123,63
139,155,253,266,205,176,121,63
134,163,300,269,208,182,122,66
131,158,304,288,227,189,146,74
122,131,282,297,223,175,119,70
135,138,304,261,191,151,113,70
144,164,342,252,181,166,120,82
151,160,309,233,168,170,131,80
148,167,310,191,133,174,106,80
149,181,317,183,129,163,104,81
139,190,332,192,140,154,105,81
127,179,310,177,132,137,91,65
120,173,319,171,137,138,90,77
118,170,336,172,133,120,88,70
122,176,340,180,129,143,88,72
133,184,352,168,117,143,86,76
133,189,374,159,123,154,116,87
127,197,373,162,118,145,101,76
