38,108,270,247,278,190,263,57
38,130,246,250,287,241,274,59
42,137,297,299,272,266,288,61
44,135,302,297,247,269,276,62
50,130,308,316,225,262,243,61
51,139,316,328,242,273,264,69
51,118,315,329,269,243,288,71
51,120,341,346,283,222,270,70
50,125,380,355,336,222,305,74
58,110,380,330,339,249,339,83
57,112,368,332,335,239,328,77
55,117,367,318,346,244,293,73
54,118,327,281,325,247,307,70
55,112,305,298,272,230,286,62
44,112,303,306,263,207,285,57
47,113,304,298,248,220,277,58
50,119,332,278,201,217,277,57
50,110,313,238,199,202,261,57
47,116,293,204,195,195,254,57
45,122,278,251,221,199,230,48
41,116,303,277,229,216,360,61
42,106,282,303,222,217,370,64
38,112,283,315,223,229,380,63
44,126,267,321,212,282,452,81
48,133,285,286,170,276,452,83
47,132,296,258,169,249,376,75
44,134,280,266,226,250,388,76
45,128,313,322,215,236,398,76
41,115,341,390,251,172,325,57
43,110,333,423,259,179,323,55
46,118,304,421,275,175,304,52
46,128,326,416,237,171,283,54
47,142,282,386,248,186,248,54
47,142,263,328,222,188,219,51
41,138,235,258,223,182,298,60
45,130,237,270,210,209,339,65
48,115,234,255,214,216,333,63
50,100,240,235,203,220,361,67
51,90,226,262,211,239,377,71
51,96,250,285,197,258,348,65
53,100,268,321,192,237,354,64
50,108,266,327,182,224,360,64
50,114,324,379,212,215,336,62
50,122,340,387,239,212,380,69
50,112,335,402,242,205,395,69
46,110,332,404,333,234,355,67
48,106,318,407,337,253,383,74
47,100,269,360,349,275,397,75
44,93,248,369,326,262,354,71
50,117,250,393,354,273,342,76
53,126,237,352,284,255,358,76
55,124,238,345,292,236,327,70
55,133,269,367,294,233,315,69
56,130,266,309,309,236,297,62
52,112,275,249,275,218,234,57
49,98,283,260,255,207,216,62
51,114,305,347,248,206,204,63
49,99,267,349,211,172,188,61
50,114,286,357,179,161,227,69
53,118,267,351,234,181,311,73
57,143,255,374,234,197,330,71
49,133,231,301,242,191,330,69
52,136,240,267,228,201,337,70
50,130,217,336,262,228,339,64
45,125,216,342,229,238,288,64
43,97,222,328,305,253,259,64
46,96,235,313,295,274,307,70
46,107,247,337,297,274,304,70
46,100,242,263,272,254,287,69
45,102,232,251,259,223,286,67
43,101,214,227,188,209,334,74
39,110,229,269,194,198,296,68
37,93,210,253,201,190,304,69
39,93,209,280,197,180,292,69
39,101,227,294,197,189,316,70
42,116,234,323,193,175,269,62
46,103,235,307,179,151,278,58
48,123,276,300,163,147,272,55
52,125,296,279,150,156,284,60
54,121,304,298,147,163,244,52
50,112,302,304,149,167,243,51
48,114,282,298,155,171,221,50
46,93,239,292,155,170,218,50
42,89,235,292,175,187,251,53
37,91,227,295,199,186,232,55
40,93,236,261,199,187,268,59
47,92,230,246,201,184,311,76
49,102,223,268,204,201,316,79
49,97,199,252,194,178,306,74
52,96,189,199,171,181,332,76
53,99,199,203,166,187,312,73
48,108,268,226,174,210,276,59
49,102,277,219,177,195,266,60
47,110,288,249,198,216,243,61
45,105,289,275,221,204,252,58
47,98,278,278,212,202,246,61
45,104,214,265,196,184,241,57
41,109,223,250,206,189,249,51
44,430,214,232,181,174,245,47
60,516,206,251,147,159,202,46
59,558,206,254,131,137,172,35
66,631,231,279,126,133,158,35
68,642,316,326,125,155,140,36
83,506,345,356,245,380,285,63
74,425,396,405,272,405,302,68
77,369,410,391,290,433,337,74
75,218,406,374,327,463,398,79
78,196,397,337,352,484,411,83
61,137,374,306,301,333,335,67
65,132,433,224,281,351,391,79
59,126,425,229,279,335,372,75
55,123,433,242,242,301,310,70
52,111,410,255,215,306,305,70
52,116,417,254,191,308,302,71
50,102,348,223,211,264,243,58
49,106,350,248,215,250,277,62
49,102,335,241,222,246,287,63
53,91,309,322,231,197,341,69
51,83,333,323,244,221,355,66
48,77,299,327,223,212,325,60
50,81,294,316,210,213,306,59
53,85,305,322,213,242,369,72
47,282,290,231,178,224,329,65
49,328,260,218,157,196,309,69
47,339,247,245,181,198,322,69
50,339,278,238,192,205,338,67
45,342,265,233,210,183,284,53
45,211,266,224,207,207,286,49
44,128,274,269,222,220,302,56
47,115,293,263,232,245,315,63
42,108,253,260,213,234,276,63
47,92,297,256,175,219,252,64
53,120,320,309,272,238,301,76
58,124,367,312,279,270,303,76
56,109,363,303,277,265,284,71
58,109,401,337,320,273,310,75
60,114,413,378,353,323,403,95
59,96,425,360,317,391,426,102
61,98,397,366,341,410,501,107
61,101,404,393,351,408,506,108
63,103,381,380,320,432,507,109
66,110,384,396,384,451,488,103
72,107,368,378,400,419,499,118
73,109,366,373,384,408,425,114
74,104,349,352,374,430,440,117
75,107,382,343,422,473,484,122
73,105,388,285,367,489,548,126
68,99,381,327,339,470,502,103
66,106,361,315,348,452,509,106
72,143,385,318,345,484,555,115
70,142,335,332,286,411,515,107
70,149,274,337,263,362,398,93
68,155,299,313,251,349,414,96
62,163,372,299,214,334,389,86
56,133,348,284,241,242,302,69
57,130,352,261,223,304,368,85
55,118,344,242,207,288,382,86
58,123,342,214,217,278,359,81
56,97,253,239,237,284,364,81
56,99,275,266,230,286,387,85
54,110,278,330,255,308,344,72
51,105,297,365,292,298,341,70
45,93,290,391,318,305,323,69
46,91,325,364,346,353,324,73
44,87,315,373,331,355,298,67
42,74,317,392,357,317,277,65
59,98,296,373,347,339,256,61
65,97,329,401,327,348,265,60
69,100,309,453,320,310,273,61
70,105,329,463,356,316,273,63
72,106,338,401,319,285,247,62
59,94,390,399,308,315,286,62
51,90,350,380,305,303,295,61
51,89,355,336,269,295,323,64
52,96,335,312,225,345,361,79
53,98,348,312,223,346,366,82
50,91,294,325,208,316,336,80
52,99,320,291,231,353,316,80
57,104,326,288,230,367,319,88
53,93,351,277,216,314,269,73
51,89,358,302,235,346,273,71
51,89,363,295,272,320,257,70
59,103,385,300,245,283,304,79
52,103,379,306,244,300,286,72
57,102,358,293,242,299,294,76
59,108,379,296,230,262,298,80
62,110,389,294,225,269,312,87
52,90,354,293,213,257,271,81
60,92,388,290,217,294,283,89
61,94,397,285,235,317,375,90
62,94,350,257,241,349,384,89
57,89,343,231,208,347,388,82
59,93,360,230,224,394,400,81
50,83,309,225,218,340,379,64
50,85,286,258,215,324,281,56
51,81,289,345,364,382,304,55
55,85,281,351,381,386,322,69
56,79,248,337,375,361,360,77
55,79,247,339,386,368,362,80
53,79,289,318,398,361,351,78
48,74,277,214,267,264,312,75
44,73,277,208,242,252,278,63
46,83,277,269,242,218,232,54
46,86,300,262,237,197,204,46
50,83,275,287,201,193,193,50
51,88,278,318,210,191,225,53
52,86,278,306,222,247,267,58
49,79,267,260,216,251,249,56
47,74,257,271,221,257,262,56
42,76,237,257,231,289,281,58
46,80,228,228,210,294,278,56
48,84,216,258,207,260,245,50
49,82,215,254,215,251,242,47
49,95,252,270,195,252,222,47
52,89,256,269,192,236,220,42
49,89,263,260,210,250,238,43
49,82,260,267,214,242,232,43
54,91,262,274,239,264,255,63
57,79,238,261,242,256,288,67
54,83,226,315,283,283,326,75
58,97,310,344,304,265,337,81
61,122,361,350,292,270,341,81
57,115,370,347,272,259,326,71
54,112,345,341,277,254,302,68
54,114,381,302,239,205,263,59
48,103,335,292,204,197,202,48
39,71,311,285,219,213,199,51
38,70,337,290,232,198,198,49
48,76,355,284,234,204,257,62
47,84,367,269,224,192,254,61
45,77,348,253,218,185,256,59
51,97,346,261,219,166,261,59
54,97,354,258,202,174,263,60
50,97,354,241,187,177,237,50
49,82,304,223,187,177,218,49
52,98,344,246,188,207,254,54
50,140,411,238,164,202,259,52
60,181,416,256,165,213,277,49
60,185,459,286,160,203,270,53
62,198,465,294,214,212,295,59
63,206,498,283,238,234,272,57
65,179,451,278,274,297,298,69
59,142,458,269,314,371,355,79
59,139,410,261,352,384,371,81
63,138,447,318,375,399,357,79
63,118,410,323,397,423,414,85
63,119,428,345,399,405,414,82
62,114,402,410,429,362,345,72
64,123,464,448,435,396,327,69
68,117,452,455,427,391,414,79
76,122,445,446,400,348,356,72
73,112,423,427,377,365,330,66
76,117,442,374,304,338,335,68
75,141,455,392,261,310,350,70
67,135,453,371,212,306,255,63
60,140,489,409,236,296,255,67
64,151,519,417,246,239,285,69
59,150,493,422,261,258,281,70
56,119,418,352,253,227,244,64
56,123,411,335,252,221,247,60
52,116,352,289,236,236,250,54
48,97,274,256,242,243,217,49
51,101,308,224,237,221,220,44
52,102,381,284,240,243,252,48
53,91,371,283,247,295,253,57
60,101,463,319,246,312,296,73
59,110,480,325,232,327,357,84
56,109,462,356,302,344,393,91
66,107,421,348,313,360,386,93
66,118,436,343,301,341,380,90
57,107,364,330,302,317,380,81
57,97,363,342,314,314,333,79
53,88,367,321,276,312,333,73
39,83,368,297,276,283,367,76
37,72,347,302,279,244,358,71
43,75,318,268,261,246,325,67
41,77,307,270,240,213,315,61
48,86,325,326,212,220,286,62
50,81,304,343,244,208,226,53
51,83,319,343,243,230,227,52
47,87,308,417,273,232,228,51
48,92,314,402,275,245,265,55
49,96,283,356,267,207,253,54
49,103,302,333,232,225,242,52
49,98,276,313,248,239,239,54
49,88,291,211,235,244,252,57
50,84,287,273,236,247,234,52
46,112,358,278,238,258,230,49
43,110,350,288,242,240,242,49
45,111,361,305,225,208,250,56
45,123,382,305,210,205,245,55
44,125,376,255,206,189,229,54
43,89,317,231,195,196,227,57
44,83,324,217,172,193,246,58
37,81,368,217,157,187,238,49
36,63,321,210,139,162,209,45
36,57,320,205,134,147,187,42
38,55,344,224,121,151,201,44
38,66,380,264,116,159,163,45
42,73,347,298,165,159,172,45
44,76,385,303,167,166,179,50
46,75,410,310,209,184,185,58
42,74,373,291,214,149,196,68
45,81,334,254,223,156,213,76
47,81,313,218,213,157,203,78
44,81,319,248,225,176,198,79
43,95,312,261,189,182,234,77
45,99,335,286,211,187,210,67
46,90,364,280,223,173,195,60
42,82,360,259,211,188,276,65
45,81,324,256,236,180,282,68
45,61,308,265,245,173,256,68
45,64,291,262,239,189,255,67
42,70,233,285,244,187,250,64
42,73,230,295,241,176,182,70
40,76,242,289,211,172,177,64
37,80,213,276,215,190,173,60
40,74,255,350,238,174,154,58
40,64,262,330,230,188,191,64
39,63,258,345,226,188,195,55
42,68,285,340,224,177,197,55
45,69,314,346,213,149,208,59
43,68,278,264,175,142,211,58
43,68,278,273,159,151,235,59
43,69,324,270,154,172,288,62
43,62,308,281,158,175,294,64
49,96,352,321,156,168,292,66
47,97,371,310,158,169,289,65
51,100,388,313,182,149,286,66
52,99,361,303,175,115,213,59
49,97,353,279,172,111,198,59
43,69,294,258,190,111,194,54
45,68,268,277,177,120,209,54
40,71,258,295,160,124,161,44
41,71,250,277,171,116,154,40
43,68,253,284,215,124,189,43
50,60,283,292,231,141,197,50
55,69,292,301,261,140,194,59
55,65,315,283,270,136,187,58
54,72,332,301,266,159,224,65
53,71,324,303,244,170,213,66
44,70,298,258,216,160,200,57
42,66,317,354,220,167,197,55
39,68,301,347,202,161,195,54
42,71,296,346,213,162,175,47
42,75,288,388,217,171,180,43
43,71,289,451,258,179,189,46
39,66,263,370,255,177,186,39
43,72,225,385,263,178,188,42
39,77,257,379,256,176,164,41
48,83,273,381,254,169,211,50
49,88,296,306,218,171,202,50
50,96,290,302,192,162,205,63
59,94,317,279,179,160,202,62
75,83,293,283,190,154,210,76
76,75,296,237,195,153,141,76
77,81,325,248,206,144,143,75
79,89,350,273,225,156,132,66
74,88,374,284,236,163,148,70
58,110,418,305,226,165,161,62
55,111,410,342,291,172,171,56
53,104,367,353,294,176,167,59
53,96,356,335,287,173,167,65
58,97,358,354,289,189,168,67
58,74,339,370,293,209,158,63
54,73,357,324,213,188,133,60
52,72,372,302,188,179,135,56
50,71,364,312,189,177,135,45
38,57,319,295,170,162,141,38
39,54,271,268,161,146,165,35
40,54,252,267,153,150,171,36
46,74,296,266,198,236,193,47
41,77,309,235,183,234,196,47
47,93,329,267,189,239,212,56
47,94,330,235,196,230,191,53
47,98,346,259,206,276,191,55
43,89,291,261,176,213,165,48
48,92,272,275,187,216,173,50
47,93,284,248,192,226,157,42
44,94,293,255,200,220,147,42
47,92,271,231,209,157,149,43
47,101,281,232,192,154,168,43
45,96,318,229,184,152,152,40
48,89,321,218,178,145,158,47
49,100,395,305,192,160,163,49
47,100,400,297,168,156,170,46
45,88,390,297,188,154,165,43
45,84,363,290,191,170,189,47
37,85,400,367,209,171,188,43
35,73,335,326,219,160,179,38
36,70,324,328,265,179,170,41
40,73,350,348,263,183,196,48
38,74,346,346,260,163,186,45
47,72,282,270,258,144,165,42
101,90,252,249,254,146,185,52
109,93,276,322,221,119,189,51
112,94,273,309,206,132,147,51
112,93,270,307,200,140,145,51
113,95,241,313,182,129,143,54
74,80,244,302,130,129,119,46
60,97,226,224,111,138,111,44
55,94,177,223,109,111,103,38
54,94,171,236,104,102,81,41
46,86,191,216,155,133,73,38
39,83,185,222,173,128,98,39
42,63,226,230,169,134,103,44
38,57,245,209,170,140,108,45
39,65,253,209,181,147,106,40
40,105,308,253,200,128,108,39
41,108,308,239,201,126,100,36
40,111,312,220,203,119,114,38
41,115,326,236,218,148,128,35
41,114,351,259,235,156,145,37
37,91,318,215,202,166,167,39
34,90,341,241,199,179,197,38
40,90,356,249,242,184,208,35
42,88,348,255,258,163,208,38
53,95,352,247,246,161,208,38
71,104,378,271,251,189,206,42
75,102,369,260,249,197,217,56
75,98,341,263,225,193,199,57
72,98,333,264,208,197,199,58
64,92,364,273,201,199,195,58
45,67,324,252,177,178,197,63
40,77,312,242,176,186,203,59
41,98,398,327,200,251,231,70
44,97,411,329,197,250,230,70
46,95,366,307,199,246,225,69
51,101,451,359,276,278,220,66
60,105,455,364,285,267,182,65
62,86,377,295,275,216,179,63
62,94,478,336,277,216,176,61
62,95,476,339,284,223,182,62
69,94,427,354,358,287,272,76
64,93,439,357,360,290,279,74
76,93,449,386,368,360,336,85
79,90,331,337,377,372,354,89
84,93,334,364,393,380,363,95
76,84,335,319,287,309,300,79
75,71,318,317,283,309,293,78
62,72,372,340,332,320,250,64
57,65,367,341,324,311,227,58
48,78,377,307,295,305,210,48
46,83,392,327,299,303,228,48
44,85,391,325,300,301,222,47
34,84,318,254,209,195,166,35
36,85,326,262,199,180,152,33
36,67,327,275,207,159,153,34
35,61,293,225,177,165,169,39
37,62,366,281,175,169,215,46
36,63,367,361,186,161,222,46
35,60,374,357,183,163,236,47
37,70,390,363,188,179,258,48
41,70,384,354,199,243,309,57
43,69,332,305,204,250,319,59
46,83,354,201,207,246,319,61
47,84,350,242,226,256,320,62
49,79,333,255,251,262,352,71
45,92,343,307,251,201,288,60
45,95,337,346,238,209,266,60
45,81,365,361,234,226,307,66
44,80,353,350,249,222,304,67
42,78,339,351,241,206,253,61
45,79,348,333,257,189,248,60
42,76,343,321,273,174,279,58
40,76,284,309,272,166,233,49
43,84,341,297,256,170,234,48
39,93,386,302,261,174,244,41
37,83,344,300,262,192,259,44
35,84,354,283,247,175,212,41
38,84,364,364,271,180,268,45
33,74,313,383,264,173,292,45
37,70,270,374,240,172,319,55
39,74,301,434,259,161,307,55
45,83,287,428,252,190,310,56
44,86,295,362,232,192,301,56
44,96,324,347,254,184,273,57
43,94,320,337,262,183,233,52
45,92,311,257,250,189,259,54
42,80,321,288,272,173,276,53
44,90,417,329,268,178,275,58
44,84,401,313,250,182,283,57
41,77,391,313,247,181,285,53
36,75,393,299,229,170,268,51
43,82,441,297,224,149,232,49
46,75,355,270,231,142,203,46
49,77,390,273,230,159,211,48
54,79,401,282,240,165,227,55
57,113,400,319,231,206,279,62
52,110,325,296,225,215,288,61
46,107,321,303,220,195,267,55
41,104,283,304,205,190,292,55
36,107,271,312,189,184,270,48
40,80,274,262,188,168,243,48
40,83,320,342,198,167,236,49
40,80,295,315,187,175,247,49
43,80,269,309,188,171,205,47
45,76,293,302,185,183,211,47
38,68,292,346,184,152,166,35
42,73,284,304,187,145,156,35
44,76,303,310,200,160,176,39
48,74,329,330,219,173,204,48
46,74,306,334,227,177,216,50
45,76,288,294,226,175,219,51
45,70,336,321,232,177,223,49
43,64,329,311,218,154,192,46
36,65,355,302,199,126,150,36
39,70,374,307,181,92,113,37
39,63,379,298,168,89,116,37
33,56,327,255,123,87,153,41
38,59,354,267,127,111,189,41
39,57,311,271,153,126,202,43
35,47,295,261,157,127,215,40
37,50,297,283,166,129,232,48
37,53,269,249,168,119,202,45
35,58,259,262,178,112,180,45
32,54,247,252,162,91,159,42
36,73,279,233,155,116,163,46
33,74,301,215,142,119,134,39
34,73,341,236,146,125,139,38
37,79,380,302,153,121,160,42
38,80,396,291,150,124,164,46
37,70,374,295,155,97,149,41
37,76,362,292,153,89,158,42
38,76,349,277,148,88,174,50
32,65,283,191,125,77,144,47
32,66,265,190,131,74,139,43
31,68,309,180,130,80,155,44
30,63,343,201,154,98,173,41
29,66,327,211,178,103,162,33
36,67,346,230,206,114,180,37
36,73,396,247,206,116,199,40
36,76,364,301,218,122,211,45
38,72,332,287,209,116,190,46
38,74,363,293,195,118,192,45
33,87,372,278,163,108,179,42
32,82,322,291,171,106,157,40
34,78,310,237,154,101,130,37
35,78,323,245,171,102,149,36
33,78,298,235,161,99,146,36
37,64,281,268,162,108,156,36
39,74,291,244,150,164,176,39
38,71,289,254,161,180,184,37
36,69,264,249,153,175,165,38
38,65,306,288,162,181,168,44
35,75,283,255,160,190,181,46
35,66,281,259,174,184,208,48
35,69,278,248,178,168,207,51
36,67,264,238,161,167,209,50
34,73,208,174,151,157,199,45
31,64,211,156,152,147,176,41
35,69,237,199,145,100,118,37
32,67,239,205,136,96,108,31
33,70,234,214,134,97,116,32
39,61,218,216,156,95,115,33
40,64,240,210,160,81,111,34
38,65,276,178,161,72,107,34
41,65,324,200,145,73,110,38
42,73,334,208,167,73,117,38
37,76,367,216,150,99,143,43
41,72,373,236,149,107,154,46
38,65,321,226,150,113,157,43
41,73,360,254,160,120,152,43
38,64,364,260,152,132,146,42
41,68,373,282,151,118,135,37
38,67,363,276,152,119,147,34
38,70,364,276,137,115,141,35
35,63,318,240,143,111,138,35
36,77,368,228,128,119,159,41
33,72,332,207,132,117,166,40
34,78,375,277,155,121,155,39
34,83,394,290,166,129,156,39
33,91,378,287,155,136,171,40
36,86,348,302,169,135,170,41
38,85,350,309,178,144,154,40
35,80,289,235,158,137,148,39
39,78,356,248,148,130,157,41
38,69,366,263,179,131,181,43
36,70,341,300,207,132,177,40
38,80,368,288,201,128,195,42
38,92,374,293,200,129,193,43
36,89,282,273,199,130,188,42
36,93,300,269,175,131,169,39
35,91,334,207,139,120,162,37
31,83,303,226,154,111,135,36
34,71,345,223,149,108,138,39
33,71,377,224,152,109,145,39
33,65,358,210,159,93,119,39
33,64,335,223,156,82,103,39
37,71,379,226,135,88,122,42
34,67,332,245,134,102,139,38
37,69,326,255,131,101,139,39
37,72,339,281,122,96,139,39
41,76,342,282,155,118,147,42
39,67,302,273,179,125,142,42
38,67,318,262,183,110,122,42
38,80,340,260,205,112,111,42
41,79,330,223,200,123,118,41
38,78,375,227,167,123,141,42
37,82,411,237,160,132,151,39
37,94,404,233,162,137,164,40
34,86,412,231,138,134,167,38
32,91,424,227,142,126,182,40
32,89,402,216,159,106,167,33
30,86,366,256,225,89,152,33
32,81,430,273,226,90,160,34
33,78,396,286,226,92,161,34
31,66,372,312,232,90,148,32
33,72,364,310,230,106,158,40
34,74,383,273,159,114,221,59
31,71,366,302,155,129,245,73
32,69,360,276,149,130,259,82
33,77,386,260,159,133,261,85
32,75,429,263,156,130,261,83
31,73,405,243,181,129,217,72
38,83,406,196,181,111,207,58
37,82,408,263,179,114,233,48
38,78,388,265,173,110,228,42
39,70,338,287,180,108,213,40
40,71,366,312,172,98,206,36
36,62,323,308,173,98,173,34
38,66,329,264,171,90,109,32
38,70,335,275,172,95,103,34
38,71,324,240,181,85,102,37
40,76,323,221,148,104,134,40
41,78,329,227,150,126,150,45
40,73,307,209,155,131,152,47
39,64,295,177,144,127,150,47
38,66,351,201,117,135,156,46
35,64,332,215,122,123,126,44
31,55,325,225,113,97,100,38
33,65,358,242,141,91,122,40
32,65,359,269,156,103,129,39
36,65,297,251,149,98,129,37
62,62,318,296,157,88,130,36
78,68,315,305,157,89,157,36
85,63,298,310,126,104,148,34
85,73,302,289,106,91,148,37
86,76,295,303,127,84,140,39
70,72,272,241,130,86,140,40
57,72,287,259,135,96,113,40
50,75,279,264,142,125,126,43
49,68,272,282,145,126,119,41
49,67,289,280,133,131,118,39
47,69,314,289,133,139,123,39
46,80,311,273,126,131,121,38
43,77,339,278,139,99,101,33
44,78,336,297,150,116,125,39
41,78,319,294,148,119,133,41
48,79,322,282,139,122,129,40
42,72,313,256,142,121,123,40
41,71,303,268,133,126,120,40
41,71,301,243,121,119,101,33
42,69,308,232,134,119,92,32
44,82,404,325,152,119,104,40
43,76,402,324,154,137,169,45
44,86,411,298,159,138,182,48
54,98,506,294,153,151,190,51
60,97,508,291,144,154,195,53
66,91,439,270,165,154,190,51
68,94,474,322,167,146,155,48
67,91,465,331,190,157,140,46
59,78,369,324,194,145,126,46
51,83,388,332,196,139,116,47
36,78,360,272,170,137,121,43
33,69,310,234,175,136,132,42
38,70,357,241,139,122,136,43
37,68,339,242,142,111,133,39
38,65,357,236,138,108,132,36
37,61,342,224,139,101,125,35
45,65,353,200,149,110,146,40
42,52,274,164,159,99,136,35
45,63,301,171,164,100,139,36
47,63,273,199,177,109,144,37
48,78,314,231,194,109,151,38
43,87,363,247,174,106,122,33
43,95,393,302,171,105,127,35
40,92,409,317,161,106,148,39
35,90,392,306,144,96,142,36
41,83,417,315,128,107,146,40
43,78,366,325,135,90,145,37
44,73,344,271,122,104,190,43
49,85,350,285,161,111,183,40
49,87,370,302,168,113,185,41
45,82,322,276,157,103,181,38
40,80,321,274,167,111,175,43
38,74,320,276,181,100,136,36
33,72,303,243,158,110,133,39
31,74,294,255,167,108,135,39
30,85,304,280,176,109,145,43
38,81,311,264,179,120,175,44
36,95,331,289,165,122,175,45
35,82,302,290,151,112,171,42
38,81,307,262,134,113,171,42
37,74,302,240,122,117,167,39
32,76,303,250,99,102,138,34
31,65,299,229,109,98,130,32
30,70,319,223,124,90,151,35
27,68,295,226,128,86,148,33
31,69,270,223,126,74,136,32
29,67,268,242,126,71,125,33
32,67,262,273,153,85,136,39
31,65,270,302,153,98,123,36
35,67,286,292,157,101,141,43
32,67,290,290,160,103,147,42
33,67,297,251,176,100,148,42
30,61,280,212,148,86,127,36
31,58,276,156,137,109,120,41
31,61,291,165,140,125,130,41
37,79,385,169,135,132,143,48
35,80,377,238,136,138,145,49
38,82,385,243,150,144,152,49
41,87,441,261,151,154,169,50
43,91,444,271,145,160,177,51
38,78,401,281,146,159,175,47
42,80,397,257,139,162,176,47
41,77,416,354,138,159,178,49
39,68,346,355,138,421,165,45
37,61,342,365,129,512,147,40
38,56,351,423,173,516,137,40
36,60,384,404,163,516,129,37
36,61,376,318,155,520,141,36
42,73,407,331,177,334,151,38
46,81,401,318,195,152,153,37
48,87,401,282,167,139,160,38
47,86,374,309,203,138,160,37
48,84,355,328,207,116,150,35
43,81,325,338,202,129,182,44
41,74,317,369,185,149,210,48
42,75,322,367,187,151,208,49
41,70,345,365,150,149,207,49
43,87,448,380,148,152,212,50
43,85,468,356,135,178,231,51
44,85,473,345,162,157,198,48
41,78,443,296,155,149,190,45
42,78,441,275,153,145,190,46
40,68,383,255,164,154,183,46
39,63,343,253,168,99,104,40
33,62,333,221,145,148,142,41
35,57,352,238,139,159,155,44
37,58,313,234,141,159,158,42
36,48,254,229,121,149,156,42
35,51,261,241,102,153,161,37
35,58,281,251,118,127,156,37
43,67,266,308,123,124,154,39
42,70,285,336,125,127,156,40
44,71,281,342,133,125,158,42
45,73,308,366,146,119,160,41
46,69,284,361,137,98,135,38
36,57,259,308,143,114,141,37
36,55,249,282,141,112,154,38
37,54,273,265,145,122,152,35
35,48,255,210,131,122,143,35
35,54,273,197,135,125,141,35
38,54,278,187,138,113,135,28
34,49,298,187,139,113,121,27
32,50,297,177,123,102,112,29
32,55,331,181,130,99,110,30
37,56,353,191,157,112,110,35
36,57,354,179,160,104,114,37
37,60,340,168,161,118,153,45
36,62,347,240,159,119,166,47
37,61,333,272,162,132,165,48
34,65,356,282,131,122,163,44
35,68,372,291,113,124,166,45
39,71,424,322,101,120,150,45
39,70,415,274,108,119,152,41
37,75,404,257,98,110,154,40
36,67,344,241,106,101,153,41
33,66,341,245,137,111,148,38
30,64,279,215,195,129,176,44
35,70,308,270,272,160,192,52
39,79,440,329,331,174,203,53
39,77,450,347,337,177,207,55
38,76,438,388,346,165,199,57
39,76,439,389,327,145,165,49
37,71,412,376,300,124,163,45
39,54,302,314,250,157,172,55
42,58,330,301,283,176,184,56
46,68,349,240,268,178,195,61
46,64,333,234,259,180,191,59
46,64,341,219,232,180,169,58
39,62,295,229,246,136,142,50
36,61,246,239,216,115,127,48
31,55,240,264,204,122,122,42
31,63,265,257,206,123,136,47
29,61,307,240,192,117,152,48
31,71,356,263,192,117,156,45
33,91,388,281,171,109,151,44
34,91,378,272,170,103,148,42
33,94,383,275,165,109,144,40
34,92,349,274,186,103,134,36
37,87,317,246,156,101,131,37
34,76,320,204,155,116,164,38
32,75,316,192,168,118,161,38
37,69,327,234,191,115,152,40
39,74,326,250,170,116,152,40
35,83,313,245,165,123,153,41
37,68,328,294,209,119,148,43
40,75,333,292,200,122,166,44
36,81,306,307,247,144,182,48
33,76,310,297,249,145,221,50
40,69,328,336,265,141,242,58
46,78,279,336,285,192,300,67
45,71,314,367,296,197,312,71
44,66,320,333,250,179,307,66
49,71,322,402,326,185,293,69
46,70,305,372,318,186,292,65
39,67,316,374,285,129,229,57
40,67,269,363,286,120,202,57
40,64,299,404,349,123,213,57
38,67,288,329,293,140,203,53
37,64,280,411,295,140,186,53
39,65,301,382,279,137,178,53
38,63,329,362,264,135,172,48
41,65,300,313,179,133,179,48
37,57,316,343,162,109,164,48
37,60,318,232,151,123,174,46
36,57,309,222,162,124,167,40
36,61,303,214,162,131,169,40
33,56,291,202,152,126,150,39
33,56,258,160,148,115,146,39
33,54,242,161,141,107,123,36
31,59,248,183,127,124,135,39
29,59,272,271,141,123,142,41
32,64,326,295,141,127,134,42
33,66,371,295,131,151,136,41
34,71,383,297,133,145,137,40
36,73,388,361,188,129,127,40
39,87,360,323,185,126,124,40
39,86,311,319,193,137,137,41
40,87,290,336,247,118,169,42
41,94,304,364,285,121,173,44
40,105,343,345,272,152,187,49
36,94,341,325,268,154,212,59
38,102,362,319,272,146,216,60
40,103,378,325,247,151,202,63
43,97,381,318,233,172,241,68
41,79,337,282,225,152,252,66
42,79,364,286,238,148,228,57
39,72,360,285,234,155,232,55
36,72,323,253,226,145,227,50
33,70,366,265,201,152,206,48
38,73,349,237,184,165,203,48
38,75,315,256,175,161,204,48
39,70,291,257,188,154,191,47
40,66,306,295,182,157,192,48
41,59,222,254,175,121,166,40
38,54,223,249,186,101,160,39
40,46,231,248,190,106,167,39
40,47,259,247,170,105,167,38
44,48,243,199,163,110,190,40
43,57,313,279,167,114,205,39
48,66,306,311,186,141,240,41
45,74,342,319,191,141,240,41
49,81,330,313,184,142,239,44
49,82,333,313,176,142,233,48
55,87,265,286,267,154,249,57
53,85,261,291,270,127,210,57
54,79,215,257,259,124,208,56
53,79,242,266,264,131,222,62
50,78,244,291,277,157,222,61
51,73,240,265,213,152,216,59
51,72,274,243,196,183,232,63
55,78,303,278,197,196,248,68
53,74,339,289,205,193,233,63
51,81,358,275,197,171,224,61
46,83,374,267,183,168,235,62
44,92,413,286,173,151,232,59
43,93,401,295,183,147,243,55
46,95,366,282,176,158,246,54
48,91,346,270,166,156,249,55
48,89,322,260,145,148,212,47
46,84,250,222,139,138,193,42
43,86,251,173,134,125,147,40
40,87,263,203,136,136,169,44
37,87,303,205,139,138,160,41
34,86,344,216,152,139,165,44
32,89,370,229,151,154,186,48
32,84,365,238,137,163,190,50
39,85,338,227,193,176,207,51
41,84,325,261,205,187,243,52
41,107,320,267,200,205,275,57
44,98,286,255,197,189,262,54
54,110,276,269,217,225,264,56
50,104,302,280,177,203,247,53
51,105,320,254,155,191,217,53
56,85,293,272,198,211,234,57
55,85,285,268,207,246,269,64
56,89,390,275,202,219,284,71
60,95,383,272,208,271,287,74
60,96,343,292,263,283,286,73
61,95,347,273,251,281,260,73
65,109,382,279,244,259,217,67
56,93,281,259,234,255,189,57
51,96,284,235,219,218,183,54
52,96,286,215,168,206,185,54
44,101,305,216,155,178,158,45
42,93,274,226,175,234,221,60
44,95,280,201,179,289,384,73
43,85,255,200,186,280,403,72
41,80,279,210,193,278,400,73
44,73,277,251,184,300,435,79
42,95,288,238,164,272,421,70
45,107,334,256,159,214,313,61
56,136,359,253,180,316,334,68
61,141,354,298,226,351,357,72
61,151,406,346,247,337,325,66
65,139,433,347,278,380,399,81
63,126,408,351,295,402,405,80
56,94,424,358,282,339,371,73
58,102,486,318,250,483,393,73
60,98,507,256,255,537,410,83
62,99,483,334,318,558,421,90
71,107,514,361,322,596,581,127
75,136,494,370,348,647,606,131
79,137,462,379,382,557,633,136
81,135,428,369,386,540,645,135
80,138,424,295,331,526,643,126
74,140,407,306,356,511,556,102
71,116,426,309,344,479,540,100
60,108,387,299,296,463,509,96
57,103,326,293,284,435,505,90
56,96,339,342,291,397,456,91
52,90,362,307,278,341,382,75
58,100,355,315,285,339,423,90
63,105,369,311,286,349,430,95
60,101,371,320,300,362,483,99
54,97,380,277,282,361,481,94
57,94,325,259,241,361,467,99
53,83,369,222,221,334,447,92
49,76,376,207,236,305,409,85
55,74,421,235,253,311,333,83
57,89,401,263,265,305,348,84
59,99,392,259,284,372,416,89
59,103,325,254,287,368,411,80
61,100,309,266,280,412,457,95
57,102,273,209,234,387,435,93
60,101,294,188,230,462,463,111
58,97,357,187,202,440,425,106
58,108,369,198,190,441,406,106
52,110,351,223,185,408,357,93
51,109,371,235,190,463,368,91
51,104,353,241,201,415,304,65
48,102,295,254,211,388,278,59
49,97,327,252,204,413,391,65
50,94,365,235,213,418,404,66
54,104,339,267,212,375,399,70
50,99,333,250,183,348,407,72
53,118,392,260,172,355,415,73
55,111,381,302,219,311,296,67
54,113,368,306,219,294,261,63
53,109,377,286,250,373,345,62
55,108,383,282,253,359,373,60
52,89,345,279,270,344,370,61
47,83,324,233,237,333,370,61
46,101,361,245,225,323,369,62
44,94,335,231,178,194,317,63
44,111,335,246,176,195,265,60
43,112,359,246,151,194,255,59
41,118,381,276,181,206,255,57
44,130,441,298,181,250,281,63
42,147,466,313,194,251,276,59
42,146,501,315,193,265,377,88
45,164,500,299,211,296,396,88
50,165,485,297,186,321,433,95
61,145,412,297,203,329,434,95
61,127,380,278,185,320,425,98
66,134,355,323,202,328,365,75
69,124,377,338,200,350,358,83
70,132,365,316,223,387,357,85
68,141,351,285,210,423,467,107
71,146,372,285,233,441,462,105
67,131,372,217,227,457,475,112
63,126,407,239,210,435,464,105
69,119,435,246,203,389,541,125
66,163,476,276,216,323,451,105
63,171,502,300,204,295,448,105
63,174,498,313,207,275,440,100
62,165,414,296,205,264,497,104
52,180,420,301,182,315,453,75
47,142,386,331,228,308,442,74
49,155,356,328,239,315,445,72
45,153,338,323,230,313,447,67
50,159,383,329,237,319,402,64
45,145,367,322,243,253,321,51
47,151,349,258,185,262,347,62
48,131,332,268,169,288,397,76
49,130,344,310,165,292,361,75
43,131,322,309,176,269,329,73
48,130,329,315,180,294,376,85
50,112,339,303,180,312,397,88
50,142,375,316,214,281,349,77
52,147,423,306,284,296,357,81
58,159,413,295,284,332,430,91
55,158,429,307,301,313,397,83
50,170,447,318,301,296,377,74
46,154,460,276,281,314,391,73
46,158,453,271,220,296,446,76
47,155,478,279,209,272,389,72
45,146,454,256,177,260,370,68
49,146,474,264,173,277,381,67
51,140,459,325,243,276,361,68
50,149,479,322,262,305,278,57
47,141,484,310,269,327,335,65
52,151,488,317,270,407,378,74
51,149,465,316,279,396,363,74
54,161,493,305,218,394,395,84
54,169,487,313,189,395,418,90
55,171,461,331,194,383,378,79
55,167,476,328,205,310,369,78
53,162,471,333,211,312,352,74
54,144,420,303,208,317,336,74
54,125,395,278,218,275,335,70
51,128,410,273,196,267,373,78
49,124,383,267,190,259,345,73
50,115,385,311,202,245,348,73
65,119,393,360,274,227,372,64
119,126,358,403,321,239,377,76
151,108,345,413,349,213,342,76
162,114,439,468,369,236,368,77
230,141,444,431,354,248,362,88
241,142,455,401,322,250,323,89
235,130,451,363,271,235,359,90
219,133,445,344,241,256,370,86
210,167,432,319,222,238,358,88
136,171,434,314,233,255,448,83
110,239,473,420,251,298,454,78
69,235,487,412,270,300,406,66
60,247,553,418,294,306,392,65
64,236,501,378,292,303,379,65
62,230,484,383,302,339,281,62
57,154,435,230,278,302,267,69
62,159,436,223,255,295,276,72
63,147,362,254,224,303,305,72
60,126,395,281,215,315,360,75
58,116,410,280,197,280,353,73
51,118,395,292,172,295,352,67
54,127,434,293,164,306,376,77
53,123,474,307,181,281,339,76
53,146,556,330,223,273,272,68
52,146,551,320,208,248,277,70
52,151,566,318,216,253,394,80
48,142,559,362,219,257,362,68
48,165,579,341,220,273,365,65
46,144,480,288,175,282,386,69
47,135,465,296,193,318,420,73
52,126,449,282,189,306,343,65
49,134,414,235,198,312,332,63
53,103,343,244,195,301,340,68
51,99,318,253,207,294,357,69
48,101,368,259,198,285,353,70
43,110,384,303,244,268,316,65
44,98,371,307,245,243,314,62
39,93,352,281,243,289,438,73
44,93,367,289,233,293,443,76
50,86,369,294,243,255,398,67
50,75,389,274,206,256,400,70
49,65,381,283,197,271,434,74
54,75,371,270,203,236,323,58
50,77,367,248,198,251,283,48
47,78,318,292,194,253,291,50
52,103,265,300,186,269,309,50
53,106,310,305,187,265,321,54
52,118,324,323,180,253,300,53
57,124,344,366,251,244,289,59
55,125,349,319,260,242,303,59
50,106,358,321,263,254,335,62
50,107,367,309,269,240,272,57
49,105,378,317,261,241,283,61
46,123,394,271,187,227,287,61
48,124,389,303,157,254,298,63
47,131,405,336,147,216,269,58
49,135,368,407,225,216,278,58
57,145,363,431,238,224,283,62
57,125,307,452,249,230,272,58
58,128,364,571,268,213,259,78
64,126,384,546,266,238,256,79
63,134,384,510,213,240,248,81
57,120,386,531,230,241,232,76
58,138,395,550,248,256,258,81
57,131,359,455,229,264,254,61
54,134,345,483,230,250,218,61
52,135,425,488,244,265,225,58
55,137,499,601,239,281,222,56
55,121,534,589,221,256,252,72
57,121,536,559,233,235,236,76
53,117,527,532,254,235,241,74
65,109,542,556,263,316,274,89
61,96,458,406,245,319,334,95
63,92,414,404,254,319,299,80
61,92,419,413,278,326,304,74
63,83,433,437,274,332,318,79
58,79,347,400,260,255,285,62
59,79,349,375,261,220,230,57
57,77,375,358,247,238,243,57
56,84,393,386,208,224,250,62
57,88,356,352,196,222,292,66
52,79,381,320,170,202,289,65
49,101,372,313,166,196,271,61
45,107,353,309,175,171,258,61
43,114,318,235,174,180,266,60
38,117,340,248,176,178,271,54
39,136,296,248,196,183,277,55
38,125,297,221,189,199,312,59
42,122,282,274,195,200,333,62
42,111,281,294,192,214,339,59
42,101,247,275,180,199,293,53
47,75,257,275,161,199,317,58
47,65,267,337,166,178,294,57
47,78,280,284,134,164,270,51
49,81,298,280,148,149,249,57
49,81,320,323,152,170,252,59
45,81,328,340,147,151,213,53
48,78,321,288,148,167,199,50
44,64,323,319,154,189,191,51
42,61,277,313,138,185,172,43
40,63,273,288,140,165,143,39
37,61,247,305,142,171,168,44
44,60,237,307,154,185,168,41
47,60,248,274,173,179,170,39
46,59,266,271,173,184,166,40
48,62,253,260,171,192,175,43
49,58,250,226,171,216,192,40
45,65,303,232,162,200,184,40
47,69,300,235,167,199,189,44
49,73,292,230,161,218,238,59
49,81,342,244,168,223,246,59
50,94,376,282,167,238,217,57
46,99,349,270,165,235,213,57
41,98,385,278,137,266,248,61
39,92,387,278,137,258,237,50
39,133,414,290,135,253,231,49
39,137,396,284,159,266,233,50
39,143,398,290,164,297,257,53
37,142,345,277,171,261,224,47
40,144,340,289,174,241,192,46
37,100,234,252,169,238,207,46
37,98,257,192,140,181,218,45
37,81,251,172,125,112,195,39
39,82,256,183,121,139,250,45
39,79,254,184,124,141,250,43
41,99,302,228,134,147,238,41
37,91,273,223,135,145,224,39
37,88,259,225,144,144,218,39
37,87,272,259,142,119,170,32
34,85,270,240,136,118,158,31
32,70,212,202,125,110,151,34
34,63,249,251,120,124,146,34
42,68,258,267,114,132,171,44
43,77,235,233,127,135,149,43
43,88,262,264,162,157,161,44
46,83,271,272,164,171,199,45
45,82,217,225,162,167,228,48
40,82,224,225,168,173,214,40
40,81,241,221,174,176,246,46
41,69,259,212,147,169,242,47
40,74,305,207,145,151,216,45
41,73,325,215,142,143,201,43
38,71,311,223,137,130,210,46
45,64,300,229,106,125,179,39
51,97,384,263,112,120,173,38
49,99,365,265,109,113,163,37
50,100,363,259,121,121,185,38
51,99,416,294,124,140,193,34
47,107,414,290,128,127,191,37
38,80,313,261,134,118,190,34
40,82,326,273,148,130,195,36
41,87,340,290,147,161,185,44
40,86,266,257,150,178,211,45
39,79,292,260,151,191,210,42
38,78,284,245,144,198,217,42
37,75,276,257,143,198,215,43
33,73,240,244,133,170,195,30
35,71,265,260,131,141,135,27
34,73,251,278,140,129,117,27
35,93,275,282,145,122,109,34
33,86,241,251,123,109,112,31
35,94,273,298,131,115,169,40
33,93,250,260,121,102,170,40
32,91,241,252,126,107,178,42
33,73,226,247,127,111,190,43
35,75,232,261,142,125,190,43
32,69,200,195,137,132,160,37
33,68,238,221,137,144,159,37
32,68,235,201,140,149,167,35
33,72,250,190,137,145,154,35
31,79,252,172,126,145,170,38
37,73,286,180,124,132,183,44
36,72,276,176,123,153,194,45
36,89,318,199,107,151,194,47
34,83,302,197,96,148,196,43
37,82,326,197,105,162,185,44
34,86,326,206,105,165,156,39
42,100,370,208,121,159,168,40
42,87,355,185,114,158,157,36
44,92,372,215,141,168,170,37
45,96,372,239,136,147,161,35
44,95,393,253,141,150,206,35
36,80,340,231,130,146,252,39
39,80,334,244,139,138,251,43
39,79,337,279,123,125,241,41
36,70,330,267,124,131,250,44
36,74,274,247,122,132,221,46
37,86,285,252,120,114,139,42
33,89,282,232,106,116,152,38
29,87,262,170,90,114,152,40
31,86,250,157,94,108,144,39
30,81,261,158,87,98,137,35
31,75,280,153,90,99,145,35
35,73,298,177,98,95,143,36
34,70,282,183,106,104,163,34
36,79,280,193,109,107,168,31
37,78,296,188,112,98,157,31
35,77,311,267,126,94,147,29
31,71,292,263,127,112,150,30
33,73,308,257,136,113,132,30
28,70,331,259,150,116,127,32
32,71,311,264,161,124,131,31
31,69,284,193,148,124,136,32
31,80,321,188,145,119,121,30
37,115,367,192,133,117,129,33
42,114,351,191,105,136,140,35
38,114,351,187,83,134,162,36
42,119,370,183,87,142,165,37
43,116,330,183,112,146,180,37
40,84,293,193,121,142,178,37
38,83,287,210,133,133,189,37
41,86,309,231,136,149,193,43
42,83,303,239,139,150,195,44
47,99,370,285,140,149,216,50
49,98,367,306,136,167,229,51
48,95,361,287,130,164,223,52
45,91,351,278,129,153,234,49
44,90,336,280,131,150,236,48
38,67,267,230,105,158,223,47
33,61,246,180,96,144,205,44
34,64,275,189,88,135,194,43
33,62,292,171,91,136,155,41
33,52,284,148,82,150,180,47
34,61,281,140,103,139,155,44
35,65,284,140,105,137,157,45
34,63,280,138,106,133,153,43
34,72,271,138,96,130,154,43
32,77,281,135,99,118,182,39
30,75,311,192,95,115,198,40
31,80,304,217,112,108,199,41
29,78,290,217,110,104,195,39
33,83,268,228,111,105,192,40
36,80,254,229,107,87,124,34
38,75,206,184,100,76,105,33
41,79,265,165,119,102,129,37
45,81,246,172,131,111,136,37
44,69,228,166,135,101,142,37
42,74,239,243,141,125,163,41
42,74,244,244,135,144,188,41
39,60,169,246,110,138,170,37
41,83,182,239,104,158,206,47
40,88,258,244,116,161,221,49
39,86,261,185,115,160,216,45
38,103,270,221,118,153,214,48
35,107,311,229,116,148,217,47
33,91,338,225,107,132,195,40
32,88,297,215,82,127,184,37
33,84,328,231,87,126,178,37
34,66,337,197,82,126,158,37
35,62,305,188,76,126,157,36
36,57,293,181,95,117,145,36
37,73,378,196,101,144,151,36
38,74,356,170,92,148,147,37
39,74,340,168,100,145,136,33
37,76,358,166,118,141,131,34
36,82,343,163,106,145,127,30
33,71,300,162,106,131,116,33
32,69,279,162,142,126,113,33
36,82,331,187,146,121,120,34
38,82,324,179,130,121,111,32
38,76,329,188,143,115,104,34
39,76,280,179,150,104,85,30
39,76,275,187,130,100,104,30
39,62,240,165,128,93,102,29
37,57,212,161,129,91,104,28
38,74,217,167,115,90,110,27
36,73,229,190,103,92,111,25
38,74,245,180,92,76,89,23
36,93,271,187,105,76,83,21
35,97,303,201,106,77,113,25
35,84,297,186,105,89,131,30
36,83,284,160,108,86,146,32
32,100,287,154,102,106,158,33
29,83,222,144,80,112,157,33
32,86,224,151,88,116,141,33
30,85,225,189,97,111,131,30
30,87,251,183,92,112,118,31
30,66,237,183,86,88,108,30
28,59,261,190,93,85,112,31
26,53,273,170,85,85,113,31
27,67,286,151,73,85,109,29
31,62,264,148,76,95,137,32
32,58,259,137,80,99,133,32
34,63,261,131,71,99,131,32
34,70,249,154,72,93,128,30
32,57,222,135,71,99,129,31
31,67,264,140,71,92,109,28
30,72,289,189,70,93,113,25
30,70,277,192,79,91,118,26
29,63,253,177,83,89,112,27
35,71,301,198,91,84,126,34
32,63,262,213,88,79,112,36
33,59,228,178,91,77,123,37
34,64,254,191,88,90,133,39
35,62,255,193,84,94,136,39
33,75,282,189,77,94,113,33
33,80,321,239,76,100,120,32
32,79,328,236,76,102,115,32
33,79,319,229,97,96,121,32
36,90,358,240,109,97,142,38
35,73,302,226,108,96,141,38
35,73,282,169,113,91,138,36
37,78,279,170,113,90,134,36
38,79,274,163,97,103,166,45
35,65,224,143,87,102,160,42
33,67,238,147,86,102,163,43
34,69,215,125,77,103,164,43
31,67,235,126,73,105,168,46
27,60,227,123,59,85,121,34
23,65,219,131,51,90,111,33
26,77,271,121,86,86,107,30
25,72,280,123,97,82,103,33
29,74,271,134,98,92,103,31
27,75,295,126,99,107,124,33
34,80,332,115,100,104,118,33
34,75,287,122,72,100,119,35
33,73,280,117,57,103,119,33
33,70,276,127,58,92,127,33
34,76,272,137,70,90,119,32
28,80,252,137,79,94,120,30
28,74,273,136,84,100,144,31
30,87,312,141,86,98,147,31
28,86,316,114,88,104,138,29
30,88,305,112,76,93,135,27
31,77,286,119,67,89,150,31
30,91,305,135,66,85,126,29
27,79,265,135,64,82,126,28
29,84,271,148,64,81,137,34
29,85,266,162,73,83,127,36
28,86,255,158,73,81,124,34
29,87,220,150,72,79,129,34
34,87,226,147,76,78,139,37
33,86,220,145,81,72,128,32
32,80,221,113,75,68,130,31
35,83,239,111,73,65,113,31
36,63,243,133,75,68,109,30
34,72,241,155,76,69,97,28
34,67,223,150,73,72,91,28
35,71,219,164,73,72,87,28
33,71,221,164,80,70,87,29
34,80,248,165,82,73,94,33
33,75,269,147,77,77,114,32
34,84,298,181,76,77,122,33
32,83,317,191,83,83,121,33
32,79,342,200,78,87,133,32
28,69,306,188,71,79,132,28
30,67,288,196,72,88,111,27
27,65,270,165,63,85,103,27
29,58,285,164,52,81,110,24
29,57,252,177,63,81,105,26
31,60,285,175,66,90,101,28
28,57,276,169,75,81,98,27
29,58,332,172,89,90,100,29
32,59,319,176,89,91,93,30
33,65,320,151,83,100,97,31
33,65,293,142,90,98,109,33
32,69,313,148,82,101,118,34
34,66,256,161,74,96,112,33
30,64,238,161,83,94,131,35
27,58,236,170,82,91,136,32
27,62,249,179,73,93,130,30
29,69,240,176,78,88,125,30
29,61,250,219,94,83,126,30
28,67,260,205,87,83,107,27
30,74,258,214,91,75,101,29
32,72,258,208,93,81,120,30
34,65,264,208,91,81,117,29
35,67,267,168,71,77,121,30
36,69,273,219,81,78,123,30
36,59,270,209,80,80,129,29
34,61,259,208,80,74,126,30
35,66,314,212,90,86,144,34
35,66,307,195,89,89,141,33
34,60,294,134,80,89,137,33
34,70,294,139,74,83,120,31
39,72,307,147,75,93,117,29
36,66,236,130,60,85,108,29
35,67,244,155,60,102,127,29
34,71,273,177,58,102,128,29
35,75,307,182,61,102,134,29
27,67,298,178,56,96,120,27
27,74,361,217,71,94,108,28
30,72,362,225,72,87,92,28
31,69,364,221,78,98,94,28
30,60,362,218,82,101,89,28
33,62,372,237,85,96,100,30
35,57,315,228,87,99,111,28
34,60,299,198,92,92,111,31
34,68,291,179,89,81,116,32
35,65,244,169,85,83,118,33
36,82,296,167,88,82,121,34
36,88,318,152,84,89,107,33
36,88,327,165,78,92,111,32
37,82,301,184,78,107,167,35
37,85,327,219,85,115,181,38
34,72,257,210,76,113,177,35
31,65,222,198,72,109,191,39
31,77,316,194,72,118,186,38
33,86,327,200,86,116,146,37
32,86,329,165,79,113,151,38
34,81,333,153,78,117,157,42
34,82,342,160,84,124,147,39
33,68,250,205,86,119,147,39
29,56,246,186,78,114,140,37
33,51,268,208,80,118,145,37
33,70,327,232,87,117,138,34
34,68,325,231,78,105,132,32
34,69,332,195,77,96,130,33
36,77,352,197,77,97,132,32
34,81,323,174,81,83,114,31
40,78,311,200,81,87,121,31
42,82,327,215,82,98,122,33
42,83,331,218,86,98,126,33
42,77,348,230,84,126,189,40
42,76,351,226,78,140,197,40
35,64,305,196,78,134,189,39
32,57,275,188,85,131,190,36
37,55,267,176,94,130,188,36
36,52,214,161,94,105,136,31
37,56,213,178,95,86,115,27
39,64,223,182,96,93,127,29
40,64,221,169,89,89,128,33
35,62,231,194,83,97,136,32
36,67,257,199,79,93,128,35
36,72,249,212,84,93,130,36
35,64,252,200,90,91,120,37
33,70,267,208,94,95,120,34
36,75,274,200,93,94,120,36
43,76,250,199,100,89,133,37
41,72,266,184,96,84,129,36
42,93,300,186,90,93,129,36
42,89,296,180,90,91,142,36
43,93,313,176,88,95,142,39
39,95,326,204,86,103,128,35
39,97,311,198,102,110,128,36
37,81,291,193,99,106,147,38
36,79,278,193,97,102,136,36
36,80,243,181,92,97,145,37
32,78,236,155,90,101,169,38
34,84,269,177,82,111,176,37
33,81,262,217,82,121,167,32
34,90,319,226,83,121,168,34
34,83,310,226,86,133,173,31
34,81,300,245,86,132,147,30
31,80,271,231,72,141,145,33
32,92,282,192,78,132,142,37
37,86,223,178,85,141,152,37
36,90,228,223,89,136,158,36
37,90,246,207,86,128,163,35
38,83,248,202,85,111,164,33
39,85,309,212,105,122,162,28
38,91,335,222,97,124,179,38
39,90,335,197,92,135,185,44
39,88,350,209,104,135,184,45
38,94,376,219,108,131,175,45
38,91,334,208,84,115,183,46
34,86,310,211,84,113,192,40
34,86,349,237,110,89,180,39
37,96,342,239,123,99,180,38
39,95,314,242,126,96,180,36
40,92,315,248,129,104,194,41
43,87,310,250,128,94,186,43
42,81,282,222,119,103,172,39
39,71,294,228,97,107,166,41
36,62,313,224,98,111,165,40
36,60,279,216,98,120,195,41
34,68,285,210,103,121,176,40
33,76,273,210,94,117,179,39
34,76,251,176,103,121,191,40
37,86,233,207,115,120,200,43
40,98,344,241,119,109,142,37
40,99,353,237,118,119,136,36
41,100,372,279,124,128,158,42
39,101,366,315,124,119,165,42
40,107,385,296,130,121,170,43
36,94,334,268,131,128,179,44
40,108,332,275,137,134,208,48
45,105,306,252,140,128,202,49
46,103,304,211,131,120,191,48
43,95,272,212,116,144,192,48
43,93,234,262,109,144,190,48
40,72,229,257,104,130,185,44
38,72,252,251,92,130,174,41
37,98,267,253,92,147,226,44
37,101,282,290,94,128,221,44
34,101,273,252,92,123,227,43
35,103,329,282,89,115,204,44
29,100,331,324,95,117,202,43
31,82,323,333,96,109,137,37
33,79,352,389,101,140,153,39
35,74,352,400,103,166,168,39
38,71,313,386,109,175,174,37
39,71,315,332,105,179,176,37
38,59,307,329,109,174,172,38
37,55,271,234,98,151,157,36
39,76,337,211,109,148,152,40
44,137,397,250,113,150,149,40
44,145,381,264,108,139,152,40
42,148,389,268,106,139,152,39
46,163,425,306,116,142,173,41
53,196,457,320,105,133,182,44
46,169,415,293,92,124,176,44
48,172,441,311,110,131,188,45
48,177,440,318,110,133,189,45
46,190,443,268,99,150,217,48
39,166,446,258,97,160,218,45
38,156,425,263,97,160,225,44
34,146,397,231,68,159,215,42
33,140,417,207,63,157,216,45
33,107,391,204,69,130,178,41
29,93,321,202,76,104,152,38
31,101,351,186,78,100,136,35
33,101,351,204,80,97,128,38
33,101,369,197,81,117,136,35
37,96,341,189,85,153,193,45
38,85,325,183,80,154,187,44
39,79,305,171,75,158,189,45
37,84,324,182,78,163,193,43
39,79,270,187,75,171,185,43
38,90,343,198,62,147,119,35
36,86,325,193,59,144,120,34
36,88,325,202,62,147,118,33
37,97,350,184,67,146,118,32
35,96,345,170,65,121,117,31
31,91,302,150,64,116,107,27
34,102,364,176,70,114,126,28
33,97,383,174,68,107,132,29
32,86,355,170,63,102,126,29
35,89,365,185,71,102,126,30
35,80,333,190,74,96,145,33
34,63,274,171,76,92,124,32
32,63,276,195,78,97,116,30
35,68,298,217,77,99,135,34
32,79,317,227,75,104,147,34
32,81,329,254,75,119,137,31
34,85,342,271,68,124,136,30
35,86,315,252,68,121,135,32
33,84,309,225,79,119,120,29
35,70,281,210,81,122,128,31
35,70,310,189,81,120,146,33
32,70,312,161,83,115,163,35
31,76,316,170,88,114,171,37
32,76,293,181,81,125,178,38
35,83,336,180,80,118,177,38
34,82,308,169,79,101,172,37
33,81,331,199,82,96,166,36
35,80,337,192,78,98,169,34
35,84,348,200,76,79,167,37
31,78,309,206,76,76,157,37
32,77,329,227,75,89,148,38
35,80,283,218,76,92,149,37
34,79,264,219,73,87,138,38
35,70,252,202,71,90,148,41
35,69,263,203,68,88,141,39
38,68,287,217,79,78,138,38
36,61,288,199,74,76,130,40
36,62,297,203,78,82,134,40
35,62,309,234,83,95,139,38
35,60,285,224,90,104,152,40
31,58,224,191,80,104,137,38
37,98,284,233,88,111,136,38
38,98,284,241,85,122,136,38
38,98,268,214,85,113,116,38
35,100,286,219,83,113,117,36
37,103,313,214,87,120,122,38
32,69,261,181,83,115,116,37
34,72,333,175,81,103,107,36
32,78,351,169,75,110,171,37
34,80,346,203,86,119,169,39
36,81,354,229,80,122,165,38
35,83,351,224,84,119,165,36
34,84,287,237,93,130,176,38
32,77,274,237,99,127,146,39
35,75,263,230,90,119,134,39
32,73,254,197,88,108,133,39
33,73,285,185,85,114,131,39
32,64,315,149,77,110,131,38
32,69,305,193,75,112,120,37
33,75,320,174,68,108,122,33
36,74,331,201,83,113,124,35
38,74,326,203,74,120,129,37
39,78,292,218,77,111,120,36
38,71,298,193,74,133,117,36
35,71,284,187,76,135,124,35
30,69,259,159,60,133,137,35
28,64,233,159,69,123,137,34
27,61,264,161,74,129,153,35
29,64,266,170,73,97,134,31
31,56,280,171,74,91,131,34
31,52,266,192,80,91,132,35
28,69,281,193,82,95,126,32
32,79,296,201,105,91,104,31
30,76,296,207,107,87,107,30
28,81,307,220,107,99,159,32
29,86,314,207,104,108,168,31
33,77,318,223,107,107,169,31
31,65,280,202,83,108,172,31
30,63,282,179,79,110,171,32
31,56,279,168,84,111,148,31
30,56,276,172,85,101,132,31
28,56,288,213,73,100,136,32
27,56,279,224,68,91,130,32
29,70,297,228,69,87,126,31
29,80,298,237,58,70,113,32
29,85,298,234,57,71,126,32
31,84,264,177,56,71,128,33
32,84,264,228,60,76,138,33
33,79,255,220,62,82,138,32
32,68,244,210,72,86,152,30
36,58,237,204,75,129,158,32
39,59,290,224,82,136,157,33
40,65,281,159,80,138,152,33
40,64,263,168,90,141,162,35
41,69,258,173,89,145,146,38
41,78,263,191,92,111,140,37
37,82,226,174,89,112,153,38
33,80,244,171,88,110,156,36
31,83,254,159,77,99,148,36
39,97,260,159,77,96,146,36
37,94,274,148,69,93,135,38
36,88,277,167,68,80,123,38
38,84,272,163,67,92,144,41
40,77,261,165,68,94,140,41
33,65,275,169,64,91,130,36
32,63,260,171,61,90,128,33
32,62,234,144,65,87,120,31
31,66,232,148,67,90,109,28
30,73,251,158,65,100,122,28
30,67,224,135,62,100,129,31
28,65,244,129,61,101,123,32
29,77,275,146,52,112,131,33
32,74,273,182,49,106,114,32
33,73,278,189,53,96,104,33
33,91,297,200,58,106,102,31
34,93,318,194,60,102,109,30
38,90,329,207,71,100,106,29
36,98,356,176,77,92,108,30
34,94,334,156,74,100,110,28
33,80,327,199,74,93,105,29
36,80,298,215,75,101,118,32
32,76,269,195,73,91,118,33
33,68,233,192,63,94,129,34
33,70,256,235,69,94,154,36
32,68,263,193,68,94,165,34
27,60,251,176,72,87,149,32
27,56,248,173,77,92,147,29
26,74,268,176,79,89,136,29
27,73,238,136,77,81,99,25
26,71,216,140,74,70,73,24
29,75,221,143,71,70,126,28
31,78,221,140,62,71,146,27
30,63,222,142,58,69,156,27
31,67,235,128,59,76,157,30
33,71,240,121,57,84,160,30
33,72,285,137,53,87,129,27
33,76,312,144,45,82,129,28
35,72,287,139,52,80,124,28
34,75,312,139,46,79,126,25
34,71,331,175,50,92,127,26
32,78,311,160,48,98,120,26
30,72,279,155,53,98,90,25
31,76,289,173,54,100,74,23
34,78,283,176,55,96,77,24
38,79,270,183,63,79,67,25
38,76,278,194,65,76,75,25
44,80,306,232,85,77,115,33
43,87,316,219,82,80,121,33
42,92,296,230,86,84,116,33
37,100,306,204,78,79,114,32
36,96,286,212,84,78,108,31
35,93,279,195,64,83,68,25
35,99,315,222,66,81,63,26
38,97,324,215,56,78,73,28
41,99,338,268,62,93,87,29
42,105,335,263,53,100,92,30
38,103,310,242,49,94,91,30
35,96,260,222,52,95,102,31
32,97,261,217,54,96,103,28
29,87,254,142,50,80,90,27
32,83,245,130,58,68,96,29
31,83,253,145,65,71,114,31
32,84,289,175,69,93,126,30
32,81,306,179,75,92,126,30
32,82,269,180,80,96,128,31
28,78,282,193,75,93,120,29
29,90,275,190,70,92,102,26
30,86,260,162,61,62,66,26
27,80,232,158,70,64,67,26
26,85,256,156,69,74,87,27
30,102,271,170,73,99,125,29
33,104,294,187,74,99,130,31
33,100,267,184,76,97,133,29
32,94,258,179,63,94,129,29
33,87,233,172,57,85,114,29
31,81,262,187,56,56,67,27
30,68,294,177,57,63,56,25
31,68,300,178,56,83,127,32
33,69,296,180,57,90,136,33
34,75,317,187,58,89,140,33
32,73,295,141,53,95,143,31
32,73,252,176,57,101,143,31
28,74,296,191,57,90,88,25
27,78,310,202,59,86,109,24
28,72,303,205,60,90,129,24
29,77,305,207,60,87,127,24
26,75,307,159,59,77,129,23
29,76,275,137,58,78,124,22
29,72,284,133,57,89,95,23
31,92,306,174,59,86,62,23
30,81,302,174,60,83,63,23
31,79,288,181,53,81,74,25
33,89,277,186,52,81,76,25
35,97,258,196,56,75,70,23
36,82,269,170,53,76,69,22
34,84,275,171,55,76,62,21
35,85,278,181,56,76,67,25
31,73,295,232,61,71,66,25
30,69,322,229,66,67,80,27
29,78,313,229,67,65,89,28
30,76,284,221,62,60,89,30
33,82,288,212,64,61,93,31
35,82,330,155,62,70,132,37
35,89,314,150,59,70,130,36
33,79,277,134,63,72,133,38
33,75,290,146,66,79,140,38
30,67,297,161,69,76,128,36
29,73,236,177,69,67,90,30
28,55,216,162,63,64,85,33
27,58,232,164,57,68,93,30
27,66,209,158,57,60,86,29
27,72,216,143,49,62,88,27
28,81,232,144,50,68,94,30
26,81,244,152,54,69,93,26
27,83,255,150,50,66,71,27
28,85,262,143,47,69,73,27
27,85,248,166,47,75,87,29
31,89,295,185,63,74,82,26
32,93,286,179,59,73,89,27
33,93,285,186,63,72,95,29
32,90,304,196,64,71,101,28
33,87,314,198,73,85,87,29
32,84,247,163,59,83,81,29
32,79,259,170,60,86,77,30
35,81,247,164,58,87,79,29
35,78,228,156,62,92,72,28
35,95,277,159,60,74,76,27
34,88,326,212,66,73,77,28
34,97,323,210,68,74,76,27
28,93,315,205,67,72,84,27
28,100,315,208,63,66,86,28
28,84,270,199,62,63,95,25
27,86,249,164,61,62,94,25
28,81,247,162,58,58,95,24
30,95,284,170,59,53,82,24
29,89,323,169,59,53,84,23
28,85,314,160,55,56,72,24
28,82,298,148,56,58,74,26
28,79,307,153,54,57,73,26
29,74,311,159,62,66,90,28
28,69,270,169,64,70,106,28
30,70,268,156,63,76,120,30
29,66,263,155,59,77,121,29
30,70,261,164,61,76,120,31
28,56,221,157,56,73,108,29
28,55,204,154,56,67,99,29
33,81,243,182,60,58,83,30
35,82,241,175,65,59,84,31
34,78,232,181,74,64,87,29
34,83,241,183,76,63,81,28
36,84,254,174,74,67,71,28
32,77,250,152,74,71,70,24
31,81,267,158,67,72,69,22
36,86,277,162,62,82,70,23
35,85,274,176,56,80,77,24
35,87,288,182,60,82,74,24
34,72,282,196,64,80,75,25
34,70,252,195,66,78,72,25
32,66,258,193,63,66,66,23
33,68,259,180,65,66,72,23
35,65,258,183,70,64,80,26
37,68,248,169,74,67,94,29
35,60,250,159,74,64,97,29
33,60,271,159,73,63,105,29
32,59,279,153,70,62,98,30
29,63,271,144,67,66,103,27
27,66,287,157,59,65,91,25
27,73,299,165,60,67,90,27
28,71,258,147,64,73,90,25
27,70,255,192,70,72,87,25
30,71,250,191,64,68,72,25
28,65,233,177,62,72,67,21
28,70,216,166,59,73,61,18
28,72,214,159,61,64,56,17
29,74,222,140,59,67,87,23
28,70,225,148,68,69,104,27
31,77,210,150,68,61,112,30
33,72,224,160,67,65,114,31
32,74,244,204,63,71,114,32
32,75,224,188,61,68,94,27
31,73,208,189,51,76,118,25
28,66,202,195,47,73,112,23
24,63,216,201,57,66,111,22
23,54,198,169,56,62,109,22
22,59,226,174,54,72,107,22
28,64,256,189,60,69,74,26
33,101,289,193,68,70,73,28
33,109,292,188,63,76,72,28
33,118,299,175,64,78,71,27
35,115,313,167,66,77,71,30
30,114,298,139,63,72,58,26
26,85,309,175,60,73,54,23
26,74,297,165,58,71,79,24
27,63,287,173,53,68,86,25
27,64,251,167,52,63,83,22
28,66,263,167,48,60,82,21
29,86,245,125,46,65,119,27
29,89,241,123,46,69,115,27
37,112,307,168,60,76,113,30
35,111,315,174,64,79,113,31
38,113,298,183,66,86,118,34
38,103,280,172,65,82,85,29
38,101,301,175,62,78,84,29
36,87,333,153,53,75,80,27
34,83,326,147,47,72,81,25
29,88,369,176,51,74,85,22
32,98,406,196,51,70,83,25
33,102,390,194,52,71,70,25
30,99,312,168,55,69,75,24
30,104,313,168,66,66,80,24
35,100,264,125,63,63,101,30
34,89,253,189,64,79,114,31
33,87,256,196,66,81,118,32
33,95,281,216,69,80,115,31
36,117,331,240,67,86,112,32
31,116,341,242,65,84,85,27
31,115,315,201,66,84,102,28
34,116,326,209,78,83,114,29
35,104,320,203,77,82,116,31
33,73,282,191,74,77,123,30
33,79,270,210,85,79,127,33
33,74,279,224,88,65,101,29
33,78,278,231,80,65,95,29
29,83,259,228,77,70,93,29
30,91,277,217,78,68,84,28
31,89,276,199,68,63,77,27
32,95,262,181,59,73,73,30
31,87,251,177,55,78,69,29
31,89,268,169,54,85,88,32
31,80,257,166,51,91,97,33
33,87,265,170,52,93,98,36
30,85,262,166,57,90,94,33
30,92,284,157,64,83,95,33
28,83,261,153,65,78,82,28
31,89,283,177,69,75,74,26
27,74,273,181,72,77,76,21
33,89,269,165,75,82,90,23
37,100,261,158,71,80,85,24
37,103,279,207,74,75,92,25
36,97,235,199,70,84,100,25
36,95,231,189,65,80,101,25
33,87,252,202,63,70,93,25
26,70,239,211,63,69,96,23
30,67,237,171,58,73,94,24
32,81,262,154,54,76,89,28
37,86,265,187,57,87,92,29
35,84,259,181,53,93,92,28
38,81,266,170,59,96,85,29
36,85,285,181,61,95,74,28
36,72,250,182,62,85,71,25
30,85,259,161,61,81,67,24
34,87,264,164,68,77,95,29
34,91,267,171,67,74,103,30
35,88,233,155,66,70,106,31
30,86,264,168,67,75,107,31
33,84,272,166,66,69,110,32
30,74,254,154,59,70,85,30
28,69,257,163,57,71,79,30
27,65,260,200,58,77,81,29
28,66,242,193,56,72,77,28
28,59,261,195,59,71,69,29
29,63,292,201,58,67,82,27
30,63,285,184,51,82,109,27
29,71,306,162,48,89,113,28
33,88,313,164,63,92,113,29
33,88,331,168,59,96,115,26
32,90,316,159,60,99,107,27
31,93,323,199,61,88,85,26
32,90,297,192,62,79,80,27
29,77,288,194,59,76,81,26
28,78,253,202,58,76,81,28
30,78,258,201,58,76,82,29
34,80,255,167,68,87,81,30
34,77,255,160,68,82,79,29
36,75,277,184,66,82,83,32
38,78,269,227,67,79,85,32
36,71,249,229,69,79,84,30
34,69,248,228,61,82,87,30
37,76,256,259,72,84,97,30
35,80,231,249,69,82,91,27
31,68,220,211,76,80,93,24
32,76,258,222,82,82,93,24
31,79,268,216,81,69,87,24
29,83,279,196,71,72,97,28
29,79,314,198,73,75,103,29
28,78,335,188,64,73,101,29
29,80,350,199,60,76,100,35
30,75,349,225,60,74,97,33
33,79,369,247,66,70,70,30
32,86,364,263,59,69,72,29
33,86,353,255,59,75,78,29
33,86,310,242,53,67,76,23
33,85,297,261,61,75,80,25
28,73,296,239,58,84,81,24
30,64,267,206,65,85,72,26
29,64,276,210,72,88,86,26
29,79,303,231,75,92,90,28
28,83,324,196,67,92,87,27
27,79,299,175,64,80,84,26
31,83,348,191,64,86,93,27
32,84,335,201,65,82,84,31
32,70,301,175,67,76,86,32
34,63,273,163,69,68,87,33
34,65,260,174,69,78,89,33
31,68,189,184,69,75,77,32
35,83,213,168,68,76,78,29
35,75,238,167,68,79,74,26
34,74,226,170,64,78,71,26
33,73,237,163,65,72,86,27
33,69,253,188,64,73,90,25
30,63,225,197,65,67,80,25
28,64,219,193,58,63,79,26
30,66,231,186,57,69,92,26
30,76,216,187,60,74,82,25
29,79,216,145,57,70,90,27
28,80,235,153,46,72,95,27
27,78,227,153,49,72,90,27
27,76,229,159,52,68,77,26
30,74,234,163,66,67,71,26
29,76,241,162,63,68,63,24
29,74,240,156,74,74,66,26
30,77,236,156,74,78,82,27
29,80,242,163,75,84,88,28
27,76,272,157,60,78,93,28
27,67,275,148,63,77,91,28
25,55,270,152,53,71,92,28
27,70,283,150,53,68,89,27
25,66,268,139,47,62,99,26
27,70,263,146,48,73,109,26
30,75,243,148,51,74,112,29
30,80,267,142,49,79,104,29
28,75,269,142,49,81,113,28
29,79,336,157,53,80,110,28
27,72,315,151,50,71,105,30
24,78,322,177,47,65,109,27
24,75,291,168,50,56,117,26
24,69,291,183,67,53,100,25
24,65,206,170,66,50,95,26
26,70,269,168,68,61,86,24
25,68,263,138,73,79,93,28
26,69,284,158,71,81,93,27
27,71,309,164,56,82,92,27
28,70,307,157,56,83,89,29
31,68,260,171,63,77,100,32
34,69,271,181,59,70,90,29
35,69,276,171,59,83,100,30
36,69,243,166,62,83,103,33
36,74,256,185,67,81,99,30
34,75,247,212,71,80,91,26
31,65,243,206,68,77,110,28
29,65,230,197,68,68,101,26
28,58,224,183,63,62,101,22
32,54,209,185,59,70,104,24
28,73,326,163,53,89,104,25
29,77,337,158,55,90,77,24
30,75,337,160,55,87,68,24
32,81,340,157,57,99,67,26
29,81,354,144,63,96,66,25
29,60,245,118,57,78,63,26
30,59,205,157,53,79,77,27
31,62,189,167,59,85,83,29
30,61,209,171,65,86,91,30
31,72,246,171,69,95,103,31
30,72,254,171,68,101,111,29
29,71,252,133,69,95,105,30
27,70,259,143,62,90,100,29
27,69,262,145,54,79,94,26
25,56,224,138,43,68,86,24
28,56,217,138,45,68,74,25
28,57,230,163,49,67,85,25
28,55,266,160,49,68,82,25
26,61,249,170,54,72,87,26
27,65,266,174,52,69,90,25
27,65,282,222,58,65,93,29
26,67,306,214,53,67,92,28
26,68,288,209,57,63,96,28
26,60,273,202,55,58,96,30
25,53,246,207,59,73,97,30
24,56,284,174,59,70,95,29
30,80,301,182,70,74,90,29
32,81,290,177,70,73,96,31
32,83,318,182,71,78,88,31
31,83,318,169,68,64,81,31
31,80,269,161,70,67,99,30
26,62,234,140,63,61,106,29
26,58,249,139,62,68,102,28
24,53,223,160,61,66,103,25
25,57,245,177,64,70,102,24
23,58,242,169,59,72,81,22
25,56,222,190,59,72,61,24
22,57,206,203,58,67,63,24
26,57,222,175,59,64,69,27
25,55,227,163,51,63,85,29
27,60,234,173,49,67,93,32
26,53,259,155,47,70,101,31
28,65,286,189,56,69,95,29
29,75,293,204,58,69,87,28
29,75,268,201,63,67,71,26
31,77,293,209,64,75,155,30
34,80,269,206,63,77,160,31
36,73,229,153,62,82,163,33
35,61,229,175,64,93,169,33
36,64,265,186,61,104,172,34
37,86,346,210,63,106,149,35
35,82,349,211,64,102,141,34
33,86,397,221,67,104,139,34
32,91,381,201,60,93,133,34
34,111,414,204,63,87,149,33
31,92,323,153,59,71,99,28
36,96,326,159,68,73,94,31
38,92,274,164,64,81,100,28
38,88,273,177,67,85,113,30
37,65,204,170,67,83,110,29
37,66,215,179,69,87,122,31
32,64,245,186,61,87,124,26
26,61,264,174,63,74,120,27
28,71,288,149,62,69,113,30
28,63,287,146,59,70,93,31
27,62,280,146,57,68,76,27
29,69,280,145,66,76,102,28
29,79,284,165,70,77,101,29
28,71,288,183,69,84,107,26
28,73,268,177,72,91,118,27
29,72,276,165,74,88,115,27
29,66,267,190,69,82,93,29
32,59,256,179,59,90,96,30
34,71,234,161,61,89,94,31
32,68,238,161,55,81,106,32
34,78,253,171,62,83,110,34
33,77,226,151,58,83,114,32
32,86,253,168,59,73,114,30
33,91,285,202,67,68,113,31
34,93,282,203,71,62,98,29
33,83,273,200,68,63,103,27
32,81,280,243,73,59,100,27
33,74,288,236,77,64,119,31
29,61,250,214,67,72,117,30
30,70,292,228,72,74,114,31
33,76,305,233,67,83,116,31
33,77,303,177,65,88,121,32
33,77,314,185,64,90,99,32
34,84,323,194,65,95,96,29
31,82,323,195,56,102,94,28
32,79,300,187,56,92,84,28
35,80,302,192,54,85,73,29
33,90,316,201,61,97,123,28
35,88,361,194,63,88,125,31
35,98,348,301,79,84,130,31
31,98,362,307,82,87,143,30
32,111,381,304,82,106,152,34
31,102,347,294,76,94,118,32
30,99,374,294,81,98,111,29
36,97,376,188,83,104,141,31
40,97,382,184,81,115,145,33
35,82,370,186,82,104,137,31
38,79,361,176,85,106,141,31
38,80,283,184,79,112,147,31
33,66,292,181,59,117,123,29
31,68,285,177,63,114,111,27
38,79,317,225,79,123,134,28
35,81,313,223,74,122,143,30
36,83,406,252,78,117,142,33
40,91,385,249,80,114,142,36
39,89,382,248,76,102,137,35
38,91,428,274,76,125,127,36
39,91,434,283,77,141,122,37
38,89,354,259,78,138,122,38
35,82,370,267,92,136,115,36
35,82,382,274,95,141,118,37
35,76,335,217,88,128,119,35
33,79,372,217,86,118,113,33
35,78,358,199,88,124,131,32
39,81,340,178,77,121,141,34
42,83,369,178,79,124,149,37
40,75,352,171,74,109,137,36
42,73,315,177,76,103,136,37
40,74,337,188,72,111,124,36
38,81,342,182,71,124,123,36
35,83,302,187,65,130,125,36
36,85,295,196,75,131,126,37
35,102,313,210,85,156,166,43
36,98,296,213,83,150,166,41
36,90,293,219,85,140,158,40
38,88,285,224,93,133,148,37
37,86,270,217,85,138,188,39
41,65,255,183,76,118,172,36
40,64,237,178,82,121,170,38
41,74,273,188,79,122,177,38
38,71,277,180,69,119,178,40
40,87,319,203,91,115,143,38
40,116,367,240,97,119,126,36
37,122,411,271,97,112,119,34
38,116,393,258,96,111,105,32
39,133,471,299,97,111,122,33
39,126,451,290,74,115,120,33
38,113,420,274,71,101,126,41
44,113,425,268,67,112,130,43
44,116,437,272,69,111,132,45
51,105,356,249,82,122,115,44
51,104,348,244,86,119,140,48
48,88,318,229,80,117,153,45
46,85,346,218,74,108,155,43
43,84,338,215,72,105,158,42
36,75,346,184,55,92,154,39
35,80,344,178,48,85,130,33
34,86,375,248,59,86,106,24
31,95,308,232,59,86,107,24
33,94,291,247,70,129,150,31
35,101,342,285,78,129,156,34
35,98,383,328,90,130,159,38
40,97,371,342,88,135,169,50
43,93,358,338,99,147,185,62
43,97,413,363,103,122,161,63
43,94,350,328,102,131,161,63
41,97,329,289,97,142,160,61
41,90,308,226,97,161,187,57
47,78,333,239,126,162,168,48
46,71,263,185,118,166,165,46
43,70,292,204,118,157,161,46
46,62,253,245,127,168,170,47
52,64,283,250,129,149,150,46
73,64,273,253,103,142,168,44
95,65,332,263,122,153,168,44
107,70,332,261,130,168,181,44
111,71,335,226,149,162,175,44
112,71,324,221,179,216,182,45
103,89,336,201,183,231,187,47
90,100,351,212,186,234,272,57
82,127,399,237,192,250,301,62
76,129,422,245,178,264,309,66
70,136,436,247,155,540,312,65
63,130,467,271,177,798,332,71
54,121,452,264,178,832,327,68
50,94,397,264,200,861,396,78
51,95,368,325,289,886,403,75
52,95,356,340,339,743,394,76
53,99,311,345,349,516,477,81
56,109,323,348,360,478,451,77
52,103,337,356,357,421,388,66
55,100,344,345,328,357,401,72
54,95,357,326,279,364,415,78
58,94,397,325,270,289,301,66
55,106,371,326,253,288,330,72
58,118,387,334,237,298,318,73
54,135,475,318,234,313,291,65
59,132,485,337,233,297,288,66
55,142,453,380,219,283,281,67
53,128,427,387,227,261,243,58
58,117,397,357,239,239,228,55
59,98,285,328,212,219,235,57
55,95,249,323,211,210,208,48
53,81,245,247,199,235,247,54
51,74,252,242,190,220,228,55
48,78,296,228,204,217,233,52
45,76,298,215,181,228,226,51
44,79,278,200,172,220,238,55
41,68,259,221,184,178,197,48
43,71,284,214,176,183,201,46
39,91,245,233,158,212,212,50
40,100,255,352,213,201,222,51
42,111,272,372,221,222,229,55
41,113,281,385,230,239,232,55
43,115,276,417,254,229,233,55
43,99,286,422,248,227,280,57
45,102,300,361,211,255,310,62
42,87,298,336,211,244,301,55
45,85,286,310,222,236,292,56
41,83,280,266,208,246,287,58
37,79,270,258,206,222,240,51
35,71,317,249,212,209,221,49
39,83,351,279,217,212,225,50
37,83,365,277,207,195,236,49
40,97,357,272,196,208,251,46
40,97,349,288,189,224,263,51
40,103,318,294,171,230,256,48
39,96,276,295,187,225,278,55
42,92,256,309,186,222,277,54
43,83,283,317,179,198,266,56
44,85,301,307,191,200,256,54
43,72,278,281,199,180,237,51
41,73,326,262,175,180,232,44
37,74,340,319,170,201,223,44
35,65,316,302,175,200,222,41
35,67,330,298,199,219,209,38
39,77,347,299,190,221,196,37
41,84,336,299,192,217,163,37
42,84,331,223,177,210,183,37
42,85,337,285,176,235,185,38
46,94,318,279,147,207,203,40
43,93,308,272,152,204,203,42
43,83,261,280,145,213,194,39
47,85,265,277,138,202,173,40
45,83,249,210,139,172,178,38
42,99,348,206,125,151,148,37
42,90,324,205,132,138,149,36
40,87,317,162,127,122,149,34
36,87,342,183,139,147,180,38
40,89,347,185,136,144,195,39
39,56,245,166,132,147,193,38
37,55,241,205,111,135,187,38
40,63,267,222,116,139,183,38
36,56,227,194,98,106,141,31
32,50,222,199,94,112,127,31
34,60,352,232,100,119,193,44
36,68,356,228,102,130,221,47
33,80,343,216,101,124,220,51
38,90,376,270,149,131,225,54
40,96,398,320,165,130,220,56
40,96,306,319,157,129,211,52
39,95,329,314,154,123,188,49
40,88,359,320,153,124,188,47
41,80,350,296,107,143,265,60
40,73,331,235,84,148,284,60
43,70,327,241,87,147,294,58
47,101,363,248,96,150,293,59
45,100,355,252,110,149,300,60
43,108,378,248,107,151,248,47
45,114,387,260,101,153,219,44
44,113,388,237,101,174,228,48
40,84,360,224,90,173,232,46
42,81,356,247,76,177,226,44
40,65,304,233,78,159,206,40
38,54,298,219,78,145,205,41
44,61,276,224,79,156,163,54
43,60,243,245,80,155,165,54
45,69,294,237,75,153,164,55
45,75,310,237,77,150,165,55
51,89,301,246,90,164,208,63
46,126,396,288,106,137,191,47
48,134,406,262,104,134,176,47
48,132,384,238,101,128,171,45
47,135,459,341,112,174,225,53
42,138,473,340,103,174,202,45
40,125,411,305,89,157,185,43
44,130,466,334,98,160,191,42
43,132,472,344,104,179,219,48
46,142,387,253,92,177,210,44
44,142,389,255,97,173,213,41
43,129,415,261,94,186,223,41
46,130,372,228,86,186,235,46
48,125,346,219,101,234,291,60
49,113,370,215,101,214,272,59
49,98,347,233,96,212,259,60
53,88,314,222,99,203,257,64
46,63,295,219,105,208,247,65
44,64,289,208,92,144,159,52
52,103,275,209,102,142,157,66
52,106,354,187,109,145,153,67
54,112,346,196,112,145,160,69
62,138,364,270,148,205,184,67
63,141,431,330,175,212,201,67
55,112,419,340,167,215,191,55
60,138,416,349,164,230,199,54
54,134,416,365,164,244,199,53
57,115,397,346,159,239,204,53
55,113,343,307,139,231,195,51
56,128,363,300,160,228,230,51
53,112,301,296,160,217,241,53
54,110,303,279,161,214,237,50
45,105,301,243,148,220,225,52
48,106,337,228,145,233,215,50
48,110,345,216,137,236,180,45
51,100,351,247,137,230,171,46
53,111,346,251,131,221,175,48
58,118,369,281,118,177,149,46
55,120,337,282,110,159,145,46
56,102,330,276,99,146,141,51
52,98,329,247,100,139,120,48
50,93,366,253,104,157,117,48
41,84,348,221,108,172,129,44
39,74,347,245,101,171,180,47
46,77,334,260,103,220,196,50
45,93,372,276,101,224,196,47
47,113,399,294,107,216,194,46
48,119,410,309,106,198,214,50
48,120,384,290,110,209,230,50
42,118,408,311,105,171,214,43
46,113,380,300,103,201,218,47
46,91,316,284,110,202,218,48
55,87,308,257,105,203,224,52
65,88,323,258,121,219,216,53
64,83,286,224,121,226,237,58
67,75,293,222,121,205,239,57
67,74,301,193,108,204,236,57
60,80,337,197,99,198,212,51
51,84,324,212,82,165,182,48
50,84,311,206,77,143,153,41
45,82,286,194,81,134,141,40
42,76,288,201,81,172,144,38
41,63,206,206,86,195,167,52
43,54,221,194,86,205,154,53
42,60,244,192,82,204,150,52
38,62,264,186,83,200,147,52
43,75,260,203,97,243,244,70
42,75,258,192,94,237,235,63
41,77,271,173,89,226,228,64
43,85,306,195,93,239,230,64
45,86,322,205,95,243,234,63
44,77,380,206,97,195,218,53
45,79,405,232,104,188,228,54
45,75,393,237,111,187,229,54
49,81,384,224,113,172,230,58
47,75,369,213,111,180,259,61
44,79,306,199,95,150,211,53
44,76,289,217,127,154,192,52
44,77,323,221,129,160,200,48
39,63,295,283,143,194,220,46
43,74,282,280,144,189,216,46
41,75,284,281,148,188,209,44
41,83,295,254,116,171,205,42
41,94,246,278,135,173,197,41
41,112,287,208,125,169,224,45
38,106,314,243,135,174,218,42
39,105,319,259,130,165,204,43
38,100,316,294,135,177,205,45
38,98,338,270,110,173,208,45
39,86,303,287,111,158,175,44
43,88,281,258,101,157,159,42
46,88,295,254,114,174,165,48
47,93,274,229,125,172,180,50
49,83,264,250,127,174,177,50
45,71,304,251,120,165,168,46
43,77,320,254,119,154,169,46
42,79,300,236,110,147,175,45
43,72,307,207,93,152,159,41
45,83,331,211,104,144,158,45
45,83,289,199,99,156,142,42
44,74,270,200,95,156,152,46
42,79,273,201,98,156,143,44
45,98,293,271,130,140,149,45
41,91,257,245,126,146,154,44
40,89,270,254,129,119,154,45
38,91,279,285,127,129,132,41
40,89,298,285,124,118,129,39
33,71,289,223,90,121,121,37
35,79,370,273,84,123,107,32
36,81,380,273,99,121,103,32
41,85,418,262,115,120,101,33
39,76,398,267,131,206,177,42
42,77,400,265,133,215,183,44
43,70,360,222,131,209,182,43
42,73,381,249,124,213,184,44
38,65,374,243,106,211,216,48
40,72,393,233,80,142,168,38
39,82,400,257,81,122,161,36
37,83,399,276,79,127,174,40
37,88,362,259,83,132,178,40
43,95,352,288,83,138,132,37
40,93,333,297,84,130,134,38
38,81,318,290,76,142,137,40
40,88,293,275,82,144,131,36
43,85,311,269,74,140,131,35
36,82,288,223,77,132,137,35
40,89,363,268,81,130,136,42
40,94,380,253,83,112,135,41
37,85,386,266,73,109,126,41
35,78,377,257,73,114,148,49
39,78,366,252,77,108,151,52
39,74,318,254,88,104,136,46
42,69,295,250,91,105,130,45
50,76,268,255,108,134,159,52
50,74,258,253,106,124,133,45
51,73,333,292,114,134,142,45
48,64,298,241,107,135,138,45
54,81,300,255,116,145,139,47
48,79,325,316,107,117,109,41
51,86,323,324,110,118,111,41
46,83,266,292,105,111,99,40
49,86,321,289,104,117,112,40
39,76,327,291,87,111,116,42
40,81,308,187,87,114,117,43
36,76,307,161,91,110,120,44
39,94,321,207,84,111,131,40
39,92,264,205,76,108,118,39
47,93,276,194,80,118,122,40
70,105,324,203,78,115,119,38
72,111,342,236,75,115,117,37
75,99,319,239,86,116,99,40
75,108,345,240,86,113,108,41
71,105,316,242,83,94,106,36
51,97,310,256,83,124,121,40
50,90,292,231,84,132,121,42
46,86,293,235,76,132,113,40
44,84,334,297,77,142,107,39
42,78,354,296,80,161,136,40
39,73,317,288,86,140,134,39
37,76,332,291,81,130,129,35
35,77,333,276,99,127,127,33
37,67,274,239,105,113,126,33
40,73,323,264,109,94,89,33
40,72,371,312,114,106,94,33
41,74,382,314,120,109,97,35
41,79,392,317,113,101,94,35
41,83,394,300,111,125,108,38
46,83,357,281,112,129,129,41
46,78,322,286,106,133,144,40
48,79,312,284,99,142,160,39
47,76,289,253,85,143,162,38
45,70,281,272,89,130,159,35
39,72,336,276,86,120,143,29
39,84,354,206,89,115,121,31
35,80,335,199,101,118,116,34
36,80,379,235,107,131,147,40
35,81,373,212,98,125,142,39
37,83,312,193,100,122,139,42
33,69,288,198,90,115,133,40
34,73,307,259,87,121,151,42
35,73,260,259,80,116,134,40
36,72,275,268,103,117,135,41
37,66,272,277,101,134,139,39
38,69,276,289,104,136,140,41
36,67,264,250,101,120,113,34
35,72,335,287,106,118,101,29
35,71,337,278,83,114,103,29
36,73,325,272,105,98,101,35
33,81,368,290,111,111,107,34
36,81,418,291,116,118,102,40
38,76,370,245,116,122,115,41
38,81,424,268,126,125,112,42
35,81,439,295,114,136,119,38
39,68,389,261,108,145,157,39
40,79,343,260,105,148,171,37
36,82,353,248,101,137,157,37
37,82,321,224,101,140,158,35
40,81,310,193,98,134,150,34
40,85,309,233,95,118,110,34
35,80,324,270,94,110,89,31
38,76,287,272,99,129,135,33
38,76,276,274,92,133,139,35
36,72,290,291,89,136,145,36
34,72,306,259,87,138,152,35
36,69,304,227,96,155,165,37
39,78,314,255,95,157,172,43
42,76,313,256,94,155,184,45
47,87,308,265,97,158,198,46
47,86,333,283,117,159,200,47
48,82,315,280,109,154,195,48
45,74,364,292,115,143,169,42
44,76,428,315,113,136,154,40
39,65,449,324,109,137,134,38
41,70,467,337,93,161,155,38
41,75,467,330,95,159,153,37
40,89,464,331,80,173,149,37
40,86,382,337,91,179,161,39
43,89,382,309,95,171,169,40
41,96,414,302,101,157,144,36
46,95,411,315,99,151,138,37
47,82,391,317,113,166,137,36
48,91,405,348,113,175,162,40
44,91,389,357,115,190,163,41
47,94,334,354,119,182,160,46
45,100,374,390,124,196,161,47
47,106,412,369,125,182,165,53
51,111,500,348,147,198,130,55
55,108,513,346,158,206,131,60
58,97,501,338,157,209,142,59
57,90,475,279,163,198,155,61
58,85,450,310,190,195,161,61
56,79,349,292,186,168,162,56
52,84,374,296,242,143,151,48
52,93,381,294,251,147,139,47
53,96,373,310,249,154,148,46
50,93,346,263,238,152,148,43
50,91,361,241,230,173,153,43
52,90,314,221,164,169,146,43
54,84,318,220,155,212,220,64
50,78,330,200,151,215,217,65
51,80,369,231,147,222,205,65
55,108,513,346,158,206,131,60
58,97,501,338,157,209,142,59
54,84,389,270,150,236,224,71
48,76,376,261,146,221,221,59
51,76,378,273,161,229,213,57
50,77,383,327,168,214,212,54
51,74,383,372,166,215,209,54
47,70,361,383,173,212,207,50
47,72,378,405,174,209,183,44
49,74,397,406,175,199,190,44
52,73,355,375,164,215,190,45
55,67,326,311,161,220,194,46
54,70,331,281,156,199,199,49
53,71,303,244,152,175,182,46
52,66,281,238,138,163,170,46
51,76,302,237,137,165,181,47
48,79,331,244,142,160,175,44
48,80,382,299,152,208,238,55
47,77,407,311,164,214,242,58
49,80,391,302,187,235,243,59
47,70,382,271,181,226,239,62
50,75,343,303,185,227,243,63
44,73,296,252,167,177,162,46
45,75,251,242,173,238,140,54
46,76,330,270,168,229,141,59
50,75,347,308,183,233,144,59
49,67,349,262,174,234,138,60
54,59,349,253,185,263,187,68
54,58,364,257,166,212,174,62
47,56,293,226,139,197,170,52
46,57,310,200,118,201,170,52
43,61,315,206,124,204,171,50
39,63,308,251,113,167,120,40
38,61,311,276,116,146,151,41
40,62,330,277,121,149,146,43
43,68,301,317,133,144,142,42
44,66,300,319,125,136,141,43
43,64,277,292,125,139,152,46
47,68,251,288,146,143,141,43
47,69,268,301,162,146,148,44
41,67,269,234,167,127,145,39
42,68,304,259,169,126,143,39
43,69,333,278,167,114,125,38
40,66,342,274,144,107,116,37
41,66,335,267,122,99,109,35
39,64,368,269,90,94,108,34
39,66,343,248,88,88,106,32
36,68,343,252,112,120,111,31
34,67,325,224,117,140,116,29
39,78,330,236,123,161,132,39
40,75,302,268,124,167,136,42
40,73,340,266,143,170,142,44
44,73,332,239,157,161,137,43
45,75,407,303,159,146,130,43
41,66,401,308,162,130,129,38
42,62,376,290,168,124,129,38
45,86,398,295,160,121,122,40
45,86,440,347,131,116,132,42
50,88,423,311,137,129,135,43
49,83,410,290,167,136,130,43
51,87,406,291,170,141,138,45
55,68,364,287,171,146,142,47
51,73,318,228,177,140,133,44
49,69,277,202,175,128,134,46
48,69,298,207,147,141,134,44
45,72,328,188,142,144,127,43
39,67,301,186,130,144,124,38
38,61,288,165,112,142,114,36
39,68,283,214,127,145,93,33
38,70,272,224,134,129,76,30
39,67,318,239,135,117,101,27
35,68,350,243,143,133,157,31
41,70,351,250,146,138,168,35
39,65,380,219,121,141,174,35
39,67,370,254,154,134,179,39
40,65,325,238,151,179,198,45
43,68,321,255,163,169,174,45
40,68,321,268,194,165,164,44
43,68,308,336,208,163,160,49
43,70,309,303,186,164,153,46
47,74,297,313,191,131,104,40
47,76,340,315,183,135,103,36
46,74,342,308,147,140,105,34
43,72,313,236,129,145,104,29
43,67,340,262,131,154,148,30
42,59,338,257,138,145,160,31
40,48,298,233,135,143,148,29
41,44,280,226,137,134,147,29
45,57,293,246,143,146,145,31
45,59,287,216,124,132,99,31
40,62,357,222,107,134,110,28
42,63,334,222,99,127,110,30
41,62,345,256,103,135,108,31
38,49,375,234,100,108,107,27
37,52,384,242,98,105,107,27
37,59,314,226,99,98,90,26
37,59,335,225,100,110,82,27
39,65,362,217,103,113,98,30
38,63,309,220,99,118,98,32
37,62,279,222,103,117,100,31
37,59,339,249,96,117,91,32
36,58,323,243,89,99,117,31
40,52,305,256,99,117,121,39
46,60,335,304,113,121,133,43
48,58,330,297,121,124,132,44
50,62,270,315,125,123,129,45
51,67,333,327,124,125,106,49
45,69,339,344,114,98,87,40
41,66,330,315,109,111,78,39
38,64,350,325,99,118,83,39
34,57,365,301,117,127,85,38
33,56,323,302,125,132,103,38
32,55,292,253,127,141,116,39
34,57,275,243,126,149,156,44
37,59,295,272,132,145,161,45
42,64,329,261,131,140,164,45
42,59,300,263,133,140,174,42
44,58,300,252,134,149,186,44
41,54,316,246,141,139,163,39
40,57,291,205,141,136,158,39
36,56,315,243,129,146,156,37
39,63,368,329,158,156,140,41
46,67,384,344,158,150,125,37
45,67,392,364,152,139,112,35
46,68,452,396,152,146,114,35
45,62,397,382,167,139,112,36
44,62,395,320,137,133,107,35
38,58,396,378,145,124,96,37
40,59,383,362,143,134,93,34
40,55,297,352,138,132,86,33
39,59,301,372,124,129,88,33
36,56,295,384,137,135,87,27
36,58,292,320,138,143,102,28
36,55,272,309,138,146,112,31
35,54,279,284,139,149,118,32
35,48,280,255,131,147,126,31
35,47,242,227,116,134,135,35
36,46,253,222,111,135,142,37
35,47,284,229,118,125,133,42
39,51,302,230,141,118,126,46
38,52,292,209,144,113,115,46
42,62,297,206,143,128,97,46
40,61,267,201,149,126,129,43
39,63,259,199,143,122,138,38
35,58,252,177,142,122,139,36
39,61,271,270,151,140,142,40
37,56,271,279,155,129,166,39
37,57,295,297,151,121,139,40
42,64,316,317,157,126,138,40
43,68,362,347,146,133,141,38
45,82,380,308,148,120,137,33
53,83,376,293,152,157,162,45
55,83,365,287,138,166,157,45
51,83,345,270,140,179,166,46
51,80,274,252,145,175,168,46
49,65,248,225,139,175,174,47
45,62,246,248,143,145,134,42
47,66,285,288,159,143,123,41
47,61,285,300,160,130,100,39
44,63,283,332,143,131,89,38
44,60,274,345,141,134,81,38
37,56,265,326,128,124,80,32
31,56,236,313,120,116,105,35
33,59,241,307,124,117,107,34
35,58,278,337,163,122,128,38
40,70,327,347,160,128,128,40
42,74,339,359,176,143,129,41
41,70,328,327,197,158,129,39
41,76,306,317,186,157,132,42
42,80,319,243,155,153,118,42
37,73,264,217,162,146,119,41
38,71,312,230,147,146,110,41
39,71,328,241,115,125,87,39
40,62,340,287,118,127,145,42
40,60,353,287,122,125,145,41
40,59,355,282,119,131,147,40
37,62,295,266,113,127,148,38
37,61,280,280,105,150,172,39
35,59,289,248,114,147,153,35
35,55,229,250,119,155,155,33
36,53,253,259,109,157,154,33
35,51,258,258,110,153,156,34
32,47,258,258,115,135,146,33
32,54,245,260,117,130,117,30
33,64,286,288,126,118,113,29
34,66,258,286,132,110,114,32
37,71,288,289,139,119,128,37
40,77,316,300,133,117,107,39
45,81,317,314,118,118,103,41
46,78,347,374,122,132,119,43
48,82,372,420,138,139,122,42
50,79,386,479,150,147,135,41
48,82,370,468,156,145,138,39
43,74,374,460,162,152,151,36
42,73,311,393,146,134,142,37
38,69,326,355,144,141,137,36
34,66,289,280,128,123,110,32
34,55,284,332,126,121,107,31
35,57,281,331,127,119,105,31
33,49,298,315,127,124,106,28
32,46,264,299,117,105,111,28
32,46,245,285,111,100,103,28
33,51,231,260,109,114,101,30
34,66,317,300,106,122,87,29
33,69,304,320,114,130,87,31
31,70,306,347,108,139,90,31
38,83,352,361,117,159,102,30
36,80,354,320,111,147,106,33
41,76,281,272,104,139,104,38
43,76,279,265,98,133,102,38
44,78,300,237,95,127,105,39
37,65,250,287,93,112,96,38
40,67,267,292,96,142,93,35
33,59,304,346,110,135,89,28
33,62,321,366,109,146,93,34
34,60,299,361,101,158,122,35
41,63,322,314,96,154,127,41
41,64,307,328,100,127,127,42
42,59,249,280,90,128,129,42
39,54,243,276,90,107,118,38
39,56,242,280,99,83,111,38
38,59,234,295,101,99,112,36
34,58,283,306,118,113,116,36
33,60,315,292,117,115,118,36
32,61,307,273,123,116,121,37
32,55,311,290,131,121,92,37
26,48,312,282,138,106,97,32
30,55,312,289,141,115,104,35
30,53,294,301,140,133,112,34
34,57,303,295,134,141,118,34
34,61,337,290,132,142,117,32
38,64,327,329,129,153,108,38
37,59,307,303,104,142,115,37
37,71,325,302,105,123,121,38
36,67,326,333,108,129,117,39
35,62,313,311,103,128,114,40
35,67,323,265,97,134,116,39
39,74,342,264,113,146,132,41
43,70,344,276,126,170,174,48
48,76,339,296,126,172,178,51
50,79,331,304,125,169,180,52
48,78,322,298,130,159,184,49
47,74,307,329,130,161,176,49
43,77,349,376,123,150,123,41
37,74,357,338,129,152,127,35
37,75,353,335,124,147,128,33
39,84,393,379,116,141,120,37
35,77,391,340,105,118,101,31
36,73,407,284,113,104,99,35
37,73,392,284,98,82,76,36
37,72,382,320,123,93,79,35
34,56,346,275,129,89,82,32
37,61,357,300,134,107,79,31
37,60,302,285,133,113,85,29
36,62,344,307,151,125,112,34
38,63,348,274,141,135,112,34
41,65,365,279,156,152,115,37
41,64,338,259,163,145,114,39
43,77,310,274,158,152,124,42
42,82,322,239,150,157,107,40
43,86,352,253,146,151,105,41
42,86,331,242,144,143,104,39
42,91,358,259,133,157,110,39
38,76,358,252,131,145,103,35
37,66,308,276,127,129,102,34
36,63,287,260,126,131,103,35
33,60,303,261,105,129,98,35
30,50,331,260,103,109,92,33
32,51,363,261,105,115,83,34
32,49,365,241,101,128,98,36
30,49,392,247,96,122,119,37
28,49,384,249,105,133,126,39
28,49,331,251,128,141,126,39
27,58,315,262,141,140,127,37
30,67,344,284,188,129,114,36
29,66,322,277,196,129,86,33
30,67,350,280,191,113,83,28
32,69,371,267,202,114,99,32
33,63,364,270,199,118,97,32
30,53,361,287,167,140,102,33
32,55,342,277,162,140,129,36
35,53,311,262,166,152,136,39
33,54,330,269,135,150,134,37
37,58,331,256,119,148,132,40
40,65,321,201,118,146,132,41
43,66,383,271,144,171,114,39
41,66,369,283,155,171,116,39
40,68,372,287,154,177,110,40
40,66,396,296,164,180,119,41
42,64,425,316,163,175,118,39
50,59,380,289,162,179,147,47
54,64,405,309,159,195,169,50
63,62,386,335,167,234,177,54
62,60,355,346,163,237,181,53
69,67,350,419,162,267,195,59
63,70,345,413,153,273,177,57
66,81,353,404,185,279,173,56
57,87,365,389,177,252,173,53
57,105,406,418,206,259,163,51
45,100,353,367,212,225,148,46
41,97,362,438,205,213,162,43
31,86,342,452,179,204,139,41
37,86,316,451,186,211,135,42
41,63,318,442,176,218,157,46
44,70,341,445,178,231,163,47
44,76,338,365,185,225,163,45
52,81,384,380,177,211,170,50
50,72,411,378,173,197,174,48
52,74,376,360,153,200,181,57
52,69,397,354,140,196,180,57
53,66,382,364,132,190,164,57
51,63,351,351,167,204,160,54
50,67,323,343,175,216,159,52
49,68,319,313,185,203,147,42
51,71,365,306,187,213,155,43
50,69,375,308,185,211,160,42
45,65,345,276,163,205,152,40
45,66,385,347,171,202,146,41
41,68,408,382,172,235,208,46
37,62,388,384,164,219,208,44
45,72,390,384,169,256,212,45
47,76,428,383,170,254,216,51
49,76,390,321,165,246,215,54
49,68,389,288,155,214,148,49
49,69,348,262,175,233,140,49
42,63,333,291,176,209,134,50
41,59,375,354,189,205,130,44
40,59,380,360,197,209,162,44
42,64,350,364,202,215,165,43
42,66,372,366,194,205,161,43
40,60,375,351,191,191,154,40
37,59,291,322,181,185,150,41
37,63,371,311,167,186,125,36
39,66,406,320,151,172,120,40
38,64,414,305,141,171,131,36
39,65,413,279,145,195,143,40
40,71,447,321,145,199,146,40
42,65,375,319,148,224,175,47
39,60,340,307,183,231,169,44
38,57,295,312,182,230,155,45
44,65,302,358,181,261,164,46
45,58,272,269,170,253,178,47
43,57,295,314,171,226,147,40
44,61,288,308,153,234,150,41
44,58,325,309,157,238,169,41
38,56,362,261,191,207,165,36
41,62,360,310,220,229,170,37
41,68,341,261,213,232,186,39
40,76,401,288,217,221,192,37
43,83,388,294,234,211,196,36
47,82,366,298,213,189,186,37
43,78,396,267,190,180,164,36
46,72,404,284,193,175,223,42
44,61,351,275,184,165,219,43
43,61,374,277,164,178,210,46
36,61,357,256,152,182,216,44
41,65,339,288,156,221,240,50
38,74,345,300,171,237,198,50
40,77,351,301,162,259,200,50
37,74,313,281,156,247,196,47
39,71,312,308,162,243,187,48
44,72,286,278,170,236,192,50
42,62,259,242,153,224,169,43
44,63,260,271,182,239,167,44
47,64,262,312,192,248,161,46
48,68,309,316,195,257,166,49
48,69,309,311,181,233,157,48
49,72,312,380,182,240,153,49
46,69,365,341,169,217,154,48
47,77,418,311,161,223,156,47
48,84,463,336,147,225,189,49
40,85,512,385,148,228,217,46
41,87,526,330,140,228,236,49
44,88,499,338,123,211,234,49
40,85,467,342,133,200,232,48
40,76,412,323,143,213,235,48
38,76,381,268,132,207,206,48
39,77,375,297,144,204,180,45
38,76,359,283,146,204,177,45
39,70,374,276,140,200,181,46
40,71,343,277,129,180,133,42
39,70,329,270,135,173,106,36
38,68,324,235,124,168,134,37
37,69,454,336,195,192,142,39
42,73,429,340,202,186,147,41
39,69,439,325,205,182,156,40
45,77,470,355,205,189,165,46
45,76,462,366,214,185,139,44
47,77,337,283,187,212,150,46
43,72,324,291,184,217,163,46
46,75,352,287,194,231,203,52
46,65,280,286,196,223,222,54
47,62,298,326,211,225,224,54
48,57,296,341,184,184,213,51
47,59,304,332,174,186,200,49
48,67,357,338,224,154,169,45
46,76,362,311,223,171,143,38
44,77,347,254,231,164,138,42
41,81,346,237,231,160,149,47
43,81,347,264,235,158,147,47
39,69,266,251,190,159,136,44
40,64,321,312,216,162,148,46
39,65,352,347,255,165,157,45
48,76,387,342,292,167,148,42
48,78,394,363,295,156,145,43
49,81,389,374,300,166,156,45
56,107,405,321,299,151,147,53
58,108,389,301,249,163,158,53
51,99,356,340,227,186,176,54
49,107,419,326,229,206,194,53
47,105,423,308,211,197,184,53
40,80,391,325,199,194,172,44
44,110,416,344,207,220,232,63
43,107,416,317,184,218,232,64
43,101,388,285,176,211,230,66
43,104,419,284,180,225,233,65
38,99,414,275,176,250,251,67
33,65,412,230,160,215,191,54
35,65,425,224,151,198,180,50
37,60,385,220,152,195,166,59
42,55,340,254,153,181,155,63
43,55,324,266,191,154,122,63
45,55,271,255,186,147,108,59
49,69,302,301,191,181,146,63
48,71,313,328,191,184,155,51
50,76,367,337,209,200,181,50
49,85,376,320,164,204,183,46
48,85,384,353,171,214,177,45
40,71,328,329,171,196,147,39
40,74,376,315,169,192,144,43
34,73,343,277,145,176,136,42
34,60,334,301,183,163,132,41
36,57,336,273,178,149,135,42
40,60,375,290,181,127,121,41
38,54,352,327,184,132,121,40
39,61,350,344,183,161,125,37
39,63,353,328,140,164,150,39
43,70,366,325,162,179,151,39
43,69,326,292,173,187,155,43
44,78,318,240,185,183,150,41
42,69,288,213,182,148,161,41
41,82,299,210,183,155,139,42
39,84,282,249,198,170,153,43
39,89,301,297,207,174,159,42
39,87,293,312,197,186,179,42
38,91,318,340,196,188,162,45
38,88,308,349,201,177,163,42
35,84,310,357,177,170,149,42
31,82,321,315,160,165,142,39
34,84,310,304,153,146,146,41
39,86,304,326,168,148,201,50
41,80,300,307,158,149,200,52
41,77,302,267,145,127,199,51
42,75,302,267,126,123,197,51
41,76,320,267,119,120,174,48
36,79,327,256,130,171,132,35
34,77,321,288,134,172,146,34
38,79,326,307,144,176,160,39
40,76,294,301,150,172,178,42
40,68,252,296,150,174,183,43
41,62,266,254,126,121,155,42
40,65,258,235,137,114,145,44
36,79,250,261,150,105,140,38
39,91,342,298,160,120,121,35
39,89,346,297,159,125,136,37
42,94,341,326,157,144,143,38
47,95,381,344,152,152,152,39
51,88,396,354,136,160,143,41
50,76,349,361,166,161,134,40
50,86,394,367,179,157,110,37
51,85,419,365,212,148,104,37
52,88,414,396,212,190,114,38
52,92,432,369,237,188,123,40
51,96,443,361,239,191,128,42
49,90,438,362,238,198,143,43
46,94,436,400,211,209,142,44
42,89,410,339,207,186,138,42
38,84,396,351,175,191,135,40
39,82,363,369,179,185,147,40
46,105,340,366,177,187,138,41
45,102,287,291,187,169,131,39
46,105,295,296,188,155,120,38
46,104,276,273,209,174,148,39
44,106,326,225,165,166,135,39
35,80,313,230,159,156,132,34
36,75,302,247,159,158,135,33
34,69,285,260,165,159,131,30
32,65,294,261,149,145,161,34
34,62,280,333,158,160,167,33
34,69,349,351,183,162,173,37
36,75,369,353,183,161,175,41
38,79,382,348,182,159,171,42
41,86,400,349,188,157,125,43
40,87,386,286,183,138,121,43
40,82,328,255,172,139,114,41
43,79,350,264,208,136,110,39
41,75,338,282,216,130,114,41
38,65,297,262,212,108,103,36
37,66,294,257,214,108,95,34
41,72,279,279,219,114,101,34
35,70,230,287,175,472,102,32
35,68,237,259,155,539,97,27
45,78,272,299,206,554,149,43
52,84,321,318,228,556,156,44
52,83,331,323,212,557,157,48
53,79,336,328,225,329,165,47
54,90,354,353,229,204,173,49
47,83,337,326,183,164,158,39
38,80,303,322,170,164,156,39
37,92,310,297,176,148,155,37
37,95,336,262,190,122,144,40
36,87,309,240,196,123,135,39
36,88,323,260,186,119,105,38
38,90,300,229,204,118,109,39
39,79,322,226,217,114,123,41
37,100,305,226,188,116,128,41
37,100,328,216,186,123,135,41
39,100,298,226,213,127,132,40
41,98,322,235,198,121,120,40
42,98,310,223,180,136,99,38
41,75,344,238,190,135,112,35
40,73,331,227,178,122,111,34
37,73,391,236,161,122,105,31
35,75,395,232,139,128,107,27
31,72,387,255,134,122,114,25
34,70,375,293,136,132,113,30
34,79,419,314,157,136,120,31
34,77,386,308,144,143,143,33
35,78,386,319,143,145,143,34
38,83,405,357,150,144,134,33
41,92,430,351,145,152,125,32
46,119,525,436,154,193,134,37
46,125,584,443,168,221,159,39
46,120,588,435,189,222,185,45
46,120,570,398,196,227,196,45
46,117,579,367,215,221,209,49
41,82,473,248,198,182,198,45
42,72,420,207,190,144,161,42
43,75,407,221,173,168,141,39
41,76,436,304,229,180,133,41
40,81,385,308,207,174,122,37
41,85,374,316,207,178,124,38
40,84,338,313,203,175,127,39
40,82,348,315,215,146,118,37
37,72,309,232,145,123,107,34
38,65,297,241,146,121,112,34
35,61,311,236,141,127,128,37
35,57,298,232,138,123,141,40
32,57,259,218,129,127,138,40
33,60,263,233,122,126,141,44
33,61,271,249,142,129,149,44
33,58,241,246,168,128,169,44
35,78,297,277,172,143,158,42
35,81,300,327,168,153,160,41
37,78,299,321,178,148,158,37
32,78,313,318,165,141,153,33
31,82,309,339,154,145,126,30
36,89,345,380,182,130,132,34
37,84,363,336,177,120,135,33
42,89,374,341,167,119,138,33
47,88,399,351,162,141,129,39
48,85,417,326,170,141,118,38
50,78,352,248,142,168,124,38
50,83,375,268,153,170,124,39
47,80,367,304,160,179,144,41
43,85,381,318,163,171,158,37
42,83,372,326,153,160,158,36
37,69,380,323,149,143,147,36
42,86,436,371,198,193,170,41
43,90,442,334,207,190,178,49
44,86,391,295,211,189,157,49
47,95,437,315,241,207,154,51
45,93,433,328,261,205,158,50
42,95,399,286,230,161,126,46
39,90,393,285,219,169,115,37
39,88,392,307,233,185,122,36
37,82,352,289,255,174,131,36
36,82,344,279,244,172,125,35
38,65,300,243,240,174,127,35
42,75,337,251,249,159,116,40
42,79,367,225,231,141,118,43
40,76,360,253,187,135,114,42
41,77,362,257,179,137,115,43
38,69,388,295,178,133,112,43
38,65,383,288,180,158,145,47
39,60,376,286,183,157,154,46
38,59,361,256,161,159,169,45
36,54,359,242,153,149,168,44
37,59,334,200,145,140,173,44
34,50,297,205,176,133,134,37
32,48,259,203,170,158,119,38
33,49,288,214,177,169,105,38
33,56,305,230,183,175,122,39
30,49,286,232,182,197,120,37
28,50,331,232,133,187,122,34
28,50,332,226,133,164,116,29
29,58,337,228,115,149,110,31
31,54,326,228,111,162,121,29
33,57,309,213,108,132,119,32
33,58,273,205,111,129,117,32
34,62,300,220,108,142,117,32
35,57,269,204,119,141,109,31
34,80,298,210,111,126,76,31
35,82,318,248,110,126,83,31
35,86,323,250,115,121,81,30
34,83,295,238,115,109,86,32
35,81,291,276,97,114,83,30
33,65,333,262,103,101,78,27
31,60,318,233,113,94,64,26
36,57,363,278,139,106,63,26
36,62,389,283,146,104,57,28
34,69,414,253,150,95,69,29
35,65,359,254,145,109,117,32
38,85,429,287,155,122,128,33
36,84,389,265,143,110,130,36
38,83,390,267,149,105,129,33
38,83,393,280,173,112,128,32
36,87,400,286,187,101,90,32
32,69,328,249,171,87,76,29
34,82,351,265,168,105,123,35
32,87,359,265,159,113,134,38
32,84,336,246,142,106,131,39
38,106,433,281,134,109,131,39
42,109,432,302,142,122,143,40
37,100,402,283,133,111,103,32
40,107,411,298,139,107,86,35
39,107,418,285,126,113,87,34
34,85,322,258,134,112,88,31
29,85,327,247,127,105,79,31
28,90,332,230,135,103,79,30
27,76,279,221,151,120,80,25
30,82,332,229,160,143,77,24
35,83,320,249,165,169,75,29
37,84,333,234,165,174,72,31
39,81,344,235,158,185,71,32
37,85,375,249,136,184,70,32
36,82,323,279,164,176,82,37
34,82,325,255,155,157,82,35
34,80,333,288,174,177,74,37
33,82,328,392,209,197,95,37
38,83,367,416,259,201,112,39
38,81,414,410,256,208,136,36
38,81,422,459,249,210,148,38
39,81,425,454,235,185,149,36
39,81,438,372,203,169,138,35
33,82,416,342,172,162,125,33
32,86,390,355,171,156,96,34
32,80,395,300,181,151,76,32
31,78,365,284,179,149,72,30
30,78,361,295,177,134,72,32
30,78,352,296,140,128,70,31
34,96,339,265,107,116,66,28
33,112,320,248,90,105,60,26
34,122,353,237,105,103,60,25
34,127,354,230,135,99,55,23
34,126,335,194,138,90,49,23
36,119,360,197,149,106,43,24
37,105,404,242,176,132,53,26
37,96,408,264,178,141,60,26
39,88,391,263,159,135,63,28
38,86,410,307,168,145,71,29
34,75,385,303,165,133,74,32
35,79,382,333,160,110,75,30
34,77,353,402,249,111,81,32
38,87,395,470,279,122,80,34
44,136,449,444,276,112,72,32
46,147,471,458,327,124,81,34
47,152,437,416,321,127,74,33
45,153,450,344,259,127,65,31
48,170,467,257,236,131,68,36
44,141,407,280,240,145,76,36
41,135,386,256,162,134,64,34
39,134,415,270,151,132,66,35
42,139,416,277,144,128,66,35
39,118,395,254,150,114,62,30
44,122,405,251,140,110,54,30
43,119,417,264,142,107,49,30
47,127,459,294,159,109,46,30
46,119,444,283,157,112,45,30
43,112,416,298,150,114,48,27
38,103,405,278,143,108,51,29
42,123,439,302,133,104,50,30
37,112,360,257,108,100,52,28
43,150,452,270,114,118,61,31
42,154,448,266,100,120,59,31
50,158,465,296,110,122,56,31
46,140,411,264,116,123,56,28
51,140,420,311,137,123,56,35
48,105,332,322,131,126,51,32
50,108,329,342,151,127,53,33
41,97,311,324,145,140,63,32
43,97,312,337,153,137,67,34
39,91,369,294,142,146,70,28
39,128,485,289,160,142,68,29
47,160,488,266,137,164,72,30
50,175,488,271,138,145,70,32
56,241,517,255,133,220,96,33
55,248,483,305,126,218,101,32
56,255,390,288,109,209,103,35
54,254,422,329,130,203,114,33
53,252,411,337,129,210,113,31
46,195,453,353,128,136,94,29
53,195,518,365,168,178,173,46
54,187,594,408,175,186,197,51
53,175,600,365,162,170,191,51
52,169,644,362,161,167,193,51
52,168,596,363,160,165,192,51
52,163,565,378,128,131,122,42
52,137,478,352,117,114,73,36
54,124,472,376,116,121,73,39
61,117,423,367,116,121,66,39
66,138,414,346,125,116,65,42
64,136,383,265,113,98,58,39
65,138,399,274,114,107,62,38
62,136,425,299,120,107,65,38
56,135,445,307,117,117,96,38
48,114,446,304,105,123,121,36
47,115,445,333,111,127,144,39
42,111,405,326,106,122,145,38
43,100,365,299,131,119,145,39
43,105,300,288,149,110,126,39
47,100,290,322,151,112,114,41
45,101,305,309,153,125,109,39
45,103,303,286,167,126,117,39
39,104,321,349,165,124,119,34
41,119,399,381,150,132,129,35
39,134,453,408,163,129,121,29
42,147,487,431,173,119,112,28
51,154,541,462,166,136,120,38
54,164,574,481,196,155,135,42
55,156,556,464,204,158,135,40
59,149,529,435,193,157,144,44
59,142,518,412,183,158,138,46
51,128,458,371,179,147,125,39
51,124,429,327,163,130,102,37
50,125,441,382,165,115,88,41
43,113,441,387,160,114,73,52
49,102,438,412,168,140,102,57
52,109,452,420,170,142,129,60
52,124,456,412,136,142,135,59
47,113,406,366,126,150,142,57
52,119,396,342,135,156,145,44
45,114,345,295,127,132,121,34
40,110,369,338,124,138,88,30
38,100,362,278,121,133,82,30
39,110,391,264,125,125,76,29
34,114,452,334,130,135,92,29
35,113,450,337,132,149,99,30
38,113,432,303,132,139,100,29
41,90,387,322,123,147,104,27
38,91,372,357,111,149,100,25
40,90,337,356,137,136,87,28
35,105,394,381,143,132,98,27
39,106,392,441,154,131,112,30
38,112,389,443,160,128,108,31
38,106,382,416,159,119,106,31
35,99,348,362,127,110,99,29
39,93,381,361,115,121,101,30
33,95,399,307,98,123,126,33
34,92,402,338,105,121,128,35
36,92,461,355,117,138,140,36
39,91,459,356,119,144,142,38
35,82,396,321,117,121,129,36
39,90,431,297,115,117,95,34
36,90,444,245,134,115,89,32
38,99,429,228,133,99,67,33
38,105,477,249,130,94,63,31
38,103,465,274,131,89,61,32
35,97,449,269,131,90,49,28
37,112,472,316,100,104,55,27
37,125,439,310,88,107,61,25
39,133,387,300,87,118,62,27
43,135,400,285,89,124,67,27
42,139,373,348,88,121,70,27
40,134,337,308,86,114,69,30
39,112,326,314,97,115,66,32
33,120,364,311,96,107,64,31
34,125,356,349,99,117,59,30
39,128,392,283,103,122,57,32
40,121,377,280,100,119,57,30
39,129,384,297,91,117,63,28
42,108,345,297,92,110,64,28
43,114,408,316,132,121,68,30
37,102,377,309,134,117,66,28
37,111,395,325,142,116,61,29
41,103,408,305,153,124,57,30
41,111,414,304,155,129,55,28
40,100,339,299,125,113,53,27
47,99,322,309,117,116,55,29
46,85,376,309,109,114,54,29
44,90,341,305,96,98,50,29
43,78,359,298,103,92,61,30
41,88,392,283,113,88,62,32
37,91,393,283,121,85,61,29
37,92,325,262,119,86,61,29
34,90,375,320,119,90,61,27
39,99,375,354,116,116,55,30
43,104,363,345,96,120,49,26
44,103,357,338,87,117,46,31
50,102,353,387,103,128,58,36
52,103,320,346,98,130,57,36
48,96,289,326,83,109,55,33
46,91,253,302,87,103,64,36
42,86,245,323,83,110,83,30
36,104,267,273,68,109,113,31
35,98,262,265,70,106,120,32
34,96,282,256,91,109,121,33
33,103,305,288,90,106,119,32
35,108,297,266,90,100,119,35
33,88,281,262,84,85,92,31
35,90,285,256,79,88,107,31
39,116,321,289,63,92,116,30
39,109,317,265,67,97,114,32
39,106,315,275,65,99,106,32
41,109,316,259,64,105,110,30
39,108,291,281,72,101,95,29
38,84,280,244,77,120,103,33
39,77,282,251,73,123,109,34
38,77,390,252,75,128,107,35
38,73,378,309,83,125,97,36
41,96,398,331,88,133,95,36
43,111,377,327,78,111,77,33
44,111,392,311,75,99,85,35
47,114,289,355,76,105,91,36
45,114,319,312,72,111,105,39
43,109,372,309,63,108,101,39
41,104,390,330,69,128,105,40
37,107,378,339,71,126,95,36
41,119,452,333,90,130,89,36
45,128,486,386,92,126,78,34
45,115,433,353,94,131,98,40
45,103,457,415,99,111,105,44
49,107,488,428,120,129,112,46
45,91,441,392,110,124,115,44
44,86,416,351,111,120,119,44
47,108,462,400,108,125,122,41
50,114,447,361,108,152,121,40
46,117,421,346,80,138,119,39
43,120,398,344,77,128,118,40
42,119,413,350,78,138,110,41
40,106,387,295,79,130,95,41
36,118,381,242,71,106,94,40
37,102,371,227,72,120,102,37
37,103,399,231,67,142,105,35
42,111,366,218,74,136,109,35
38,109,373,232,76,138,100,32
40,112,372,248,84,143,94,29
37,115,359,239,81,143,91,28
39,111,341,236,82,122,87,32
40,108,320,280,90,126,88,35
42,109,283,269,88,120,88,35
39,89,247,259,88,110,82,35
42,84,257,264,89,118,93,41
46,88,246,272,89,135,104,41
41,80,280,212,70,131,101,37
41,82,265,203,69,136,103,39
48,99,257,195,71,158,116,40
51,117,300,294,83,155,116,37
51,118,304,292,83,142,104,37
52,125,396,381,86,150,104,35
55,142,406,382,87,147,103,33
51,148,442,381,75,119,93,34
47,140,445,381,72,118,82,33
49,155,452,373,76,125,112,40
47,162,495,417,102,122,131,42
45,151,498,420,101,119,132,43
46,133,456,419,107,133,134,43
46,129,423,384,107,132,148,42
53,124,436,400,110,147,194,51
55,110,346,272,88,155,199,51
54,110,460,369,105,167,202,52
51,104,482,377,100,160,202,50
59,127,487,356,105,161,189,52
53,115,488,381,108,169,170,45
54,126,436,364,104,168,166,49
55,121,337,259,86,158,164,49
55,123,358,256,83,156,161,48
46,114,373,249,71,155,166,51
40,115,366,187,64,133,113,45
36,97,416,241,73,117,104,37
39,104,434,258,76,122,107,38
43,107,437,289,83,126,111,39
42,94,448,285,80,123,108,34
43,92,436,299,84,119,121,34
43,97,382,266,73,119,107,33
37,89,337,249,69,110,103,32
37,87,325,232,67,129,112,33
35,90,343,261,68,116,108,31
35,114,401,262,61,107,88,29
44,114,414,271,68,127,91,33
46,117,420,272,69,148,134,39
45,116,391,267,66,131,141,42
51,121,421,310,72,151,147,47
54,113,438,294,77,157,147,47
62,144,540,344,108,167,145,50
62,148,553,407,120,160,115,47
62,156,563,415,124,159,95,43
58,149,522,375,119,143,93,39
55,139,456,382,119,140,98,38
42,101,333,344,90,118,96,35
41,115,351,267,75,111,83,34
43,107,359,253,68,118,88,37
47,117,334,254,91,124,86,36
47,118,344,229,83,126,91,37
42,124,336,203,78,113,96,33
42,107,306,236,94,119,98,30
38,104,285,230,96,118,87,25
36,95,314,235,83,115,83,26
37,92,353,248,90,108,73,32
38,99,372,249,92,115,73,33
35,93,382,299,76,125,100,33
40,101,410,309,78,114,102,34
40,104,400,298,73,112,99,33
39,100,368,289,66,109,98,26
40,90,350,293,67,110,96,33
51,109,320,227,88,98,66,36
50,113,298,220,90,101,68,37
51,107,282,219,91,98,69,36
54,113,310,255,99,103,90,46
55,132,368,263,99,98,111,42
51,144,429,263,81,89,120,42
49,136,422,249,72,89,123,43
49,135,426,247,72,91,121,43
49,154,464,268,73,99,116,34
46,141,445,268,72,109,101,32
50,139,470,304,96,114,94,34
53,144,473,307,96,122,95,31
51,147,491,338,98,130,99,33
49,124,453,330,96,129,99,31
60,142,487,344,104,128,105,37
55,120,426,338,90,126,105,36
55,120,421,394,96,124,101,37
62,150,471,411,113,134,102,41
64,171,520,430,118,137,109,44
60,184,593,503,143,143,106,45
69,194,609,509,165,197,116,50
74,199,666,498,182,205,119,53
70,175,633,460,178,196,143,52
66,154,588,445,177,202,134,48
65,137,474,361,155,193,131,46
55,140,465,327,127,145,131,40
49,138,392,300,102,154,139,37
48,143,374,302,89,174,133,37
55,173,467,357,97,181,139,41
51,161,463,345,95,184,144,42
54,168,435,384,138,197,151,41
54,175,436,387,138,224,161,45
56,173,446,389,149,204,149,45
49,144,365,314,155,198,146,41
48,136,394,354,165,207,145,42
45,108,414,326,146,249,196,55
47,75,386,310,152,221,194,57
45,81,466,395,151,229,194,60
45,84,453,403,159,244,193,60
52,88,449,398,149,249,185,60
54,92,463,462,178,216,115,49
54,94,488,464,178,217,127,49
60,108,437,414,252,242,154,50
63,104,498,425,262,236,153,51
60,100,512,409,275,255,169,52
60,94,501,317,267,249,170,51
61,105,520,337,280,277,165,51
56,85,500,324,212,264,154,49
53,85,446,347,197,267,154,48
65,100,467,343,195,280,152,54
64,113,477,356,237,319,165,53
63,111,498,346,223,294,169,53
61,108,484,382,239,302,157,51
62,119,514,332,235,296,156,56
48,104,462,326,228,261,147,49
50,97,468,323,165,223,157,56
48,87,451,334,171,236,146,51
50,96,489,341,179,209,154,56
49,80,487,370,191,197,154,51
46,79,510,358,192,198,153,48
46,72,506,366,197,200,136,46
46,77,509,356,186,178,114,49
43,66,494,299,166,196,116,44
40,65,472,303,150,212,115,43
44,67,463,324,157,211,145,50
49,73,469,329,157,242,143,48
46,73,486,360,162,268,152,45
53,75,471,359,166,263,144,48
56,84,479,325,157,259,152,54
63,96,544,325,172,361,174,56
57,92,519,330,179,333,173,53
63,92,488,302,219,333,174,56
64,95,550,340,223,347,173,55
63,91,526,339,228,343,179,50
55,94,530,386,219,236,158,46
60,101,575,376,240,288,155,50
54,97,599,376,207,279,146,46
47,99,564,366,196,259,151,45
48,97,567,373,200,258,131,44
49,91,509,360,204,260,104,38
44,95,520,403,192,197,136,37
43,93,488,395,198,174,141,36
42,85,443,368,201,181,134,36
43,82,434,359,193,193,150,37
37,71,421,334,178,182,149,38
37,66,441,406,167,178,113,36
37,65,422,403,159,176,110,38
36,77,449,429,151,157,111,36
36,84,439,441,158,144,89,35
38,94,432,429,158,149,88,37
40,84,347,322,155,139,99,40
40,94,410,382,177,135,98,40
40,98,405,384,179,139,94,40
39,100,437,394,172,147,95,37
37,91,479,422,182,159,89,38
33,92,479,410,170,158,87,32
37,87,412,341,134,169,86,31
45,75,422,336,132,220,94,38
51,74,409,344,140,246,98,44
53,82,326,297,130,237,104,41
54,83,325,348,164,263,100,43
54,85,331,356,171,256,105,45
51,98,418,359,172,253,119,44
43,90,404,320,167,220,142,39
42,99,436,322,175,225,140,41
42,96,417,250,142,204,136,39
40,93,442,248,139,210,133,38
38,95,365,264,158,165,113,34
48,108,371,267,160,179,87,37
46,97,347,272,152,166,83,36
50,101,411,324,161,163,88,38
51,102,398,320,153,176,88,36
50,89,390,287,161,189,98,38
42,76,385,280,170,185,95,34
45,86,390,314,167,188,92,36
53,143,410,307,177,198,89,39
54,147,414,349,198,183,85,39
53,143,400,353,176,167,83,38
54,149,390,366,161,157,82,38
54,147,405,338,162,156,87,39
43,93,313,308,157,131,86,34
45,91,301,259,133,149,93,35
45,90,275,242,137,165,88,33
50,90,358,284,157,169,96,37
49,106,367,288,148,170,96,35
49,113,405,265,133,168,98,35
48,114,422,287,146,150,93,36
47,116,440,291,146,169,96,38
41,113,394,259,176,168,89,33
40,102,404,270,186,169,87,33
38,89,365,296,196,176,88,36
36,89,339,286,187,182,88,33
38,91,352,298,185,156,84,31
38,87,382,286,137,164,83,35
43,79,321,263,126,154,87,35
44,91,347,247,105,141,95,34
42,91,401,263,146,157,98,36
42,88,374,238,142,152,95,37
40,82,330,216,138,138,92,34
39,84,433,278,158,149,123,39
41,72,411,311,162,157,126,38
42,76,406,299,131,130,124,39
42,87,461,318,138,120,129,42
43,88,485,372,144,141,127,41
39,95,410,329,123,127,102,35
40,101,459,336,132,119,93,36
39,102,426,322,136,134,98,34
40,93,360,303,130,133,107,31
46,108,405,303,141,131,126,35
46,102,416,305,140,133,120,36
41,97,374,262,125,156,143,38
47,94,382,268,127,160,150,47
45,97,437,284,134,169,145,48
38,86,373,231,126,158,128,46
40,81,359,241,142,165,155,52
44,78,351,258,146,154,163,50
44,117,396,263,140,138,162,44
48,131,404,269,152,134,160,44
49,127,395,268,163,167,166,44
47,139,430,266,160,173,156,40
47,140,430,248,160,175,133,36
45,114,390,252,170,182,129,35
45,96,334,270,156,203,131,33
45,101,346,292,151,180,126,32
48,85,302,287,142,175,110,33
47,81,305,306,147,167,138,38
53,86,290,315,135,171,132,38
48,83,294,340,132,147,131,39
51,86,291,324,127,170,133,41
48,91,310,334,130,190,147,37
47,93,301,334,122,194,120,32
38,84,317,334,117,185,118,32
38,86,319,271,119,202,114,29
36,86,351,272,125,200,135,31
43,87,344,271,120,204,210,51
48,100,407,259,136,226,214,54
55,101,387,232,153,235,217,57
53,103,428,272,156,230,222,58
52,117,432,275,149,235,218,58
48,115,458,285,154,221,139,42
46,105,432,292,157,204,128,38
42,102,426,308,143,223,124,35
46,99,368,274,134,210,114,32
47,83,358,266,131,187,121,34
47,74,359,304,149,189,150,50
56,91,415,331,139,193,156,59
55,89,422,319,150,194,167,59
52,87,428,341,189,221,171,60
51,85,406,348,203,238,161,60
51,91,409,329,189,230,147,53
39,85,315,286,194,235,139,43
44,89,318,313,182,234,129,49
50,95,371,302,150,215,127,49
48,106,389,288,128,203,126,48
48,102,349,299,134,215,137,47
50,89,355,321,120,197,139,49
44,86,353,295,120,170,142,41
39,87,356,288,111,161,141,40
41,64,348,306,115,151,140,40
39,61,338,277,117,141,133,35
40,67,341,260,128,150,158,41
42,76,369,273,136,145,156,41
41,68,323,267,150,141,156,41
42,78,337,241,145,163,177,49
45,89,357,244,133,155,160,50
41,90,353,224,130,147,130,45
38,91,318,198,120,160,129,45
38,91,310,230,113,179,133,46
32,84,278,235,113,164,91,34
29,80,280,204,116,162,90,33
39,88,312,316,149,191,159,55
42,80,345,343,174,194,170,56
44,86,383,338,167,179,169,58
50,88,397,365,184,186,169,61
52,98,414,396,192,180,170,61
46,90,382,318,175,152,111,43
47,91,397,374,152,168,96,44
46,90,353,367,156,174,115,46
47,89,334,369,152,188,122,45
45,73,299,340,141,204,127,44
44,80,310,344,131,215,128,41
45,74,258,285,150,205,130,42
46,78,280,270,155,218,110,38
41,83,300,230,148,206,106,34
39,82,284,237,145,187,99,38
43,75,292,233,155,207,99,40
38,76,299,198,139,210,98,45
35,63,288,217,134,188,106,47
35,58,324,216,145,191,107,50
41,63,373,229,166,202,107,50
41,68,370,242,153,165,100,51
41,73,365,268,163,140,106,50
42,74,366,287,160,159,136,47
41,77,342,292,148,151,134,45
33,76,334,298,144,146,133,40
30,81,357,284,150,155,136,39
31,78,346,259,137,151,123,30
31,80,326,222,134,137,78,29
34,79,347,268,129,135,79,30
34,82,337,277,107,139,97,32
32,73,317,297,95,139,93,29
33,82,342,310,99,159,94,28
33,80,354,318,114,157,92,29
30,75,329,278,130,157,95,28
33,79,317,255,139,174,136,30
35,84,339,269,154,170,152,31
34,76,344,295,160,154,156,32
38,81,415,324,154,155,156,33
38,87,405,317,140,161,153,33
35,77,401,305,132,134,113,34
37,73,371,311,123,136,90,35
38,76,348,287,144,145,112,37
35,77,282,261,151,146,122,37
33,70,287,272,151,132,118,37
35,76,268,312,164,127,117,35
34,73,276,282,163,123,131,37
31,65,301,283,144,123,120,33
32,65,291,289,136,118,115,34
31,62,293,271,136,120,117,33
33,71,376,263,121,130,108,32
31,79,383,272,135,140,97,28
31,80,400,277,142,145,90,26
31,73,400,274,146,150,106,27
35,75,405,317,154,162,109,28
32,63,375,365,171,160,108,28
33,60,378,376,156,159,102,28
35,70,334,363,140,159,92,28
36,73,329,357,132,162,81,25
34,81,338,339,122,153,75,26
37,80,331,259,100,150,79,29
37,75,350,283,104,133,85,33
35,68,372,289,112,123,90,34
34,65,363,288,110,117,100,37
34,57,385,284,117,125,112,35
29,56,385,322,118,122,122,34
32,64,371,304,111,129,132,35
34,67,374,320,122,124,131,39
33,72,414,324,122,122,113,37
32,71,373,324,118,104,101,39
34,70,340,299,120,129,111,39
33,67,328,277,139,122,98,36
33,68,382,267,124,128,100,31
37,65,361,256,123,151,126,37
39,69,388,327,151,155,130,38
39,73,406,316,149,133,108,38
37,73,402,304,139,138,105,37
38,80,358,320,144,144,106,38
34,77,383,316,145,138,74,32
31,72,355,243,130,131,66,29
32,76,338,288,132,137,67,30
34,79,399,311,120,135,74,33
34,70,424,288,138,140,85,32
35,72,390,308,137,120,87,33
35,73,392,332,124,136,93,32
34,75,458,303,125,138,106,33
36,75,411,281,129,139,107,32
31,77,371,274,106,120,97,31
31,77,392,259,110,133,103,31
32,77,397,216,101,123,107,31
32,71,328,215,98,113,93,27
30,66,353,248,104,114,87,27
30,63,342,251,102,114,81,28
30,65,313,271,125,112,76,29
29,70,335,288,138,117,68,30
27,69,353,274,138,127,70,31
26,71,325,274,136,124,70,31
27,74,360,272,139,129,76,31
26,72,375,290,125,123,75,29
24,66,338,277,112,121,74,31
30,64,319,286,117,112,74,31
34,70,390,337,121,117,75,30
33,68,363,332,121,118,89,30
35,70,359,311,117,118,109,38
38,69,355,316,124,114,108,38
35,76,385,348,125,113,106,35
32,68,375,283,128,133,105,35
34,66,372,301,131,123,92,32
31,61,363,288,126,120,68,25
28,64,392,282,118,117,73,21
26,59,351,236,108,119,74,23
29,58,277,255,96,100,74,23
27,66,301,249,89,102,76,25
27,65,298,241,85,98,71,25
31,74,332,240,98,107,67,27
31,73,378,260,113,113,75,28
29,72,379,219,113,101,70,28
30,65,370,219,115,100,98,29
29,71,376,258,115,102,101,29
27,64,339,274,115,94,101,27
30,68,311,255,419,95,100,27
33,74,337,287,487,104,102,27
33,74,331,283,508,112,72,28
35,74,333,282,517,123,72,30
35,68,306,285,517,126,71,32
33,65,299,288,321,117,62,33
30,61,261,267,204,109,56,31
29,68,294,268,143,121,57,32
30,72,313,243,117,118,51,31
29,82,354,228,119,113,46,29
28,78,347,257,113,123,47,29
31,79,361,266,120,129,71,32
31,72,362,268,125,118,80,30
31,64,340,259,122,123,89,29
33,54,299,239,121,120,90,34
40,55,306,228,135,124,94,36
37,50,298,235,130,132,89,34
38,51,260,228,132,132,82,33
40,63,253,224,145,118,75,33
40,62,259,228,147,118,82,31
36,66,241,198,131,119,82,28
39,71,238,188,134,122,91,29
37,69,231,173,131,116,90,30
34,58,236,174,107,113,88,29
33,63,258,193,106,116,80,27
33,63,268,221,123,103,78,25
32,65,289,235,118,83,65,26
34,69,289,237,121,105,75,28
35,69,297,239,129,121,85,28
34,67,287,218,123,129,94,27
36,70,288,189,101,138,92,28
34,67,334,181,97,141,86,27
33,63,345,191,95,146,75,27
33,70,337,193,86,139,63,27
34,75,368,197,88,132,53,29
31,70,380,202,92,127,52,29
32,69,311,193,92,130,55,28
33,92,334,193,85,113,56,27
30,95,329,204,98,114,55,28
29,90,287,198,92,115,56,24
35,100,257,226,94,120,73,27
33,100,320,232,91,125,76,27
36,82,321,239,102,121,79,31
37,71,319,247,94,135,84,32
38,69,326,250,100,141,84,35
37,63,349,251,116,141,99,40
38,68,333,251,127,139,105,41
35,66,318,254,127,149,118,38
36,69,327,259,129,132,120,38
36,83,351,291,127,136,124,40
35,79,414,311,133,139,101,33
35,89,422,334,149,144,95,35
35,94,429,363,152,140,77,38
31,93,439,348,155,167,96,35
29,81,433,351,178,161,101,34
35,101,415,372,172,152,103,38
38,93,407,343,164,171,102,37
38,90,399,318,157,182,101,36
40,93,393,327,151,181,75,38
41,93,393,314,129,199,62,37
35,69,331,246,117,201,55,33
32,80,378,258,106,182,54,31
33,84,374,260,117,172,53,30
34,82,378,259,126,163,64,30
34,100,382,252,119,138,59,27
33,98,390,263,129,137,61,26
34,89,366,261,127,130,66,27
33,85,369,244,117,134,70,25
32,94,405,263,114,121,64,23
29,77,396,267,121,124,66,23
30,77,378,262,112,132,66,23
35,77,353,276,119,134,62,27
35,94,382,266,120,137,58,29
37,89,327,242,141,147,62,33
41,91,310,231,177,145,62,36
43,95,328,254,185,167,61,37
42,102,375,288,191,197,95,37
41,87,338,296,192,196,127,38
40,87,359,301,185,204,132,41
38,88,373,306,175,232,141,40
38,91,376,295,191,218,141,40
35,89,320,258,221,214,127,40
35,85,311,267,226,217,141,44
35,83,304,272,237,204,144,43
32,78,284,258,222,195,135,42
30,67,302,246,208,200,137,42
29,57,278,246,163,176,131,41
28,69,276,248,172,174,83,33
27,84,303,284,155,181,68,30
32,91,314,282,147,165,66,32
32,104,303,285,145,156,61,31
34,105,337,276,159,149,74,31
34,101,355,289,156,150,78,33
37,91,364,270,152,136,83,34
36,87,374,275,150,129,89,31
36,77,423,277,148,129,88,29
36,74,406,263,134,131,75,27
38,74,401,234,118,116,65,26
36,70,361,205,113,116,53,26
35,70,387,242,130,115,57,31
35,66,355,225,121,107,59,32
34,62,336,226,125,104,61,33
33,61,349,229,126,108,63,32
31,66,381,230,131,107,60,30
31,67,352,185,123,117,54,29
34,73,308,188,130,121,49,30
32,77,428,269,141,123,47,28
30,74,408,266,131,116,48,28
30,64,394,259,123,116,49,26
28,60,382,255,120,103,42,21
24,51,393,253,124,99,43,21
29,49,263,202,126,119,58,23
32,50,273,203,135,139,62,27
33,52,259,215,136,139,72,30
39,65,310,222,141,139,75,34
41,68,337,224,144,151,78,34
40,68,346,205,128,136,68,34
40,71,335,203,128,132,65,32
41,76,329,189,128,142,60,31
37,69,307,206,139,139,58,27
35,64,268,229,131,137,57,27
35,68,372,282,141,142,56,27
40,74,384,277,152,135,54,28
39,73,403,286,154,126,47,28
38,77,407,283,137,133,45,29
39,80,411,276,136,117,43,29
37,75,355,218,124,108,46,28
35,72,391,273,134,129,49,29
35,66,373,265,129,126,52,29
35,58,364,259,131,135,55,29
33,53,358,244,133,141,58,30
36,63,352,263,135,152,57,29
32,59,327,205,104,128,55,28
31,61,330,235,101,417,54,28
31,62,358,239,98,806,50,28
33,63,349,234,96,824,44,27
30,54,329,208,92,856,45,29
32,56,333,211,93,871,43,30
32,55,349,219,100,782,46,28
35,65,326,239,114,373,44,29
32,66,330,250,108,334,46,29
33,68,315,254,110,232,48,28
31,67,314,259,131,169,52,25
33,66,311,227,129,138,51,27
33,60,304,239,121,109,55,26
34,58,303,261,122,98,55,26
35,64,312,252,118,106,53,27
38,70,301,253,106,119,51,28
37,76,333,276,125,120,51,28
36,73,336,254,122,127,48,28
36,79,343,240,129,126,52,26
36,73,359,266,136,125,48,27
35,68,367,275,132,122,45,27
33,62,314,290,123,118,44,26
32,63,355,309,139,125,50,26
33,65,352,301,134,118,50,29
31,67,335,296,133,124,50,29
31,70,335,291,140,118,52,29
31,67,339,263,129,121,54,30
29,74,264,238,110,116,55,29
27,70,275,252,112,117,50,28
29,67,280,232,106,99,49,27
30,67,244,236,106,96,55,30
33,76,285,227,104,99,60,29
33,69,313,213,103,90,56,31
34,64,315,193,103,99,56,29
34,73,319,200,95,108,60,30
34,70,368,227,111,118,56,32
30,66,332,231,117,115,52,31
30,67,306,238,116,111,51,30
30,70,317,235,116,112,55,31
34,64,313,248,136,121,53,34
32,67,301,214,115,108,52,29
34,64,309,204,109,106,47,31
35,68,340,246,113,110,45,28
36,67,335,265,109,108,45,28
32,65,344,252,83,93,44,22
33,66,331,275,97,95,43,24
32,73,389,282,101,95,44,23
33,70,372,239,99,111,47,25
30,73,350,229,101,105,41,27
30,77,376,238,107,111,52,27
27,75,357,210,105,110,54,25
26,65,293,196,101,110,53,26
26,65,272,243,106,99,52,25
32,59,302,249,127,102,53,25
32,57,267,231,130,108,42,26
32,57,281,232,127,102,38,26
32,57,293,234,129,110,46,26
34,60,321,191,140,110,47,26
33,65,308,193,119,111,47,29
33,61,312,218,124,104,48,29
33,57,309,220,123,109,47,29
37,61,302,226,142,118,44,29
35,58,298,252,141,121,45,32
34,52,286,240,153,118,43,30
34,53,291,234,151,110,45,32
35,56,303,224,151,114,46,33
34,59,289,232,137,104,42,32
32,57,275,211,152,96,39,30
34,67,297,206,146,105,40,28
35,67,259,212,138,109,39,26
33,66,265,228,132,111,45,24
31,68,323,290,132,110,47,26
31,73,324,294,105,110,54,25
28,64,309,291,100,107,53,25
26,66,373,307,111,106,53,25
29,65,357,301,131,109,48,27
31,70,322,268,124,105,47,29
33,73,327,253,134,110,49,29
36,88,319,263,141,113,51,29
36,91,268,293,136,118,54,29
36,94,275,299,141,115,54,32
35,89,316,269,162,122,57,34
39,91,307,291,170,156,61,38
38,88,320,306,167,161,61,37
39,91,319,286,166,171,65,37
38,87,307,282,149,172,63,34
37,88,267,296,138,190,62,33
35,125,324,343,113,166,59,29
35,125,349,341,117,163,62,30
35,123,379,336,119,152,61,30
36,129,395,340,125,156,65,32
37,129,380,340,124,134,70,29
35,88,338,304,145,136,69,28
31,78,333,295,133,134,69,29
33,77,311,276,139,159,66,32
31,68,302,270,134,151,65,30
31,65,331,266,128,152,58,31
31,61,334,249,107,142,58,32
31,61,322,254,108,148,59,31
28,60,298,259,104,120,59,28
30,70,304,273,117,117,57,31
32,87,321,281,122,115,62,37
35,98,323,271,121,131,61,41
39,99,303,267,141,131,57,41
39,98,297,253,145,131,56,42
41,89,288,230,160,149,58,40
39,76,265,229,154,144,51,34
36,82,332,271,171,130,49,28
36,80,346,267,163,111,46,26
35,84,358,274,164,112,47,26
30,84,362,297,146,97,47,24
33,86,371,299,161,103,51,26
33,66,301,249,137,111,44,25
32,69,296,277,142,116,47,29
31,69,316,321,137,121,45,28
32,69,345,344,137,115,41,28
30,70,330,331,126,109,38,25
29,72,345,355,138,108,41,25
28,72,373,358,126,109,41,24
29,68,389,330,123,99,43,25
29,69,368,280,117,99,48,24
29,60,366,317,126,97,48,23
29,63,388,312,118,88,46,23
28,63,370,309,125,83,45,22
31,63,377,314,134,91,42,26
31,61,365,334,137,89,39,27
33,63,366,291,130,93,38,29
37,71,365,284,139,104,41,31
38,70,391,279,138,120,45,33
35,71,338,247,124,111,47,31
36,73,329,220,112,109,45,31
38,76,338,256,115,108,50,33
38,63,303,272,102,126,51,33
35,65,245,265,106,122,53,30
38,60,260,282,120,130,50,31
39,59,256,286,126,132,55,33
34,59,256,342,128,155,60,30
34,64,258,328,141,137,58,29
35,61,259,309,137,141,57,30
37,61,247,300,133,143,58,30
39,72,289,308,131,150,58,29
38,66,285,255,127,125,51,27
38,67,301,250,113,125,53,28
39,68,325,281,123,149,52,27
37,84,344,327,129,147,52,29
37,77,333,365,145,155,55,30
38,75,312,350,142,164,54,31
43,108,360,368,163,192,59,33
45,110,399,440,202,222,59,35
49,109,441,448,255,271,67,39
53,130,536,472,260,273,70,39
53,142,591,512,269,285,82,41
51,121,590,576,301,322,110,45
51,123,568,545,285,315,140,49
47,113,529,524,241,282,140,45
42,91,439,534,269,292,140,45
44,80,385,492,267,294,136,45
40,82,340,428,224,260,122,41
39,84,372,445,215,233,90,36
37,85,362,433,215,226,92,34
38,82,338,376,168,219,99,34
39,79,416,429,187,221,103,35
42,75,412,434,180,198,96,35
40,72,407,399,187,211,95,34
42,77,433,420,188,218,93,36
40,81,464,415,190,226,87,35
35,75,373,349,158,206,77,32
37,74,382,402,185,221,82,30
37,66,362,395,170,211,80,29
35,63,349,390,154,211,81,30
35,54,300,369,153,184,73,31
35,55,299,397,168,182,73,30
29,47,291,308,145,151,60,30
31,58,292,282,152,141,58,30
29,57,308,290,158,130,49,26
31,62,311,312,161,129,48,27
32,61,344,306,153,141,47,30
33,62,322,290,146,144,49,29
32,56,294,331,135,150,48,27
35,58,325,364,152,154,45,29
33,59,328,341,140,151,45,26
31,63,318,314,133,133,44,24
32,77,425,340,138,134,48,27
32,74,423,323,136,113,45,28
28,68,378,239,110,98,43,29
38,71,409,316,146,125,51,33
39,68,403,319,147,126,53,35
37,56,289,287,139,114,47,33
51,82,344,305,192,140,53,42
52,84,336,314,200,152,53,41
47,81,337,273,194,134,45,38
49,93,377,319,192,133,46,37
49,95,421,353,192,144,55,37
35,73,387,336,143,132,51,25
36,76,432,361,140,124,52,27
37,92,411,344,118,141,63,28
33,84,440,333,130,141,60,30
37,89,442,342,134,159,57,31
36,89,436,350,133,153,61,31
33,96,455,360,148,162,64,30
29,82,478,412,169,184,68,31
29,79,410,380,166,194,71,28
25,67,383,357,162,192,74,27
28,72,409,353,170,194,72,31
30,57,332,319,158,199,73,32
32,64,294,269,140,191,71,31
33,69,322,323,140,188,70,33
37,73,316,324,158,175,64,34
37,70,282,300,145,187,70,32
38,73,295,320,138,181,65,32
38,67,303,325,138,152,54,31
38,65,278,291,149,149,56,30
36,60,268,290,134,142,63,35
37,64,257,288,146,122,57,33
38,64,269,273,148,114,59,33
36,60,250,235,140,112,59,32
35,54,254,238,126,114,53,32
33,56,262,243,126,116,45,27
30,53,271,231,111,116,40,26
28,49,263,211,105,103,41,27
30,48,325,273,100,118,39,30
31,51,315,255,93,106,43,29
36,57,367,325,132,145,61,28
33,52,359,334,137,144,61,27
37,56,350,349,138,159,66,28
36,54,284,302,138,151,66,25
37,59,389,375,148,158,76,26
32,58,337,330,111,120,66,26
32,64,347,327,116,119,66,27
35,72,396,367,171,122,63,28
34,71,405,377,180,119,62,27
33,66,315,323,171,113,49,27
34,74,357,301,177,135,54,28
37,85,389,332,179,136,57,30
30,77,344,267,128,119,55,27
32,83,359,285,112,134,63,28
30,83,357,280,116,134,61,28
29,70,314,263,105,107,51,28
24,56,280,225,94,105,49,27
29,59,338,263,92,108,48,28
26,54,318,261,92,113,47,27
29,60,315,241,86,122,51,27
29,65,332,293,104,131,54,26
30,63,317,316,115,135,55,28
26,62,299,358,131,136,54,27
29,66,316,370,167,134,57,29
29,64,316,368,170,125,54,28
32,62,304,336,170,135,52,29
36,69,328,322,175,139,51,27
37,74,308,304,186,135,50,29
40,71,339,303,163,140,49,31
39,70,342,321,163,134,48,31
36,78,369,314,155,119,49,34
35,70,360,308,151,115,50,36
37,70,397,302,148,121,49,36
34,71,363,260,141,131,48,36
39,85,374,257,165,140,50,39
42,79,352,274,175,157,56,41
42,84,346,268,166,178,59,39
44,91,322,237,164,182,63,41
49,99,331,252,181,182,94,46
51,91,392,260,168,189,105,47
50,92,429,269,167,182,108,46
51,91,426,275,176,169,106,48
49,75,392,319,171,164,113,47
44,64,392,346,153,147,85,40
40,60,334,363,146,134,74,38
41,63,287,406,160,142,73,39
40,58,280,403,167,135,74,37
39,59,292,373,168,148,66,36
40,58,301,342,166,152,64,39
37,57,269,313,165,151,61,39
37,59,315,294,147,145,52,37
35,61,337,328,141,148,54,36
36,64,345,318,136,128,48,37
34,67,342,316,139,119,49,34
36,66,346,334,156,125,50,32
33,56,292,300,152,121,51,29
31,53,274,261,154,120,49,28
27,52,261,237,147,127,51,26
31,53,233,288,161,127,53,27
27,50,225,274,137,120,55,24
32,57,261,262,140,126,56,26
36,62,308,318,147,128,60,29
36,60,300,319,154,126,58,29
34,51,299,269,135,122,57,26
36,69,311,278,155,128,54,31
31,69,297,280,150,119,51,29
28,71,231,211,135,105,44,26
37,95,355,393,194,118,49,33
38,105,371,429,200,114,48,33
38,98,368,413,187,109,46,30
41,99,353,437,205,115,55,30
48,102,377,512,243,141,64,38
45,82,294,407,212,135,60,32
48,71,287,406,223,144,64,37
49,73,289,409,227,142,62,38
48,94,345,396,216,136,58,40
44,91,354,308,169,114,54,34
41,95,335,286,139,103,57,35
39,93,328,242,119,91,61,30
38,90,345,277,114,116,64,31
40,65,316,257,127,130,64,30
36,60,306,241,129,158,65,28
41,54,313,242,132,164,65,30
39,56,306,267,137,167,59,30
36,59,292,247,139,160,58,29
33,56,264,251,120,155,60,29
36,52,240,269,129,126,56,32
32,60,265,288,139,125,52,31
32,61,272,268,137,135,57,31
35,68,300,272,132,130,62,33
33,70,303,268,132,128,61,33
34,76,338,281,137,159,93,38
34,77,315,267,127,166,113,40
38,84,463,285,132,182,146,51
42,87,487,310,143,218,145,53
47,99,511,307,171,240,180,57
50,96,514,403,170,242,182,60
56,94,511,420,173,252,184,61
54,89,404,418,185,299,312,71
55,84,347,421,190,296,338,74
59,88,349,451,188,285,340,76
57,102,414,407,223,334,368,76
56,109,450,452,224,386,396,80
