101,365,135,201,314,951,192,165
95,359,117,178,307,935,190,176
103,351,120,164,337,953,193,179
104,346,120,164,332,1003,199,191
136,359,117,156,339,1099,205,209
128,325,113,142,403,1125,196,193
132,378,137,178,414,1111,218,202
150,375,138,187,415,1134,217,219
161,392,153,244,431,1137,225,209
139,401,154,245,411,1097,191,198
137,410,157,292,375,1075,195,202
156,385,169,324,395,1016,232,207
147,425,175,318,378,1043,233,188
135,408,170,290,372,1035,235,191
130,352,153,275,353,1085,245,205
132,324,151,231,314,1104,239,203
137,362,131,211,367,1185,277,185
128,313,111,226,368,1190,282,188
127,292,96,208,383,1189,269,175
127,335,123,221,449,1176,290,136
146,402,129,236,457,1188,313,159
120,357,111,186,488,1167,240,143
135,386,119,181,521,1104,253,138
134,385,120,186,518,1084,248,141
166,419,110,169,498,1098,226,162
155,412,108,134,500,1085,197,140
167,426,136,141,409,1058,194,158
160,409,129,130,402,1093,209,167
158,411,128,125,377,1148,212,163
181,443,174,167,369,1156,244,177
200,398,169,172,398,1218,251,187
187,358,148,182,473,1262,261,188
194,380,157,201,476,1306,233,197
203,387,164,200,475,1265,232,223
154,280,115,169,457,1219,191,208
127,325,141,180,446,1140,180,201
145,328,143,160,360,1099,157,191
134,300,136,127,331,1025,140,189
128,322,144,127,351,1005,143,159
135,414,145,132,398,1009,123,140
137,407,135,134,419,1034,134,136
129,432,152,147,458,1048,146,144
148,509,165,144,504,1055,163,134
169,570,195,149,515,1080,159,133
170,512,196,153,523,1078,171,143
183,498,190,135,501,1063,176,159
199,569,211,137,521,1108,180,144
184,547,222,147,473,1099,177,121
163,534,236,142,503,1054,201,116
175,530,233,167,476,1005,242,142
177,577,246,172,490,1000,229,133
174,550,240,167,437,901,236,134
179,530,230,170,470,875,244,148
200,468,185,165,464,837,250,151
205,490,185,123,478,828,233,130
203,458,173,119,451,786,244,142
199,481,179,132,480,747,235,137
190,453,168,127,512,727,239,125
178,468,173,144,515,719,251,125
166,434,167,147,530,709,227,124
217,458,184,156,528,687,221,147
223,371,155,138,514,683,220,170
231,388,168,129,427,632,257,174
258,363,157,122,344,632,227,205
254,401,159,116,234,619,232,204
203,363,153,107,240,603,234,179
201,395,172,107,225,607,230,169
200,369,164,113,246,625,184,174
165,376,173,144,258,635,176,141
179,441,216,160,271,673,166,137
179,489,202,152,279,692,152,130
166,483,182,150,253,655,176,122
163,488,181,154,272,663,158,119
170,499,186,123,303,640,162,107
163,525,153,105,291,608,158,106
168,490,155,119,308,598,176,107
161,490,171,138,336,615,162,106
190,497,174,130,366,576,163,122
214,520,177,127,340,578,165,152
205,409,159,129,344,564,164,148
197,406,170,118,323,540,150,147
199,369,149,97,286,564,167,144
163,351,139,101,216,587,159,121
114,300,122,104,215,600,152,85
115,311,130,99,212,646,153,88
119,272,118,105,210,682,157,86
125,298,120,107,246,693,126,93
138,323,130,108,255,731,129,104
137,331,148,117,255,754,121,98
132,324,137,123,254,731,120,93
128,331,138,140,371,1012,125,94
116,300,146,153,374,1110,144,88
117,299,139,148,368,1152,151,92
119,303,129,137,367,1143,155,105
119,303,132,131,358,1125,164,106
119,286,131,111,224,846,164,104
179,362,134,228,348,945,222,151
197,426,144,332,540,1192,304,148
189,429,130,362,631,1439,337,148
205,431,129,372,665,1487,338,163
208,431,125,371,664,1477,331,162
202,418,125,307,594,1303,285,177
200,378,122,189,427,973,187,177
242,360,120,143,281,450,117,189
234,362,123,136,215,151,140,178
231,374,137,153,273,69,146,180
199,384,137,162,303,326,147,130
197,406,178,194,339,560,150,123
188,412,184,239,431,678,167,128
202,423,192,237,437,786,143,143
227,452,186,235,405,854,143,148
224,410,186,232,415,845,139,147
222,378,137,240,431,780,148,162
201,383,139,211,376,745,131,145
201,406,138,220,356,703,133,145
185,360,136,245,398,688,138,142
187,396,129,268,376,681,137,140
181,371,136,239,350,674,141,133
173,360,136,227,407,674,143,133
153,325,122,221,435,654,151,120
156,319,117,191,418,640,146,122
161,275,109,155,431,647,147,130
154,299,101,162,424,615,144,119
142,318,111,145,343,606,147,103
142,327,118,138,347,609,141,120
146,349,127,139,344,598,144,130
140,381,145,149,350,611,159,118
144,405,151,139,362,668,150,118
162,388,146,153,387,659,162,130
196,362,143,149,359,692,165,142
185,392,170,146,341,705,163,135
176,343,156,140,324,664,167,132
169,282,151,161,310,625,172,132
170,291,139,161,259,621,156,133
125,287,139,159,258,589,148,97
120,313,104,152,263,577,154,85
144,335,128,153,235,590,150,115
148,336,136,138,229,571,151,113
136,354,149,134,240,612,155,105
153,359,147,139,238,605,169,126
168,307,140,157,268,712,164,135
154,313,129,188,327,810,147,115
147,335,134,234,416,817,167,115
140,353,139,255,450,772,171,115
178,364,141,260,460,765,176,151
182,375,151,254,439,644,182,156
188,354,144,236,402,497,241,163
186,353,139,184,349,484,225,160
185,308,124,155,325,463,224,159
128,345,133,156,354,457,208,105
112,307,123,161,362,443,207,95
110,330,129,173,366,441,153,85
117,300,120,180,326,542,199,96
122,321,126,170,304,568,208,99
130,299,123,175,283,550,234,100
116,312,118,172,279,590,239,87
119,293,107,158,320,585,251,89
121,302,105,147,318,506,221,82
119,282,94,156,332,508,234,79
114,252,84,147,318,513,231,78
124,243,95,143,369,495,237,89
121,248,107,131,360,515,219,86
116,259,109,139,378,510,228,87
109,266,113,140,366,546,251,87
106,274,112,139,400,627,275,92
99,294,122,149,383,687,283,88
88,322,117,152,347,682,291,80
96,332,125,179,334,709,350,88
104,319,123,194,337,693,333,101
115,340,120,205,301,669,333,110
113,350,121,203,283,629,326,106
122,317,120,228,347,618,342,114
117,289,110,242,399,579,327,110
135,318,114,256,482,581,334,117
138,293,128,308,570,520,332,116
136,292,134,356,640,511,363,119
122,296,138,449,652,568,359,114
123,319,146,447,646,612,362,119
107,349,161,432,590,588,355,99
113,362,156,404,534,671,388,104
124,334,148,395,464,664,368,114
127,359,147,273,408,649,358,112
124,343,144,249,393,599,315,106
120,294,126,250,421,580,310,106
105,316,131,227,438,520,298,89
92,361,129,165,444,524,305,75
94,341,120,174,476,497,320,81
117,337,118,185,483,513,322,92
122,367,123,203,485,575,332,93
117,338,109,233,433,583,340,91
131,296,99,247,536,593,331,98
131,296,111,243,508,594,309,96
109,299,115,248,520,577,304,85
101,241,103,239,483,574,289,80
112,246,110,217,498,595,288,92
105,244,114,197,361,565,274,87
113,284,122,200,433,610,294,90
125,373,164,219,447,654,340,100
132,377,167,217,475,716,339,102
134,371,170,229,463,746,363,104
129,395,180,244,455,833,367,106
136,376,177,234,425,854,357,119
125,297,144,201,388,858,309,110
116,298,144,196,377,839,308,107
114,313,139,164,373,798,215,99
118,356,135,157,386,725,203,99
114,344,130,170,365,699,187,83
130,333,121,180,318,744,241,91
140,348,130,168,316,691,239,96
133,374,137,185,306,698,217,90
124,314,134,191,292,720,239,83
112,320,136,182,285,769,236,86
94,324,141,215,335,727,185,88
80,341,139,215,307,776,177,85
74,310,134,230,322,789,183,88
140,336,133,253,362,828,182,136
157,314,128,264,342,794,187,141
156,315,116,235,322,789,176,134
162,311,134,302,459,774,238,149
198,316,138,313,479,806,252,195
164,280,130,280,439,776,223,168
182,326,147,269,461,761,224,185
187,313,146,264,455,779,229,189
181,277,120,192,329,805,164,175
146,275,113,154,358,774,151,129
140,260,108,168,411,810,176,131
93,204,79,201,482,843,212,94
104,238,99,274,536,853,246,102
110,246,100,328,647,827,273,114
106,219,111,421,676,805,279,120
110,223,116,420,662,754,288,112
116,215,127,414,628,722,265,118
102,199,120,375,577,685,238,111
96,235,126,331,493,676,208,101
114,238,123,221,404,726,185,97
129,267,126,219,388,768,175,109
121,276,118,208,346,794,184,104
120,266,115,213,353,841,176,101
122,217,118,247,357,887,177,101
108,250,116,228,380,886,190,85
90,220,119,219,383,854,170,67
89,219,117,226,389,820,169,64
94,234,125,232,410,782,176,75
91,260,128,212,446,726,175,76
81,221,122,213,437,684,158,75
76,259,126,227,453,679,212,75
123,267,126,256,456,685,201,92
125,285,131,310,505,683,213,98
129,271,122,327,463,715,225,101
148,323,138,333,461,763,282,136
153,296,125,333,453,791,266,142
120,296,131,329,504,796,312,132
121,291,122,296,498,825,305,127
129,313,140,291,482,802,301,140
115,286,123,280,546,792,280,112
116,316,133,289,593,757,262,106
125,349,133,274,548,737,208,107
125,367,144,240,488,698,203,100
123,366,128,216,468,675,210,92
116,341,125,214,384,651,203,98
109,321,124,187,272,664,208,99
123,276,118,156,248,702,200,103
137,305,121,177,273,704,228,124
130,287,117,159,276,729,219,112
147,299,132,221,273,707,199,123
180,310,132,234,284,713,199,136
167,366,146,249,312,700,238,135
168,336,134,228,278,689,204,125
170,330,135,249,303,663,200,125
173,430,138,210,294,676,214,117
165,411,134,209,288,653,227,136
166,363,117,203,259,648,207,133
152,413,121,205,264,699,212,132
157,415,119,177,260,732,210,138
150,307,100,158,249,730,212,135
141,360,130,157,251,794,199,110
137,376,141,145,247,788,186,109
135,303,140,181,279,769,198,103
126,337,143,185,263,731,202,97
126,383,152,190,273,721,181,90
104,421,149,193,319,655,169,74
123,412,143,210,335,651,161,94
149,439,149,221,345,649,145,91
152,410,148,215,338,691,159,91
162,520,187,265,427,696,169,103
162,480,180,282,420,721,175,104
171,543,213,280,449,747,188,106
155,521,204,253,417,764,224,115
149,549,219,259,426,774,219,117
124,424,192,231,372,777,206,106
130,420,186,221,397,767,219,109
118,334,143,205,407,745,251,112
115,346,152,204,416,752,225,112
124,338,141,196,394,719,244,112
138,322,128,166,377,738,293,119
158,304,131,167,354,739,326,130
156,317,158,184,310,792,311,117
150,327,152,187,351,766,341,109
147,351,161,198,389,773,337,106
144,417,164,202,372,744,323,104
124,414,162,187,340,737,298,92
113,406,131,189,382,666,295,89
128,409,147,195,354,643,255,99
130,378,135,189,326,609,251,106
122,330,142,234,368,618,239,104
115,381,157,234,389,622,244,100
119,370,157,217,349,632,241,100
106,346,145,225,332,646,285,88
109,403,154,235,359,685,294,92
116,386,144,185,330,668,280,98
136,395,155,197,329,650,267,110
140,404,158,214,311,654,260,115
136,434,169,210,339,642,209,114
129,391,164,197,328,624,172,107
129,409,163,201,328,644,187,106
118,361,133,194,324,651,194,117
137,353,130,190,361,634,197,137
145,327,114,172,338,620,197,138
144,290,99,170,367,613,201,136
139,306,96,176,366,597,207,132
133,293,97,156,357,558,182,115
98,289,96,154,342,526,165,78
106,302,89,170,346,500,165,70
103,308,100,209,312,462,160,64
132,315,127,246,348,492,219,100
137,335,149,263,329,515,231,97
137,339,157,270,369,557,243,99
125,335,167,293,400,611,245,105
142,395,212,293,407,629,250,122
122,349,202,260,377,639,184,102
109,336,185,265,390,649,164,100
137,338,185,261,330,683,159,146
143,309,183,242,286,677,164,153
127,256,131,214,271,701,158,143
123,268,126,212,244,706,148,134
124,292,129,222,244,709,145,134
92,321,134,216,246,686,134,83
91,332,127,205,240,661,127,68
109,312,112,216,297,620,138,88
104,307,111,210,296,594,132,87
108,312,124,170,299,592,190,85
110,300,118,168,329,563,210,91
123,308,126,172,337,586,218,113
108,312,127,153,294,640,212,100
114,324,135,146,299,629,237,101
107,314,130,150,296,647,204,101
113,323,127,167,279,668,197,98
85,307,117,159,296,663,198,78
86,296,114,151,274,680,220,77
77,286,104,147,269,704,195,74
74,260,84,142,252,703,195,76
57,225,82,104,231,699,211,72
58,224,88,103,197,706,199,68
66,236,96,130,201,691,182,72
69,267,123,136,218,674,199,78
79,267,125,162,307,643,191,80
94,270,126,167,308,624,162,83
95,258,121,159,331,600,175,81
87,250,119,168,396,530,162,74
89,221,107,169,406,492,138,68
92,250,104,140,350,495,133,68
77,245,99,138,355,529,147,61
79,249,98,136,351,571,137,57
78,254,99,110,295,644,146,63
81,301,84,141,362,663,155,69
81,267,86,154,376,710,167,72
114,268,90,152,380,718,150,99
121,281,90,160,377,712,159,108
130,294,86,166,384,674,154,111
137,236,93,151,301,692,146,114
139,255,92,146,280,670,144,120
134,278,102,152,301,630,148,108
137,285,109,154,305,638,131,103
136,301,121,141,293,632,124,97
132,308,127,161,329,601,143,95
128,304,130,170,373,594,172,84
112,330,134,174,368,609,168,85
107,327,132,166,374,625,174,87
129,343,134,194,413,633,185,101
128,333,122,173,377,630,179,103
130,369,141,186,356,663,170,104
143,355,128,180,350,677,179,112
141,358,140,205,403,620,199,108
120,322,131,192,361,663,206,102
113,329,139,232,410,725,200,101
107,275,115,219,404,703,180,104
89,311,132,238,432,715,179,95
85,299,124,223,364,710,159,92
82,281,117,249,397,656,148,85
93,321,123,229,380,579,173,80
91,319,124,231,375,518,171,75
90,299,120,247,385,480,186,68
96,304,124,278,428,471,199,73
95,327,133,255,405,474,205,73
86,322,134,246,436,495,179,76
83,317,141,260,489,497,184,76
103,301,142,249,474,476,153,87
97,288,131,203,446,538,133,88
99,388,143,203,513,567,116,90
107,355,133,212,492,560,131,89
110,361,130,195,475,576,145,89
106,337,116,197,464,579,159,91
107,333,122,235,530,503,169,89
113,269,115,237,475,473,198,94
120,305,125,229,463,468,203,93
121,343,141,244,473,478,205,96
117,354,142,233,493,649,209,86
121,398,152,208,426,723,223,82
116,385,147,208,444,946,206,77
108,388,148,210,468,1010,198,81
106,366,131,191,426,998,186,95
95,367,137,178,407,907,182,96
84,337,134,181,746,874,152,94
86,323,143,179,834,638,189,99
85,299,131,184,871,544,194,93
101,344,152,198,873,563,202,84
104,330,142,194,858,605,197,74
116,358,152,243,572,639,225,79
129,377,159,248,375,640,195,94
126,370,156,234,188,638,214,97
128,338,136,229,123,654,215,105
129,336,136,231,90,599,225,112
136,329,138,164,65,560,206,114
118,277,115,163,54,544,201,97
124,333,123,161,40,565,184,100
111,348,120,144,31,577,178,89
106,359,120,134,25,567,166,87
87,324,87,143,185,592,171,87
92,319,89,133,405,600,174,89
93,255,80,152,482,592,179,92
90,198,88,158,495,577,180,87
92,193,98,171,721,595,183,91
92,221,101,177,885,580,175,87
97,224,97,189,954,605,192,85
89,233,101,189,952,610,177,76
88,239,106,194,964,582,165,76
96,238,102,193,813,573,151,69
108,237,116,197,634,545,150,73
119,240,119,186,392,514,128,86
120,242,121,184,351,504,129,87
125,257,131,186,352,556,126,91
117,281,136,183,388,588,136,83
105,288,133,163,371,659,146,90
143,290,134,151,369,710,132,117
198,309,146,148,356,743,130,152
215,324,152,181,365,759,136,157
214,294,143,184,358,763,138,160
216,271,138,184,380,714,120,155
184,278,140,188,430,693,132,141
131,250,123,190,435,674,132,102
104,255,104,156,416,611,150,102
106,247,107,151,387,609,148,108
114,251,107,151,348,634,151,115
119,256,108,141,316,600,138,101
103,261,116,138,308,631,134,100
95,230,111,140,286,657,121,91
95,239,117,199,393,650,121,87
81,256,114,204,408,692,133,109
70,284,112,215,401,765,151,151
74,297,118,220,393,757,193,161
76,290,115,212,407,787,200,161
75,352,120,155,312,833,233,163
73,339,128,150,303,817,260,146
66,305,127,167,315,791,252,109
60,284,110,171,343,798,225,99
60,284,129,185,319,795,226,101
52,198,121,185,342,777,208,92
58,218,119,189,401,824,167,96
58,204,115,168,376,820,166,84
60,206,117,149,334,820,159,80
56,208,104,145,338,813,139,71
57,211,99,150,307,772,99,66
63,188,87,147,238,729,87,55
64,187,89,143,234,723,79,51
63,196,92,148,278,699,87,48
59,184,81,128,281,682,106,58
59,186,86,139,282,744,105,60
61,208,89,148,276,753,101,63
63,218,90,155,305,751,107,63
64,204,82,147,260,787,103,62
74,271,93,148,263,830,105,64
72,270,87,164,265,829,101,62
60,251,85,171,243,841,108,59
65,270,92,167,198,843,105,58
67,269,95,177,201,817,101,54
61,264,103,196,195,771,83,48
63,259,106,184,178,711,82,54
62,245,104,180,165,674,84,54
59,261,98,188,177,663,99,54
61,270,97,178,164,654,100,58
52,208,77,173,157,661,96,48
56,272,100,156,159,705,97,47
56,272,106,173,170,701,108,48
52,256,120,162,159,712,92,49
46,248,122,161,192,730,93,47
50,266,122,146,186,740,88,58
53,213,108,153,189,742,85,61
54,223,105,117,175,733,55,65
51,196,83,107,175,714,49,63
49,205,84,115,146,696,48,61
53,177,79,109,136,691,56,56
46,159,75,110,177,655,58,48
45,156,80,112,174,674,60,43
46,164,98,114,165,684,58,42
51,154,92,102,164,692,53,43
49,190,95,102,190,692,46,38
47,224,96,85,158,729,44,39
54,236,97,90,195,729,41,43
55,246,89,96,213,737,43,44
57,257,94,117,228,714,48,46
57,281,118,122,276,684,84,63
61,258,115,134,283,640,112,62
77,283,118,168,309,601,146,78
86,331,131,185,321,596,163,80
84,384,161,178,353,627,193,82
87,403,171,187,321,664,191,73
86,415,174,185,335,697,187,74
71,392,168,168,306,728,168,55
69,362,165,161,294,716,229,60
83,362,176,183,289,697,223,63
207,352,154,182,338,691,247,70
234,391,169,203,369,659,260,75
248,408,173,208,382,629,317,80
251,425,165,203,396,647,302,89
252,424,140,190,387,651,341,92
164,394,136,188,362,615,353,93
128,366,114,174,372,602,358,99
102,375,114,170,367,616,313,98
103,348,115,194,401,571,299,101
110,319,101,201,436,576,259,117
126,419,124,199,420,685,219,130
123,400,124,200,386,788,195,125
156,389,127,201,418,790,208,175
166,393,136,176,392,805,218,202
183,457,152,162,361,797,203,209
180,386,146,172,375,748,202,203
181,392,142,164,367,659,201,206
154,418,162,164,342,648,190,172
172,404,154,178,312,651,145,147
149,309,138,171,307,634,131,125
152,350,152,172,280,588,122,122
169,365,162,188,315,639,124,142
169,368,151,180,296,700,102,136
135,399,155,164,312,735,102,123
150,472,172,210,315,757,112,131
160,440,157,229,343,775,113,142
156,453,171,227,308,731,107,133
166,438,165,237,337,674,114,136
165,430,170,251,337,627,116,132
150,368,172,309,470,613,128,121
143,360,178,307,477,616,132,112
128,329,163,309,481,627,143,106
112,314,171,309,529,613,140,99
116,298,170,300,530,630,137,100
106,249,147,208,420,636,120,95
123,233,136,194,407,613,115,87
125,235,132,177,414,624,94,64
125,232,122,150,314,624,91,59
118,254,122,158,320,571,94,54
126,274,141,157,286,545,94,66
96,272,138,137,258,524,98,75
91,261,137,135,232,455,90,76
88,234,129,150,230,429,86,76
88,220,117,153,214,445,80,77
81,214,100,151,213,488,77,69
83,238,102,157,213,517,60,54
78,239,109,154,202,558,71,49
78,270,109,134,189,604,71,48
75,249,99,122,188,621,70,40
76,249,90,137,187,623,74,34
73,250,87,129,176,638,72,51
77,285,90,125,179,652,62,53
93,372,117,132,186,652,64,55
93,369,116,124,158,666,68,56
87,363,118,103,157,657,59,57
77,349,117,98,157,675,58,39
78,357,114,109,162,655,56,40
56,285,101,109,169,635,56,36
54,293,108,124,245,643,60,44
67,306,111,151,275,649,68,64
71,338,125,159,292,615,72,65
62,305,128,164,296,633,77,64
63,275,121,179,312,634,80,65
70,284,137,188,265,604,83,63
66,276,140,179,265,593,93,63
84,267,135,191,279,614,134,104
83,322,157,214,340,602,155,109
85,330,155,213,350,606,242,141
90,323,150,244,383,641,253,148
114,328,146,264,539,656,255,153
106,343,169,269,534,695,250,131
114,292,142,243,502,707,239,127
122,290,146,247,507,729,151,96
125,316,140,208,487,742,157,93
101,352,148,184,346,735,156,71
101,340,125,161,492,690,161,80
96,342,123,178,579,693,163,86
83,326,119,182,578,662,162,82
68,299,117,182,582,624,136,73
68,283,113,198,553,627,127,74
63,264,109,202,458,618,98,65
66,363,124,190,335,606,99,62
75,401,135,168,317,636,101,67
75,414,146,186,323,621,117,66
70,410,155,176,339,595,138,69
69,401,154,201,354,630,173,64
70,318,148,270,497,617,223,66
71,331,151,289,523,583,261,74
89,320,137,295,523,618,290,96
108,332,131,305,528,631,303,150
152,372,148,311,525,652,304,185
185,454,147,253,395,715,291,193
186,448,146,294,403,712,291,196
197,531,219,284,415,728,296,197
202,510,220,273,407,746,279,170
184,502,209,268,353,682,273,150
153,431,208,293,395,615,254,143
154,436,205,241,338,618,218,137
132,335,130,228,317,553,177,124
109,334,121,215,304,558,180,107
101,311,132,190,306,580,173,99
92,372,143,185,262,644,165,89
97,357,134,168,264,677,159,85
103,352,153,235,346,689,239,99
139,350,151,239,348,676,240,119
132,341,140,239,346,684,226,109
186,353,139,246,361,622,259,144
188,335,135,262,371,666,259,145
185,323,107,205,291,731,184,135
165,339,116,204,327,703,186,128
167,335,106,204,334,662,184,127
103,220,80,170,301,647,135,87
91,203,84,157,283,548,151,90
88,194,85,165,271,439,141,87
76,160,67,156,202,418,120,68
85,221,77,149,213,427,120,85
86,226,74,142,196,426,114,82
78,223,67,127,199,427,87,72
96,231,65,116,205,528,83,80
113,294,97,123,210,582,90,91
102,254,92,120,192,605,95,71
115,247,94,112,249,597,99,77
137,261,103,114,290,587,98,94
129,273,106,136,330,502,102,93
115,224,105,227,457,469,106,89
112,226,106,267,480,448,105,92
100,240,110,287,463,437,104,87
84,275,113,288,467,447,111,71
104,320,140,292,444,442,110,75
109,312,123,224,310,423,103,73
117,321,127,176,279,413,112,74
122,341,137,149,291,492,129,73
116,323,140,166,276,521,150,84
99,277,119,177,284,535,173,78
109,269,128,221,289,532,224,76
99,255,125,271,310,567,222,71
101,276,122,291,349,508,218,73
96,283,125,301,375,475,213,59
95,279,117,284,368,462,196,61
86,283,107,252,366,490,158,66
87,326,128,197,347,434,192,69
98,303,118,161,285,451,195,79
117,404,137,141,241,450,228,93
118,405,133,148,253,478,249,97
125,426,163,151,253,510,239,93
131,421,151,161,256,549,216,95
117,410,153,166,294,583,223,85
110,311,131,167,316,616,179,76
108,321,137,169,311,592,161,76
104,365,128,170,315,564,156,80
102,334,123,166,309,596,168,80
118,411,145,199,304,557,199,88
116,395,140,195,263,513,202,95
169,477,167,274,325,542,260,104
169,428,151,299,345,555,267,103
166,433,151,303,355,546,261,99
206,420,172,306,345,596,264,105
211,420,177,314,352,625,273,104
178,389,192,324,292,617,218,100
198,391,194,319,267,669,219,128
202,402,197,322,246,656,244,134
151,411,181,309,285,634,201,124
137,453,188,300,313,662,192,116
138,459,189,250,352,681,190,110
148,467,195,270,364,650,200,108
167,471,202,275,428,681,180,118
208,452,208,296,423,688,220,132
216,416,199,298,419,709,215,134
213,442,195,325,468,731,213,133
188,459,194,334,516,747,218,121
174,453,190,330,494,745,205,119
137,500,202,394,629,766,184,116
134,525,224,529,731,744,207,119
161,519,233,593,782,719,222,129
167,515,237,596,766,712,211,118
171,530,257,655,789,722,245,108
163,450,231,620,690,709,235,101
169,471,233,560,664,702,239,107
149,527,207,460,600,752,274,109
152,511,204,451,596,787,283,121
149,554,187,359,571,774,290,127
149,643,209,339,584,818,371,127
155,708,207,246,486,840,415,128
153,643,206,240,471,822,436,131
161,647,201,210,437,779,451,133
165,671,204,223,433,793,454,135
171,619,185,221,420,801,414,139
179,532,165,226,420,807,397,158
176,491,146,229,375,804,374,154
167,485,139,212,395,788,350,147
168,400,133,197,372,805,370,148
186,355,128,206,341,787,349,162
163,329,128,202,353,796,313,139
169,326,123,187,316,812,279,137
178,320,122,175,289,842,276,141
178,301,121,236,332,809,247,133
157,310,138,276,334,781,244,119
152,265,123,276,307,752,230,115
147,363,155,299,341,709,254,124
118,366,160,297,362,689,254,116
117,357,146,246,321,692,255,113
193,358,140,183,335,722,297,150
207,356,141,171,326,752,297,151
203,277,103,132,306,777,287,140
237,372,130,153,288,815,286,151
244,389,127,143,272,867,242,157
181,373,117,156,235,877,179,108
228,454,150,210,262,844,232,142
234,448,153,211,254,824,222,141
197,357,124,197,251,789,221,122
186,354,126,218,279,734,233,118
218,369,126,200,282,690,238,137
161,259,86,151,252,692,191,101
151,291,92,186,247,669,187,98
182,396,136,226,286,679,200,120
188,380,137,204,286,671,216,121
159,356,133,210,295,667,231,103
152,395,190,387,388,710,248,111
158,410,219,520,464,750,243,120
127,343,239,640,479,743,249,115
119,343,242,670,506,737,233,122
114,354,258,709,521,738,233,125
111,347,237,643,500,711,212,116
99,325,210,550,435,687,218,122
115,310,175,449,450,697,214,152
103,317,179,413,399,686,212,146
114,377,169,348,403,677,181,144
115,362,141,318,442,673,195,143
120,358,139,288,457,683,207,137
108,368,129,209,445,668,212,98
123,362,131,262,490,676,211,105
117,376,144,254,487,693,229,109
124,365,151,314,435,713,244,110
124,358,153,314,469,715,270,108
130,334,142,313,433,706,264,109
144,362,133,262,395,709,260,115
150,291,108,272,373,684,246,118
154,316,130,319,399,644,257,129
176,357,129,360,406,640,221,139
169,412,142,380,448,655,257,133
148,393,144,394,459,695,270,120
143,387,140,401,471,717,281,111
135,431,131,331,447,748,248,101
121,424,139,285,410,764,252,90
131,436,161,242,379,767,215,98
133,424,153,212,412,773,215,109
141,468,157,177,426,770,217,126
146,424,155,157,414,780,278,127
160,398,162,202,447,773,291,149
171,381,166,261,441,748,323,170
183,393,170,281,388,690,315,172
210,377,169,296,387,683,308,192
229,414,176,329,425,663,267,196
221,423,184,375,444,634,310,185
215,396,159,340,489,665,357,172
221,419,168,336,493,692,361,170
206,462,180,337,495,689,358,139
191,434,166,327,499,682,356,136
188,426,150,264,442,760,372,138
192,438,166,283,444,751,319,137
174,472,167,275,457,779,327,128
176,445,185,287,437,806,346,143
173,468,198,288,453,795,361,143
191,486,196,289,449,752,327,154
199,536,186,263,408,741,314,151
216,514,194,288,404,696,306,161
200,521,168,267,442,672,293,142
197,490,148,242,376,719,280,140
195,536,167,256,388,683,238,126
182,473,153,257,391,688,206,115
154,467,126,219,377,654,220,97
148,412,122,258,355,620,215,91
188,408,133,261,364,566,211,143
184,350,105,220,347,620,236,144
175,381,114,220,320,600,242,142
175,353,116,226,310,640,218,143
189,346,114,201,308,654,247,187
152,394,125,211,309,638,243,160
132,479,179,212,295,584,197,150
148,535,221,230,300,609,195,156
164,553,226,227,312,590,208,170
160,582,236,205,276,579,180,127
154,553,227,182,248,580,175,121
148,480,190,191,279,608,202,125
135,371,137,204,325,595,209,133
123,380,145,238,356,587,195,125
128,361,131,248,368,597,181,139
136,432,171,281,423,594,202,140
153,454,184,286,420,578,178,141
173,474,199,286,397,607,183,141
191,522,204,294,407,619,220,133
181,520,206,290,401,647,219,113
224,615,244,400,408,659,219,133
223,641,264,438,421,664,234,138
213,645,264,441,461,675,241,126
230,628,269,447,465,690,235,158
237,630,274,464,548,691,246,166
199,556,239,403,562,689,234,156
202,490,206,361,555,694,222,159
205,481,199,359,525,665,208,174
185,451,183,340,535,690,186,169
183,439,171,324,444,680,173,169
185,370,142,251,398,672,155,163
168,353,133,242,414,669,169,153
155,399,126,205,462,679,202,134
200,419,140,192,436,627,198,162
206,410,139,187,455,626,201,159
222,375,131,214,480,661,214,178
239,406,140,217,483,624,207,187
245,420,144,214,476,613,166,187
189,369,118,201,458,603,148,137
179,382,128,187,442,592,155,130
162,408,161,238,464,570,153,106
143,376,160,251,440,587,150,81
137,293,152,265,381,580,163,83
155,306,155,292,381,635,167,101
143,301,143,292,414,622,151,104
146,316,107,229,388,648,146,120
190,489,153,264,508,697,189,159
205,509,161,277,532,693,188,173
189,499,156,242,557,699,186,163
193,564,172,260,573,736,231,169
205,585,177,265,540,724,237,174
177,472,137,212,472,677,201,150
170,506,143,199,509,697,199,148
197,525,145,201,539,658,216,183
199,450,126,182,538,611,168,182
171,441,126,176,557,582,150,162
158,462,149,198,534,581,143,152
148,397,135,185,482,552,131,147
115,363,136,189,413,559,103,104
108,401,161,219,385,569,104,99
107,452,185,235,344,608,121,107
94,409,163,219,320,634,134,103
91,402,161,206,327,644,146,95
88,421,171,255,373,684,167,91
89,383,149,242,349,758,168,89
93,267,119,230,356,748,156,78
122,284,121,225,359,755,169,106
132,372,146,247,362,795,165,112
130,373,147,210,370,758,139,113
132,380,148,193,360,691,143,111
155,382,154,212,370,665,153,139
140,379,161,237,366,628,137,123
152,384,159,229,379,564,129,113
152,369,164,323,380,575,216,112
151,359,161,330,689,575,214,111
150,387,151,327,859,595,244,96
165,377,144,332,952,583,249,102
153,311,124,324,939,586,254,107
195,456,168,309,927,637,191,137
205,514,184,331,764,713,187,137
191,552,198,328,586,766,160,125
191,558,200,317,415,824,153,138
203,550,200,329,425,832,150,141
180,508,189,263,409,758,153,124
173,530,201,227,360,660,151,123
168,519,200,238,320,561,130,120
171,507,196,223,353,469,131,108
172,516,202,213,369,418,131,102
158,551,190,191,361,459,123,95
158,489,174,192,325,474,162,108
167,507,177,171,318,470,169,109
142,568,194,178,338,466,165,104
159,555,186,174,348,484,167,119
160,500,164,208,389,468,163,116
154,491,159,217,445,455,132,103
158,459,138,223,470,496,138,117
166,395,112,205,474,490,163,121
124,402,127,200,460,480,152,104
144,381,146,254,476,467,165,119
143,391,140,250,479,459,164,117
148,367,144,259,478,424,229,106
157,368,142,279,460,457,218,117
161,359,133,287,446,484,222,120
145,424,133,244,401,525,238,109
152,424,142,245,368,567,246,117
137,388,135,234,412,596,185,119
133,388,136,216,468,587,176,101
134,401,131,206,475,562,172,96
147,313,109,178,474,571,162,95
140,329,112,178,452,530,146,84
134,337,112,168,411,506,134,80
141,349,121,208,391,489,172,82
139,362,134,218,383,488,176,87
114,330,127,204,413,457,155,73
177,366,135,226,480,482,167,126
190,361,137,224,482,467,166,133
175,327,125,180,496,523,117,126
171,298,116,220,560,550,135,122
196,414,174,238,536,540,131,162
165,363,170,202,525,529,121,146
152,373,176,222,543,587,119,142
161,489,222,254,516,537,131,156
168,494,222,211,454,523,115,163
138,430,208,214,477,570,116,126
112,460,215,311,471,570,129,107
136,486,221,338,472,551,156,140
120,390,195,393,502,602,160,125
121,413,216,470,573,653,184,122
130,428,202,480,567,638,195,124
129,383,182,423,532,665,192,123
127,342,172,391,487,631,176,92
137,378,156,319,418,592,172,92
140,361,128,190,310,562,149,93
144,309,108,149,299,533,141,102
147,354,125,149,340,530,135,105
128,402,134,163,347,588,143,100
127,366,133,181,353,593,150,106
143,365,128,177,362,590,143,109
146,407,137,164,361,685,141,103
150,415,148,160,338,695,146,96
152,374,143,148,343,713,149,94
144,371,137,114,344,741,139,91
131,370,144,119,329,736,143,89
117,380,154,132,341,697,152,87
106,327,128,134,321,691,146,93
98,313,119,134,312,688,144,87
102,315,120,135,301,670,165,88
83,313,121,124,312,666,159,77
78,251,94,144,284,617,151,81
111,276,111,191,299,643,151,81
120,274,112,201,302,621,137,88
135,303,134,241,338,659,120,100
187,341,136,250,345,713,132,124
193,439,164,257,425,766,132,121
173,424,156,263,426,758,136,118
166,476,176,264,464,759,148,114
161,508,163,242,561,777,168,101
148,561,230,258,547,777,186,101
153,506,218,244,489,779,186,102
169,551,248,229,553,771,182,119
177,522,242,236,537,783,177,119
167,475,245,227,453,743,154,122
131,457,190,254,493,719,131,109
127,455,191,251,502,718,133,112
115,410,155,238,427,745,166,99
113,390,148,218,454,733,167,103
122,384,144,241,494,776,163,108
112,270,128,223,475,778,168,99
107,322,140,241,494,774,178,92
119,367,147,253,501,745,146,95
114,386,147,254,469,736,143,93
121,379,144,247,416,691,163,89
126,393,144,230,419,703,225,95
143,375,135,223,424,712,224,114
140,333,120,229,466,720,237,114
155,333,134,248,478,783,253,122
145,347,145,283,539,821,249,122
145,378,157,306,570,842,193,118
136,365,157,304,559,861,190,129
144,415,164,323,560,864,205,134
127,433,152,328,562,818,231,131
132,424,140,289,506,777,231,135
134,443,155,311,467,736,243,147
166,411,152,330,464,664,262,154
160,360,151,318,453,653,242,152
167,319,150,304,451,629,206,152
173,352,175,339,455,636,197,153
172,291,147,304,525,687,191,138
136,342,153,317,549,720,168,107
130,327,148,293,511,733,163,102
122,357,150,316,579,767,179,101
110,403,143,316,581,786,177,90
114,415,151,317,512,725,167,95
178,444,145,277,474,708,175,105
197,466,147,293,482,701,181,130
213,462,150,287,374,694,163,142
214,436,145,260,379,689,163,145
209,421,144,269,411,723,169,144
179,470,151,287,446,732,157,155
172,477,148,272,461,751,170,137
192,532,156,244,474,727,185,146
205,519,148,221,425,758,199,166
209,529,160,192,433,754,196,167
189,449,151,181,470,738,196,151
191,491,174,179,456,714,189,162
164,415,162,184,484,710,184,148
151,407,177,213,524,656,180,125
183,438,167,236,491,633,173,134
195,419,176,251,406,617,161,136
206,338,151,274,403,604,149,130
202,340,160,283,371,627,145,133
212,395,157,272,344,658,138,145
209,426,163,256,384,665,158,149
229,493,154,252,513,703,193,169
242,499,163,242,535,757,207,189
242,520,158,228,514,775,206,181
267,492,137,213,508,760,212,217
268,448,133,234,507,768,226,219
240,383,123,205,378,744,208,200
223,403,139,202,341,685,191,185
238,364,132,210,355,645,183,192
209,429,143,262,381,658,242,142
184,418,132,253,341,648,218,126
210,420,132,249,333,674,220,137
237,513,145,303,385,697,256,168
228,519,149,305,380,738,253,169
217,441,147,274,387,727,189,166
223,470,171,289,387,735,196,167
218,450,174,294,393,739,189,189
172,329,139,218,383,725,146,153
164,372,154,217,399,706,168,152
176,378,147,212,389,707,162,160
174,379,141,194,499,689,158,156
154,407,163,229,518,661,174,127
147,409,179,252,513,664,185,121
161,379,170,251,553,654,177,134
150,400,205,260,541,640,190,122
139,345,191,245,481,646,183,119
133,360,178,239,483,651,160,108
158,323,170,269,501,641,159,129
148,357,179,299,540,674,171,123
144,366,146,318,609,662,165,123
145,394,162,328,582,670,164,124
163,383,163,309,591,672,165,139
168,410,166,278,569,664,150,149
170,385,150,252,516,618,120,140
174,374,152,251,538,627,110,138
177,424,157,253,552,593,110,142
167,435,163,328,543,556,141,138
146,485,161,336,561,577,150,110
136,499,171,340,535,594,150,100
145,517,162,321,413,657,150,104
163,466,149,312,402,683,177,132
166,457,145,313,414,714,161,126
163,429,150,326,517,696,151,122
161,410,148,328,530,681,157,124
161,410,173,364,615,596,176,148
144,409,175,380,660,552,148,126
141,409,177,346,699,541,142,119
152,428,181,321,613,553,151,138
175,468,183,315,625,522,194,145
179,450,171,307,597,527,186,132
177,478,197,336,583,525,197,134
193,528,195,333,547,551,267,157
188,505,183,336,559,578,263,143
210,457,181,390,575,654,246,192
203,457,190,393,551,680,243,194
214,480,180,368,645,729,248,195
203,410,184,437,675,718,201,185
202,392,187,461,698,705,221,189
170,417,196,451,721,689,228,147
159,396,184,454,760,712,234,144
170,367,163,436,708,697,244,151
165,414,154,351,666,700,221,142
159,401,162,354,676,709,202,133
157,391,147,330,657,661,193,138
172,419,135,285,644,623,195,133
163,405,142,289,586,612,201,130
171,385,153,306,651,584,205,141
173,489,149,305,598,589,240,141
173,468,143,314,588,583,227,129
167,456,145,321,532,571,231,127
147,444,132,327,544,614,203,118
135,424,121,314,452,618,218,109
128,285,110,289,488,629,217,115
111,284,113,279,450,695,230,103
143,310,162,279,456,720,221,111
147,290,165,279,433,694,217,105
151,303,176,294,444,731,212,102
155,299,172,293,410,726,185,103
156,299,170,266,400,694,166,110
134,277,142,275,378,693,172,93
133,298,156,291,405,682,181,94
144,316,159,296,383,631,171,102
147,321,158,299,390,618,202,97
164,418,174,312,362,596,214,93
152,400,156,311,401,609,213,101
154,429,150,304,375,636,208,107
161,388,133,316,511,655,217,126
157,418,144,330,533,663,196,128
167,397,139,316,543,688,186,141
177,399,163,392,576,645,206,149
176,410,186,409,558,607,211,150
154,419,208,488,539,657,219,128
180,480,270,603,619,667,236,142
218,460,286,659,665,664,258,179
221,451,278,631,641,705,235,174
247,479,283,669,703,723,241,196
262,471,266,598,631,683,223,204
252,424,243,642,687,652,273,194
222,445,246,610,642,653,269,162
215,442,241,588,604,620,265,158
188,358,248,680,645,618,276,136
191,412,266,691,662,625,290,143
250,384,247,558,516,626,224,173
235,315,216,561,535,620,203,160
256,357,231,617,593,639,235,183
265,355,193,456,490,645,212,179
252,320,186,442,490,639,186,168
197,320,162,409,474,637,177,157
196,318,169,371,500,655,177,161
165,282,148,270,473,640,156,135
146,278,149,238,490,645,154,137
148,251,127,255,514,705,158,132
137,218,118,248,490,765,177,109
139,217,114,293,493,751,176,108
147,203,120,308,450,730,190,117
148,341,161,383,435,706,194,111
137,351,158,364,380,609,193,108
130,377,161,378,464,488,195,112
120,380,165,370,420,453,201,117
120,390,166,388,451,491,183,106
120,315,130,349,472,520,185,100
120,319,132,362,460,511,186,108
128,303,143,377,428,530,207,107
126,302,154,418,446,521,210,96
119,291,152,432,439,481,203,106
132,343,162,426,404,404,201,111
128,320,164,428,431,477,205,107
119,347,162,397,409,490,158,99
136,357,160,316,432,494,160,115
138,388,171,283,450,509,170,103
147,334,161,262,496,542,199,133
162,384,168,240,504,471,203,136
163,357,168,260,495,466,211,139
154,367,158,294,471,504,205,127
158,415,160,280,451,537,202,134
147,430,159,273,430,524,182,108
138,385,140,289,436,596,188,113
147,399,139,286,466,606,205,112
141,479,147,305,490,598,210,112
133,420,131,301,499,562,208,106
122,419,146,300,477,568,210,100
119,438,154,290,489,550,197,87
108,427,141,268,457,530,180,98
99,335,139,227,424,489,173,96
93,341,142,231,398,487,170,92
86,325,124,233,421,480,165,93
102,312,125,226,378,454,173,117
118,335,127,227,426,494,188,108
137,315,118,216,420,524,179,109
134,300,112,196,427,536,175,109
139,277,112,201,407,583,165,111
122,269,108,218,416,586,218,95
112,237,117,245,384,584,204,95
107,317,129,253,367,617,223,93
112,329,133,264,400,623,231,93
145,381,134,261,381,585,255,99
160,373,130,265,411,580,206,101
195,493,169,281,409,542,192,115
197,474,164,291,439,530,170,115
204,521,183,305,458,518,213,120
179,477,180,312,485,521,194,120
183,525,193,292,487,528,201,121
153,410,152,251,460,574,197,100
156,438,177,399,615,546,231,103
201,511,188,426,616,572,197,152
216,535,205,498,644,598,184,151
206,510,209,554,673,612,182,145
196,506,212,565,710,621,219,148
195,554,209,480,614,624,201,164
163,426,187,466,609,611,192,139
149,483,192,375,621,631,207,132
144,478,175,292,611,636,202,137
159,497,173,274,631,655,179,139
147,401,148,252,590,701,170,116
122,409,135,203,580,719,162,86
123,334,124,232,534,687,144,89
134,316,134,228,462,655,158,99
129,304,144,252,450,621,164,101
133,282,146,246,445,580,160,104
138,282,154,239,454,597,175,111
133,283,136,212,456,656,171,107
148,306,134,211,454,706,159,96
146,289,120,178,415,757,137,93
151,340,153,185,400,787,142,92
146,342,153,204,411,810,130,89
245,476,211,240,425,814,172,150
248,502,213,234,426,816,169,156
245,515,241,421,500,786,182,155
245,549,246,493,647,774,201,167
263,548,241,494,614,759,208,173
181,442,217,620,728,750,205,129
183,440,239,650,753,748,208,158
190,465,223,615,709,728,229,159
187,418,213,595,614,781,221,155
156,418,216,604,611,785,218,144
167,409,190,463,450,791,201,146
149,391,157,420,417,837,199,107
141,353,142,331,466,865,181,107
153,348,124,261,417,839,161,106
168,340,126,224,414,836,156,117
148,340,122,208,429,804,154,111
153,364,121,205,427,751,158,112
152,358,114,175,413,728,129,108
138,342,100,143,510,695,133,108
121,348,99,150,566,675,135,99
121,333,103,176,586,718,128,105
105,268,96,174,582,737,121,97
101,287,106,182,554,782,121,97
98,263,94,186,483,839,110,84
108,267,110,247,499,866,183,92
105,253,118,305,472,862,205,86
113,248,119,312,522,832,212,98
130,251,130,318,524,795,218,101
124,267,139,315,519,733,237,103
115,248,125,277,503,687,180,91
126,269,122,221,489,643,162,97
125,319,135,252,459,643,156,93
117,312,140,333,494,620,168,86
137,399,166,348,494,620,143,85
137,414,179,397,479,643,165,89
141,429,185,478,513,633,159,94
165,453,193,477,517,661,174,138
168,440,195,496,498,701,165,143
156,388,177,497,492,701,178,139
201,377,171,473,442,697,163,184
215,342,164,396,405,730,167,202
190,273,145,393,460,730,150,172
184,285,123,297,449,712,145,170
182,256,117,295,475,738,132,174
130,268,102,255,489,743,124,127
91,282,106,248,479,739,124,84
100,273,112,225,439,772,123,82
125,267,113,221,499,761,122,89
146,260,109,207,479,743,130,99
145,265,115,263,604,728,159,95
146,251,105,279,627,720,162,96
164,279,103,277,607,662,159,102
149,276,100,273,535,650,155,96
137,265,109,274,536,605,179,93
135,255,104,239,407,603,155,89
170,280,106,244,374,593,144,121
162,240,97,251,435,617,149,147
158,250,100,253,434,637,207,150
198,403,139,264,436,693,188,159
222,401,143,286,490,756,189,177
196,444,170,250,479,813,188,159
197,447,171,233,440,848,186,137
202,468,177,233,462,848,149,133
162,436,157,211,472,838,147,140
133,444,157,183,450,778,161,120
145,420,133,212,517,719,168,130
142,417,133,220,493,653,170,131
138,464,138,222,488,659,213,134
135,382,118,235,493,644,221,113
136,391,118,223,453,649,221,113
149,435,137,233,381,676,232,121
139,440,153,305,478,714,244,117
147,473,166,336,532,721,196,119
169,482,169,336,542,728,184,123
168,466,168,340,533,733,173,123
149,397,146,314,556,736,149,104
149,402,138,255,517,721,133,100
147,328,120,221,527,702,115,99
120,306,113,215,489,706,121,90
115,332,124,206,476,702,120,88
107,339,132,219,454,682,116,79
104,339,132,218,413,678,119,80
96,285,121,205,369,697,129,78
104,311,139,246,467,691,123,78
109,283,142,270,476,699,122,88
108,282,135,260,464,706,133,90
109,301,135,248,475,676,134,95
116,399,163,249,411,663,136,105
113,463,184,224,326,648,141,107
112,500,181,191,336,656,139,99
110,505,183,189,368,643,142,102
126,507,183,211,415,652,135,125
116,427,158,205,430,660,131,114
112,334,121,218,412,667,120,106
114,309,113,222,458,641,127,104
125,290,115,239,511,629,120,107
110,248,112,221,462,647,116,75
107,239,115,217,449,650,112,77
107,280,107,191,467,635,115,75
116,245,106,204,438,660,110,86
122,248,95,189,477,697,106,92
118,266,83,191,528,690,132,99
122,307,113,224,529,668,140,100
128,290,111,206,505,680,142,102
119,288,113,195,478,666,177,100
108,320,125,206,480,625,184,92
126,336,133,221,450,629,172,94
120,300,104,188,469,629,168,88
115,285,108,187,564,607,162,93
118,308,116,194,581,601,126,85
123,279,107,175,496,602,114,88
130,297,104,155,477,576,111,79
139,342,109,164,467,607,107,81
144,349,107,175,352,626,117,75
140,347,108,168,331,622,106,78
139,404,125,181,323,633,109,76
117,396,126,190,317,630,100,83
106,376,132,198,317,601,111,82
111,377,134,195,317,619,107,91
128,419,131,190,316,627,120,104
122,353,111,189,315,623,129,98
126,318,103,182,399,635,131,91
146,330,90,181,417,629,138,109
133,380,113,252,522,621,197,100
117,377,105,255,522,615,193,84
118,397,112,278,529,615,203,87
125,399,110,273,464,592,215,98
122,393,117,272,439,613,213,82
127,349,97,217,331,601,173,89
131,290,98,211,330,589,184,91
137,290,90,161,287,604,167,89
122,289,99,176,338,640,158,75
107,321,107,180,375,616,148,75
107,317,131,247,369,627,169,99
99,309,128,250,445,638,159,97
98,352,139,279,465,680,184,102
107,362,137,272,432,696,195,108
114,328,124,262,460,703,202,107
119,341,97,213,455,697,192,81
125,378,100,210,399,708,196,84
120,386,97,189,501,662,174,80
116,397,109,187,512,622,176,69
121,404,118,186,506,639,178,81
141,421,124,164,599,642,159,98
149,384,123,158,709,636,158,105
150,344,116,156,676,630,152,105
152,341,110,155,676,658,138,106
164,335,108,165,663,660,143,101
138,296,100,161,665,654,146,86
129,328,105,167,589,652,143,80
127,308,105,151,599,672,150,93
122,291,109,149,587,653,144,90
89,291,110,171,633,647,129,86
98,297,113,188,572,660,126,85
135,297,125,199,523,668,129,100
135,340,124,201,480,648,122,87
145,358,119,205,481,665,127,90
144,357,115,193,431,653,134,90
136,343,117,179,435,636,132,84
95,318,99,171,475,628,132,59
88,261,101,180,501,662,142,63
78,248,100,180,516,654,143,78
103,309,114,187,493,641,129,80
105,356,131,196,459,642,144,84
111,385,137,222,427,625,149,93
119,388,141,218,404,560,152,91
117,369,141,224,410,537,141,74
101,327,141,205,403,554,149,68
102,290,123,192,413,536,134,66
105,281,124,158,396,569,141,60
103,269,116,149,375,659,131,64
105,284,115,164,337,703,130,72
106,293,99,186,371,732,124,73
112,306,92,206,385,725,129,84
110,307,83,207,385,682,129,90
109,363,88,211,354,596,127,94
105,371,87,184,421,521,132,91
104,413,110,167,465,450,134,92
105,414,119,146,441,448,152,89
112,431,123,133,487,464,141,83
111,394,120,117,564,474,139,73
117,421,127,127,689,487,138,83
114,376,114,144,685,513,146,85
115,349,106,150,683,519,153,92
108,400,122,166,669,534,151,91
110,411,119,178,633,505,155,94
102,367,115,165,449,511,158,81
101,351,112,166,402,514,152,81
96,367,112,168,398,507,122,65
104,265,91,154,353,500,116,77
96,233,94,152,340,535,109,76
101,232,85,162,366,549,138,78
108,213,79,157,327,542,145,77
105,234,83,150,373,576,141,76
88,251,87,176,388,566,144,56
96,311,105,196,420,582,150,70
99,313,105,197,419,590,141,77
88,348,109,177,419,558,134,77
96,324,104,171,400,547,139,78
110,331,104,165,409,557,146,91
111,292,88,150,356,528,151,83
101,312,95,169,348,510,137,80
113,281,100,218,360,546,136,79
113,269,106,241,402,530,148,81
101,246,101,245,499,538,147,69
97,262,124,256,579,553,146,64
126,236,119,243,641,558,150,89
124,251,123,230,663,563,148,87
118,265,119,207,673,555,143,84
120,293,126,238,701,552,149,88
123,295,112,234,682,572,159,97
122,329,139,290,691,550,160,96
115,318,130,282,708,512,160,100
126,328,136,298,703,523,166,111
130,335,133,273,665,505,161,116
135,313,139,277,636,481,142,121
122,323,160,298,628,513,151,107
149,448,181,295,589,534,165,122
144,443,177,292,548,547,156,111
136,450,197,317,489,604,155,108
139,460,194,354,520,602,164,104
138,464,171,348,492,607,169,112
122,381,156,348,515,635,160,104
135,376,156,350,548,675,160,115
136,391,152,351,549,623,157,116
139,383,146,323,502,661,174,115
134,366,136,280,510,644,164,107
145,330,129,278,461,624,159,110
135,324,131,271,452,594,155,102
132,251,98,226,464,670,164,96
121,277,93,188,456,690,171,88
131,238,83,151,522,733,159,88
113,233,81,177,595,743,170,84
110,264,92,190,584,739,189,84
112,253,92,203,550,718,188,83
109,244,112,205,570,678,159,83
95,269,135,280,495,639,164,79
88,284,135,268,438,663,161,63
83,241,133,263,451,701,155,64
79,262,140,262,449,693,156,68
83,278,130,302,495,698,157,80
79,257,109,237,445,752,170,82
104,317,121,241,538,753,182,97
117,323,117,233,519,739,170,96
119,330,121,262,586,751,172,97
125,392,151,251,563,759,184,98
148,396,154,269,564,749,173,104
140,422,170,277,459,755,157,98
134,446,177,276,452,748,157,109
144,434,188,280,433,744,174,120
157,378,183,278,392,747,169,138
138,406,186,305,465,715,168,131
148,405,186,301,468,714,174,138
154,379,181,348,479,747,183,129
146,405,175,331,412,772,164,120
121,378,155,314,412,782,168,88
125,355,154,289,405,865,169,91
106,259,127,291,426,858,193,77
100,274,129,250,522,852,194,75
103,246,113,256,605,802,206,69
117,251,110,248,620,787,199,90
118,228,105,245,646,701,234,95
129,229,96,237,643,724,229,110
121,232,105,223,566,697,222,110
122,227,101,210,526,730,202,118
117,256,122,216,537,781,203,105
134,252,123,198,484,799,161,108
120,258,127,210,512,813,128,95
124,232,114,198,504,847,118,93
122,256,120,206,517,851,170,93
125,241,99,204,495,799,182,97
98,255,99,216,531,779,179,84
135,301,93,203,549,721,195,86
138,305,92,215,567,684,207,92
140,318,91,224,524,661,220,86
134,426,112,228,534,661,215,91
145,426,103,228,493,663,220,98
120,413,137,252,497,694,212,92
133,419,145,254,539,698,209,112
142,394,137,239,579,692,174,119
173,285,131,251,565,722,169,123
169,289,141,253,576,730,164,119
160,259,126,235,591,716,168,117
157,263,124,218,560,696,168,112
153,286,125,204,566,709,154,111
140,299,123,203,581,681,146,109
149,289,116,206,557,657,145,114
160,285,113,200,489,648,134,130
155,272,108,209,544,668,130,117
156,247,107,207,670,669,147,120
154,241,104,213,742,687,154,125
147,255,116,211,721,709,148,125
143,263,107,214,723,734,149,117
153,270,106,207,661,733,198,124
145,272,109,210,474,723,181,117
120,240,103,178,381,687,175,100
118,234,97,159,380,676,178,99
121,228,90,132,340,657,178,97
101,216,91,135,336,633,116,83
103,231,98,152,389,641,123,83
138,234,99,169,378,695,145,93
150,262,102,171,469,724,187,96
145,254,102,192,585,788,191,89
150,275,106,200,701,816,188,91
148,277,97,204,759,820,188,87
143,338,95,191,748,815,170,79
134,316,85,208,850,814,127,71
145,370,93,196,796,739,123,86
144,373,95,190,762,727,138,89
158,351,92,175,707,705,144,108
151,312,93,183,737,670,144,110
141,339,98,158,672,621,140,108
138,345,107,156,690,626,148,105
138,330,99,151,634,625,142,106
122,362,105,151,671,647,127,86
109,366,114,151,705,679,125,83
118,333,109,154,592,708,126,86
117,265,92,150,537,722,114,77
117,306,97,154,594,742,133,79
115,276,90,153,536,732,136,81
124,323,101,150,483,704,147,86
130,342,112,196,522,706,164,94
121,360,115,206,538,713,158,93
115,326,119,240,448,705,143,92
117,342,134,256,427,701,143,99
101,271,116,255,399,728,136,92
84,261,109,215,433,706,160,79
90,243,110,213,418,694,177,82
104,240,100,174,417,701,177,90
117,220,95,176,451,703,191,86
117,222,102,168,417,700,191,83
125,270,126,182,337,707,158,87
121,254,124,186,360,696,154,97
103,254,125,191,418,673,155,84
89,268,129,166,420,664,146,81
88,271,130,201,515,648,145,80
129,220,100,184,607,638,142,97
129,225,96,168,605,630,150,84
133,246,107,159,578,617,144,86
139,239,90,158,609,611,127,89
150,238,88,125,716,619,126,99
136,235,97,135,661,607,122,85
144,258,104,141,665,645,92,89
150,249,110,144,652,653,90,96
181,238,114,140,574,668,93,110
177,238,110,129,370,660,114,102
162,298,129,127,340,696,124,103
155,279,123,124,336,644,121,106
188,310,121,140,451,643,129,118
185,312,119,151,504,653,143,114
181,304,122,157,518,627,124,121
174,238,105,157,549,589,118,119
177,292,112,170,567,601,123,119
138,280,105,172,509,584,118,112
107,279,110,200,672,551,101,120
113,319,118,211,732,571,132,118
124,356,114,255,778,573,139,117
118,354,120,249,765,588,138,113
115,335,120,272,797,611,150,106
99,329,125,260,647,628,158,89
99,318,114,247,532,641,131,83
84,289,107,206,418,652,126,78
90,239,101,215,454,660,126,78
110,266,95,169,369,671,109,75
123,273,86,178,444,690,110,91
116,261,103,202,436,667,113,89
124,269,117,233,443,671,114,97
125,261,124,267,418,649,127,100
108,260,128,268,446,618,137,100
101,252,137,288,378,579,127,90
100,257,125,283,394,583,132,90
95,256,127,256,373,549,127,85
100,273,120,216,339,565,113,83
103,246,123,252,346,564,129,80
105,242,109,212,314,612,133,82
112,225,107,198,317,634,127,81
116,249,96,198,350,693,124,84
105,230,91,201,382,724,152,79
109,281,110,190,362,756,154,76
118,289,115,197,386,741,157,88
118,285,120,205,422,725,165,91
116,276,125,206,507,703,169,89
121,284,124,201,498,675,154,93
126,278,99,162,480,650,129,108
148,271,92,145,493,624,121,125
151,302,96,139,483,642,137,131
155,275,87,127,361,619,136,136
156,284,86,114,344,617,134,139
160,259,87,122,387,626,135,135
126,267,89,143,377,675,131,106
135,237,86,158,460,669,109,112
131,238,90,178,523,692,122,106
132,247,100,187,518,685,118,103
117,228,98,183,491,677,115,92
115,218,96,169,468,640,125,90
91,229,88,153,353,636,144,66
101,241,85,156,265,626,137,71
91,230,83,206,310,638,131,63
87,244,89,213,309,640,131,73
89,246,90,207,311,656,138,81
93,234,91,205,363,666,117,84
110,237,95,219,354,642,119,89
122,225,93,164,335,641,114,93
122,241,90,154,375,632,133,93
137,255,91,193,447,617,132,89
148,268,93,201,415,602,130,92
139,252,87,170,422,622,129,80
133,276,96,191,408,589,158,80
144,252,93,192,413,594,149,74
132,262,103,155,376,572,150,70
118,253,106,143,435,557,152,66
103,254,106,152,506,562,148,62
125,276,102,129,540,584,117,75
117,268,100,143,536,634,114,69
116,265,96,141,526,729,101,66
121,289,96,138,463,719,107,67
121,302,103,133,387,696,113,71
93,269,99,147,373,718,118,60
85,285,111,155,351,648,123,62
81,285,106,160,313,525,119,64
94,272,95,163,345,530,110,68
87,265,97,183,398,516,111,69
89,263,101,191,448,452,116,66
101,257,91,178,488,463,109,76
97,233,99,186,534,470,110,77
83,216,102,196,561,466,106,73
97,211,98,188,525,466,109,79
96,191,91,206,490,458,124,81
86,217,100,207,475,449,123,75
86,236,95,210,453,475,126,75
83,231,93,201,409,472,146,78
83,229,98,218,418,470,143,78
87,235,93,182,378,482,123,73
84,210,89,178,316,488,120,69
89,211,86,175,306,524,126,69
93,216,93,206,322,547,132,63
92,247,103,197,426,576,134,72
95,252,105,195,422,595,135,72
135,357,123,218,449,611,147,103
141,348,125,212,468,575,144,110
139,340,121,191,441,610,147,110
173,331,116,189,342,604,144,130
174,336,125,214,353,569,142,133
165,259,107,206,386,535,133,113
167,254,102,203,348,505,128,107
170,292,104,199,361,454,93,107
147,314,100,191,341,432,95,71
146,305,88,170,346,447,96,67
128,274,83,165,286,475,96,66
119,295,84,163,311,548,100,61
115,260,80,154,313,522,103,64
88,205,71,142,319,548,100,64
118,203,76,158,362,599,106,86
125,222,85,198,498,624,119,89
135,288,88,204,477,589,117,93
136,287,90,232,483,623,119,94
194,320,103,244,481,620,121,130
202,329,105,247,471,579,121,128
196,308,99,225,340,539,102,125
188,260,106,227,332,544,104,121
195,266,120,254,487,509,109,128
144,284,126,258,493,515,116,95
114,283,129,257,489,525,121,84
125,288,127,244,510,551,125,89
138,292,127,253,571,582,130,101
130,284,113,241,478,602,145,93
126,280,98,226,471,581,134,93
133,284,85,211,519,591,130,100
131,274,93,227,584,585,138,100
126,273,103,255,543,584,156,101
132,280,104,224,602,575,134,106
132,247,99,223,624,599,136,101
132,260,107,226,569,624,131,95
133,267,99,203,508,686,118,93
128,230,79,143,502,698,88,81
175,248,85,142,375,733,89,110
185,224,83,125,360,759,80,117
170,211,74,123,357,763,84,117
163,240,87,133,306,705,86,115
161,246,85,130,281,702,85,114
95,233,77,120,295,694,81,77
68,245,82,132,303,685,84,65
77,237,82,139,304,662,82,49
80,212,68,149,279,716,95,55
76,238,75,175,390,744,102,55
99,224,72,181,473,761,115,55
110,256,74,183,476,792,117,62
104,257,82,178,490,832,121,67
103,251,95,182,516,830,127,66
126,253,96,174,450,828,125,79
115,252,94,177,357,800,113,78
106,239,96,192,389,778,120,77
119,271,101,199,397,786,125,87
122,273,110,280,538,769,131,91
150,306,112,279,576,786,140,92
159,312,116,272,571,821,148,116
167,287,124,316,574,838,186,123
187,318,151,412,564,816,217,127
193,313,145,385,453,854,213,130
159,262,151,413,412,838,208,124
147,283,170,438,425,831,205,103
139,283,162,406,363,841,169,92
105,211,137,323,362,827,123,93
116,219,135,300,343,791,113,106
116,255,124,267,359,760,108,104
113,218,96,244,403,745,121,103
115,255,93,232,404,716,113,104
127,251,80,204,400,739,111,102
103,259,79,185,434,756,126,84
142,241,95,189,423,793,139,116
148,252,97,178,376,812,123,119
146,224,103,206,372,835,140,118
132,256,123,255,406,829,147,110
157,249,119,276,335,820,139,120
123,220,114,306,395,774,143,89
122,249,116,309,434,754,148,83
129,274,118,302,456,724,142,90
123,231,98,261,437,689,131,84
94,284,135,310,523,671,142,64
122,295,135,292,495,682,140,96
128,268,133,299,489,692,139,102
143,301,144,322,496,684,158,107
164,305,143,324,472,708,161,120
161,291,122,305,395,723,156,124
144,361,138,304,383,714,148,103
138,361,139,308,340,719,150,101
113,321,123,280,376,725,119,87
94,324,122,275,381,722,114,77
122,366,129,216,365,707,90,88
130,298,98,181,341,700,73,87
127,307,94,150,353,694,62,85
141,298,106,182,319,667,80,95
135,314,111,193,336,652,82,91
112,232,102,230,348,658,90,75
114,246,114,242,347,665,110,97
114,241,113,230,340,656,114,101
126,293,115,223,319,663,114,98
134,292,118,233,303,687,112,100
135,290,109,242,320,687,110,113
124,271,99,241,307,680,87,99
121,267,112,301,359,657,90,96
96,207,107,312,359,658,82,90
86,207,103,307,380,639,87,85
96,199,97,275,344,638,88,84
92,183,93,261,344,650,88,82
98,190,88,221,338,690,85,85
97,185,78,196,367,718,86,85
104,159,91,204,346,736,89,94
99,167,98,247,368,752,113,88
96,249,130,273,380,757,118,85
109,243,130,276,377,751,124,93
108,248,137,336,444,730,144,94
101,313,137,366,574,694,145,84
90,313,135,348,705,656,125,77
96,261,113,338,761,656,126,78
83,256,104,318,742,621,118,71
96,272,97,257,704,621,85,87
95,203,89,219,613,635,80,88
112,193,83,208,482,732,91,88
122,205,86,267,465,731,91,98
120,230,96,281,517,755,100,92
110,225,101,285,501,767,102,85
115,226,104,285,546,787,100,90
107,255,108,292,551,728,99,92
94,265,121,258,525,738,98,80
106,255,121,269,523,759,103,96
104,253,124,272,598,760,118,94
105,255,122,282,614,752,136,96
99,231,123,281,590,759,131,94
97,200,106,259,604,758,131,98
106,207,96,242,566,721,125,89
124,202,86,227,526,713,110,96
119,260,90,193,472,700,83,91
119,262,84,179,511,659,89,95
122,277,91,225,485,636,89,94
102,279,101,250,521,621,95,91
80,275,113,256,482,589,96,80
77,302,112,252,506,585,95,76
75,323,114,251,465,602,93,67
81,318,108,208,439,604,94,67
80,307,110,199,446,611,88,66
79,303,98,192,471,635,86,70
125,244,89,222,441,639,105,76
132,227,99,228,558,643,102,82
125,229,99,240,563,656,98,85
125,256,94,210,545,671,99,83
125,265,94,204,505,666,104,80
90,237,92,189,522,664,92,80
91,229,89,179,388,636,93,88
93,224,88,160,372,602,92,83
95,214,80,171,334,568,100,82
100,203,77,162,363,539,94,80
93,199,81,148,316,508,89,76
96,218,87,152,330,506,88,69
96,223,81,144,349,498,82,71
94,198,82,131,347,503,71,71
92,195,83,129,309,526,90,71
88,187,79,120,314,536,93,68
72,188,61,118,303,548,92,61
65,183,65,125,274,586,95,54
61,188,69,138,366,605,88,51
53,191,69,139,384,610,66,49
59,236,72,135,411,632,61,49
58,234,76,133,401,644,65,43
54,227,73,135,399,615,66,41
59,237,77,141,326,624,75,38
63,240,83,187,394,620,101,40
61,243,94,208,352,590,105,49
62,223,100,234,385,579,106,52
67,226,107,260,467,574,117,57
61,221,118,295,600,565,116,62
63,241,127,301,609,569,98,61
60,212,124,345,722,592,113,55
72,206,122,361,720,607,116,56
69,224,122,365,717,631,108,54
74,337,138,355,662,632,106,51
73,322,130,343,632,639,111,53
72,325,126,307,529,640,100,56
62,326,120,271,511,650,100,53
81,328,113,252,501,644,102,55
79,212,78,223,429,645,105,51
77,209,84,237,432,647,116,55
88,195,90,230,395,646,114,60
93,190,136,367,495,626,146,71
86,168,181,506,517,651,175,72
87,147,182,519,530,654,173,73
95,170,191,557,590,652,190,81
93,156,186,551,585,666,189,79
91,157,158,478,508,674,163,72
87,184,128,321,432,645,130,70
83,178,123,296,407,655,129,70
74,158,108,239,314,655,89,56
65,227,124,253,327,637,84,54
61,253,124,233,311,643,83,54
59,252,104,244,342,647,89,57
59,263,107,261,347,622,95,62
59,275,107,227,348,627,88,57
70,264,132,363,536,602,119,78
70,263,148,476,606,576,125,82
68,249,150,519,641,612,122,81
68,255,157,530,641,594,122,79
66,258,158,546,700,595,128,84
73,227,144,506,670,640,121,93
72,221,137,422,731,643,117,91
77,251,144,403,803,621,123,89
93,260,156,452,844,642,124,97
103,279,153,428,833,624,156,98
94,295,138,385,790,606,140,72
101,287,132,395,758,619,140,76
109,295,125,378,662,613,137,79
98,289,96,283,609,596,135,66
102,264,86,275,587,585,92,71
106,240,91,313,600,588,112,81
101,259,91,281,493,563,109,77
92,224,83,242,461,560,102,74
90,203,93,281,527,563,103,78
116,230,114,292,485,600,105,86
113,237,104,235,437,649,90,72
112,206,101,224,459,708,93,67
112,198,103,230,518,735,94,65
119,221,104,214,467,766,96,71
82,179,85,226,470,733,91,59
78,207,93,262,521,653,102,61
78,218,98,282,570,602,103,65
83,237,107,332,557,527,107,69
77,217,95,313,549,451,102,69
91,259,102,297,562,458,99,67
108,251,110,277,491,492,84,74
120,283,105,263,449,444,101,74
119,271,107,275,466,454,103,80
122,295,117,301,555,476,114,74
124,293,135,340,624,455,118,83
108,297,136,362,679,443,134,76
98,269,133,371,661,475,117,75
92,265,131,339,626,479,116,70
100,276,131,331,574,466,119,81
99,257,121,338,470,496,125,70
104,275,125,310,397,514,113,72
121,278,132,309,430,540,120,88
123,287,125,284,402,556,112,89
127,256,124,279,348,577,103,81
123,242,124,224,332,582,97,81
120,220,114,237,377,587,102,84
97,216,110,238,388,554,98,66
116,231,121,228,387,527,106,82
105,237,140,325,443,517,118,87
98,268,129,331,494,492,113,83
100,283,131,320,451,455,105,80
102,296,166,479,513,481,162,81
82,304,173,506,558,485,168,66
74,303,150,441,512,467,157,58
80,370,193,523,474,476,166,63
86,351,197,537,477,507,169,70
87,339,169,400,393,490,127,74
100,326,179,397,426,542,122,77
106,323,189,426,452,586,122,79
105,247,153,323,438,589,109,78
95,258,146,316,438,583,103,71
105,266,164,419,523,602,121,78
87,247,157,500,489,566,123,72
78,249,153,498,460,534,135,69
108,271,181,643,586,507,161,78
121,251,184,676,655,499,163,84
111,232,167,619,556,505,152,75
114,293,159,540,544,511,150,76
122,294,171,563,627,544,143,79
91,239,138,403,524,612,119,67
74,242,129,329,461,614,118,65
79,248,124,322,470,591,110,69
81,217,114,320,456,618,135,76
64,209,92,245,338,624,132,71
64,202,81,193,322,553,132,74
94,248,80,178,280,565,129,81
90,246,81,162,279,593,127,80
90,202,73,168,321,578,126,70
100,243,76,145,354,604,133,70
113,241,73,161,396,710,131,71
97,226,74,194,421,735,132,64
98,227,76,198,412,773,133,64
97,274,91,190,445,798,112,61
93,243,90,197,429,762,117,70
89,266,120,352,508,718,161,77
84,249,133,364,504,711,169,75
81,262,136,372,557,643,168,72
85,245,132,378,509,634,168,74
78,241,131,394,540,673,174,69
108,241,127,300,466,662,142,79
128,218,111,264,436,678,134,82
130,212,108,252,407,713,142,84
134,206,105,245,466,717,136,92
137,218,104,222,424,741,115,94
117,219,81,158,415,759,104,83
103,280,88,166,492,753,106,82
107,302,94,164,475,763,95,81
98,286,105,188,440,779,94,72
97,281,108,232,453,737,98,72
88,280,106,239,423,746,114,71
71,228,105,239,358,766,112,67
63,187,98,238,359,769,109,64
63,199,94,213,310,761,107,59
63,227,90,177,316,787,109,57
66,235,90,166,315,796,90,54
67,231,85,170,290,798,91,55
78,257,84,170,362,796,97,61
77,253,75,174,351,803,100,65
100,262,73,146,315,812,101,68
101,230,71,148,364,809,96,65
120,262,76,155,436,766,94,67
124,256,82,167,393,742,97,68
123,268,87,162,429,745,93,64
116,258,91,188,474,755,97,79
114,263,88,182,439,737,99,83
98,233,85,181,419,762,108,82
104,235,93,180,421,803,102,85
111,207,91,223,452,793,106,94
99,178,81,208,439,829,94,75
97,187,85,214,442,861,91,73
91,177,81,217,444,855,81,70
90,196,67,202,416,806,80,79
83,205,61,153,367,782,91,70
81,198,66,156,343,698,110,75
86,215,63,152,399,648,113,73
92,218,67,157,387,629,110,75
76,175,66,158,393,664,108,61
78,196,73,171,459,686,101,65
80,208,72,170,506,702,85,61
98,236,77,182,515,738,95,77
103,246,77,167,499,763,96,75
103,271,87,168,518,780,96,76
100,269,88,203,506,785,98,72
102,264,93,210,472,774,100,75
86,212,93,208,442,748,91,71
76,198,89,208,460,757,93,71
70,168,85,220,475,716,89,64
69,186,85,183,416,701,83,64
71,187,84,218,529,707,95,69
99,209,81,215,527,738,101,79
103,209,96,235,580,722,113,85
104,224,89,224,563,735,115,85
103,208,81,213,566,758,114,85
100,222,88,176,466,761,110,79
64,210,92,174,468,751,108,57
63,215,79,144,370,738,94,46
57,188,90,177,421,726,97,47
60,179,92,193,432,698,97,47
64,173,91,212,427,672,84,48
67,180,93,238,420,622,75,49
61,173,93,239,411,626,76,51
66,208,93,228,330,653,65,55
66,225,95,221,316,661,66,56
67,236,87,189,302,693,57,54
77,244,83,155,252,768,63,53
86,250,87,167,252,788,60,54
85,221,82,141,284,791,65,51
85,211,98,145,371,781,63,48
85,179,101,175,370,763,68,46
72,149,102,184,397,697,72,46
83,202,107,188,436,644,86,50
87,210,110,202,421,608,88,48
88,191,97,199,333,595,93,54
88,192,92,172,393,605,95,54
101,189,89,184,373,632,89,60
94,165,85,195,439,656,92,62
90,154,76,187,432,674,92,62
98,160,88,191,456,689,85,60
103,184,100,211,392,695,84,69
93,242,108,206,397,694,88,64
90,230,109,196,306,699,80,65
90,240,114,214,349,720,76,64
82,246,110,238,365,713,82,63
74,239,120,255,437,704,82,58
71,184,111,241,477,715,81,57
60,172,108,257,576,702,82,49
69,166,104,243,547,682,85,57
70,153,93,212,536,743,80,55
70,162,70,168,490,736,83,58
72,158,70,188,460,694,86,65
84,289,94,154,300,712,73,67
73,299,95,153,297,697,72,60
70,298,99,187,298,614,78,63
68,288,104,216,265,629,75,60
70,286,105,210,270,647,74,50
59,247,103,201,292,615,74,46
71,244,105,211,324,619,76,49
68,252,101,182,293,632,66,51
64,249,92,152,301,604,62,46
62,302,102,135,286,600,67,54
72,241,80,130,284,611,81,62
67,231,80,166,325,622,83,65
70,231,93,231,345,639,89,64
72,234,96,236,386,642,91,66
74,211,93,246,386,623,82,62
73,209,102,263,373,623,78,68
68,210,105,258,354,599,86,67
75,212,111,240,377,558,94,65
82,235,112,239,331,546,94,64
84,216,108,241,336,551,93,67
75,202,105,230,351,523,84,57
83,201,98,206,415,517,81,60
77,203,83,163,388,526,65,61
73,190,75,151,395,509,67,64
69,189,72,131,383,504,72,66
80,188,65,123,390,528,78,68
74,184,70,120,299,534,67,62
80,189,72,139,277,545,70,67
79,178,76,153,286,577,68,72
81,162,81,160,297,606,64,68
77,173,81,151,247,621,71,65
73,195,99,209,296,638,80,65
70,192,98,201,307,673,79,62
67,208,99,197,386,685,89,53
70,244,103,224,426,690,92,50
61,244,103,238,454,682,83,48
62,230,78,188,412,666,84,49
56,214,72,179,410,647,88,44
56,200,73,170,336,620,75,42
48,164,70,130,272,581,69,38
75,176,68,145,320,593,72,50
76,188,70,149,353,607,65,52
80,209,73,156,359,602,67,54
80,217,68,160,432,636,72,59
87,210,60,163,482,674,77,63
81,210,63,151,477,672,75,65
87,197,62,149,563,687,74,64
83,184,68,148,577,704,88,68
87,172,74,153,588,692,92,64
80,166,75,154,548,695,91,62
71,206,96,143,563,679,94,58
77,198,95,131,456,668,91,63
86,222,114,280,488,660,115,64
92,262,123,308,397,665,124,69
94,296,132,306,492,635,125,69
92,274,126,308,460,656,123,64
78,276,131,329,476,660,132,56
67,262,117,239,428,681,99,54
56,218,110,213,441,693,91,52
60,205,120,219,415,692,91,55
56,182,113,218,431,718,91,54
60,231,139,255,497,727,92,57
64,227,140,249,496,685,96,55
59,222,134,235,564,648,90,52
69,193,115,229,547,664,86,51
66,203,115,231,569,618,82,48
63,151,78,163,512,586,69,44
68,163,83,151,511,613,63,43
75,176,87,168,451,605,74,53
64,188,93,169,410,581,88,56
67,215,99,170,433,594,95,58
76,218,96,163,451,601,94,62
75,215,83,166,500,563,109,68
73,216,90,169,485,571,107,61
72,215,96,210,528,577,101,54
74,215,86,218,481,604,101,60
75,217,91,235,458,600,102,63
80,255,95,227,439,613,95,70
78,275,97,226,437,642,90,73
88,297,97,192,373,638,83,76
84,280,98,196,337,597,86,77
81,280,99,183,343,637,95,73
74,262,98,182,304,642,84,58
76,240,93,164,291,627,81,50
70,200,83,176,329,720,86,51
72,239,92,169,318,754,79,51
78,261,91,169,294,709,78,60
81,237,89,162,277,699,80,62
82,234,83,165,306,683,81,64
83,234,81,150,256,561,76,64
86,195,75,126,245,483,71,64
77,153,70,114,270,471,64,58
76,164,79,131,297,480,70,57
72,169,86,140,278,471,68,58
67,173,87,157,286,475,71,54
59,180,95,162,282,535,72,51
62,183,97,169,320,590,71,48
58,188,92,164,307,572,61,50
58,192,88,160,346,571,60,48
60,213,93,147,352,586,58,48
67,207,82,147,427,553,66,44
69,227,84,140,389,497,75,48
83,271,83,130,378,474,74,59
87,266,79,123,324,463,80,61
92,249,72,123,345,461,94,65
89,242,70,137,246,440,96,73
83,228,72,154,299,436,96,69
76,172,71,160,295,490,100,66
73,221,89,174,307,529,108,68
67,228,95,183,273,505,104,64
66,249,99,169,278,520,98,56
69,256,98,153,193,541,94,56
78,246,95,144,187,493,92,54
94,270,98,131,238,446,91,61
93,269,91,96,391,457,81,63
97,257,110,246,470,428,121,74
111,280,130,270,533,383,128,80
104,278,137,309,567,403,137,73
88,264,142,324,597,434,129,69
90,264,143,331,561,438,131,80
97,293,144,327,537,463,107,76
97,294,145,367,577,510,108,76
94,304,149,374,598,595,104,78
95,259,134,369,606,627,109,77
104,252,135,367,568,636,107,68
108,213,117,297,544,659,96,68
97,256,98,225,463,632,85,59
101,273,91,161,394,551,77,61
111,293,98,164,307,527,74,63
110,295,98,163,301,540,79,59
97,305,101,162,282,514,81,59
92,266,101,158,235,531,81,59
87,244,95,158,331,620,78,56
80,228,91,174,343,620,81,49
69,242,91,180,355,623,91,54
67,219,84,197,356,636,99,47
69,217,77,194,363,627,94,48
74,229,75,193,296,570,92,53
64,239,88,155,317,580,88,53
66,222,84,145,295,554,77,54
66,234,89,143,293,548,63,51
65,217,88,152,285,605,80,51
58,199,92,149,269,635,88,49
65,199,81,167,223,668,93,64
63,198,83,176,251,737,89,63
72,206,86,165,262,758,93,69
70,197,90,171,278,795,81,68
78,196,85,191,292,804,79,80
72,188,86,195,304,776,76,69
71,225,89,189,291,739,78,75
70,207,78,177,309,752,71,75
69,257,94,192,313,666,86,79
71,324,104,176,334,672,89,68
71,323,100,190,342,698,97,66
75,315,104,219,382,728,113,60
83,325,111,238,365,748,125,61
91,345,106,252,399,819,126,57
83,305,100,253,384,823,124,56
91,297,106,244,391,855,121,59
88,278,106,228,363,894,110,65
77,311,107,216,363,870,97,64
74,262,102,197,380,857,88,72
79,266,104,193,363,853,92,80
83,279,102,171,326,841,83,79
81,294,97,159,306,797,76,70
84,256,98,156,283,794,79,68
88,232,95,130,165,805,84,59
92,204,95,128,216,811,73,52
93,188,91,144,230,788,73,56
93,184,103,162,234,809,78,68
89,169,94,172,244,834,75,66
85,198,100,166,239,819,65,67
74,191,99,169,192,787,67,65
66,220,108,190,203,808,78,63
76,200,100,190,224,791,81,63
76,202,98,180,212,758,80,61
79,181,92,200,230,751,88,58
104,217,103,202,247,768,87,65
102,188,89,174,253,756,83,59
94,235,86,179,290,741,91,57
105,242,87,175,299,760,100,74
102,233,93,218,319,781,112,76
87,291,80,214,349,799,118,71
84,288,83,217,327,788,120,75
87,255,88,231,375,791,124,68
80,273,93,237,397,783,118,56
81,284,85,179,379,737,104,55
70,195,82,187,370,694,107,55
78,195,83,210,411,689,109,55
78,259,96,218,333,713,99,58
88,271,108,240,347,701,103,70
90,270,109,252,353,715,101,69
106,285,118,249,337,726,90,72
104,281,116,234,313,731,88,75
112,238,99,205,322,695,84,78
105,209,85,179,303,716,83,75
102,207,82,160,335,722,91,77
90,183,71,165,344,733,96,75
88,184,72,158,354,721,88,68
93,251,86,144,336,714,85,64
81,238,81,136,348,689,79,49
83,279,99,182,333,673,96,58
96,298,102,184,343,646,94,66
96,300,108,215,363,663,108,67
91,286,124,220,360,685,109,70
95,285,123,217,333,703,109,71
117,257,122,238,330,728,110,96
116,242,122,253,300,753,112,92
113,238,116,234,245,745,103,91
105,206,90,240,274,750,105,94
122,245,104,248,355,734,110,104
101,223,84,197,335,709,87,74
103,255,87,185,416,693,85,76
105,261,87,172,437,677,79,76
104,231,86,165,465,677,77,70
108,226,97,217,444,681,88,74
111,244,100,215,519,703,89,76
96,188,92,200,463,722,86,69
96,187,94,219,494,734,90,70
106,279,99,244,523,758,99,76
83,294,84,206,590,791,88,57
81,322,93,210,527,799,96,57
87,351,106,221,551,791,100,70
86,353,108,225,514,799,99,72
75,301,103,213,467,774,90,65
71,270,102,219,385,756,90,66
62,230,94,219,418,754,80,64
53,196,79,206,416,770,75,58
65,202,80,182,408,782,77,62
71,222,86,146,388,767,76,64
80,251,80,124,341,740,83,69
83,274,97,137,326,720,107,71
86,295,108,146,304,693,106,67
80,298,104,158,323,674,111,67
73,283,100,167,320,668,109,64
65,274,105,211,377,718,103,57
70,299,99,206,358,751,81,57
69,276,91,201,341,756,83,53
76,275,91,197,309,745,77,53
77,265,87,193,335,760,75,54
77,244,81,135,260,756,71,53
71,218,79,115,249,731,68,49
68,216,77,116,237,736,64,50
55,213,78,103,241,743,60,45
55,214,86,104,196,709,65,44
52,216,89,110,216,666,71,54
51,174,79,126,246,643,73,56
62,201,87,133,245,606,79,56
68,209,86,138,301,592,83,59
64,265,80,142,313,625,87,56
64,261,73,150,318,670,87,56
70,284,74,141,323,675,85,59
60,276,65,139,363,690,83,65
58,259,61,143,339,697,86,60
65,204,56,138,332,691,80,65
68,222,69,124,306,665,75,62
80,191,87,163,350,649,77,77
83,172,95,179,369,669,80,73
96,195,99,182,344,652,74,80
92,192,100,201,368,624,78,78
92,178,93,205,381,604,91,79
77,185,80,173,317,606,88,59
79,212,74,151,266,558,87,61
64,217,72,147,293,560,85,49
74,233,86,122,272,578,81,50
73,237,87,115,267,616,72,47
71,238,83,134,311,616,72,51
67,230,87,149,310,621,68,55
63,230,85,157,343,638,76,56
64,219,75,151,349,650,77,57
64,211,80,162,364,648,72,60
72,196,77,145,336,664,74,58
70,187,71,132,325,686,71,52
76,200,92,110,273,690,60,52
80,188,91,116,249,683,57,56
81,188,93,112,234,664,63,52
82,202,107,132,218,678,66,50
81,200,111,143,240,693,75,52
81,166,102,155,239,685,77,52
69,184,99,151,249,691,86,49
66,207,106,167,257,675,88,53
56,199,93,156,283,663,88,55
68,201,93,157,308,651,81,53
62,207,88,163,324,642,84,53
60,214,87,178,338,617,79,53
64,201,78,161,330,639,74,57
66,203,81,163,301,631,65,55
57,212,79,152,325,620,67,55
59,206,78,138,366,637,60,57
63,192,79,125,356,666,60,55
60,176,79,143,364,648,57,49
60,178,85,143,395,669,66,48
57,160,87,154,402,651,63,45
57,164,87,165,372,645,66,44
56,167,97,166,374,653,66,45
54,184,94,190,413,649,77,47
54,178,84,198,394,637,72,47
56,195,83,186,337,674,73,48
54,188,80,182,354,660,75,51
55,206,79,187,362,655,69,49
60,192,77,147,309,680,57,49
56,200,87,139,297,652,54,49
54,182,80,166,400,636,58,50
53,211,84,181,424,659,62,47
52,231,100,196,429,634,68,46
51,231,101,203,448,601,73,40
55,234,100,207,469,651,73,43
57,244,109,201,395,642,76,46
60,258,113,183,345,608,74,46
59,247,98,173,341,618,76,43
55,249,98,182,367,628,72,44
60,244,88,188,354,586,80,47
63,237,77,173,433,607,77,47
63,232,79,206,431,603,76,55
64,222,73,198,435,592,74,55
65,219,73,203,404,614,75,55
65,226,80,192,425,597,69,61
83,289,98,198,390,620,76,76
82,267,99,212,506,630,81,72
78,265,104,240,523,619,83,73
82,270,122,320,626,605,87,78
83,287,169,488,701,621,106,77
63,236,184,561,741,568,117,69
64,238,180,546,692,574,116,73
67,238,178,533,673,575,113,76
64,271,171,512,616,557,118,74
57,257,129,381,572,557,108,68
61,250,95,263,509,548,90,65
66,252,91,270,488,621,86,63
73,256,88,267,531,683,88,60
81,213,83,245,525,715,89,64
90,224,87,235,531,690,89,67
85,240,87,236,515,689,97,62
79,233,91,242,507,603,102,57
73,202,89,251,474,511,102,54
62,210,86,230,481,449,100,46
53,176,71,214,442,457,98,40
54,155,82,253,433,500,95,40
53,162,78,242,463,487,87,40
54,210,79,233,462,498,89,37
56,203,77,222,396,522,78,40
49,206,82,209,358,532,74,41
47,201,70,214,424,524,78,41
45,191,78,226,391,523,81,41
56,159,101,266,443,540,81,48
61,198,127,289,433,515,92,49
62,217,138,285,468,504,93,47
63,218,138,242,428,453,83,47
63,270,142,232,423,441,85,49
61,311,135,192,360,444,93,47
56,323,129,162,397,454,82,44
64,324,128,229,510,459,90,60
67,340,133,253,598,499,91,64
77,324,143,277,622,524,96,73
70,278,142,281,622,503,87,73
71,245,141,347,633,533,104,78
70,277,150,317,543,549,101,72
70,260,154,309,429,505,98,67
64,261,145,290,424,473,93,60
67,264,147,297,479,459,93,60
77,271,137,206,541,410,71,55
74,234,138,213,531,375,70,51
73,254,133,212,586,375,74,52
79,242,126,209,576,417,81,56
84,243,116,206,543,463,95,60
90,293,125,220,483,491,96,68
99,310,122,244,468,502,96,71
100,307,134,274,419,554,102,72
101,302,137,275,464,554,94,70
95,305,139,259,468,526,83,70
84,242,131,255,449,561,97,68
97,215,119,220,538,623,103,73
126,204,108,172,569,614,99,89
126,190,107,162,589,608,104,92
126,177,106,170,572,645,105,92
131,210,125,206,600,603,98,92
119,237,135,301,596,593,99,87
98,225,130,325,595,635,98,78
96,227,132,342,583,632,96,82
96,239,144,351,672,603,96,84
98,247,147,377,741,634,112,92
97,227,135,328,681,591,109,90
98,226,140,318,666,530,109,87
114,226,140,318,628,557,109,85
116,221,126,305,538,555,110,82
112,212,100,270,499,604,102,82
110,197,94,263,509,665,98,87
99,193,91,270,533,683,99,84
79,196,84,273,542,775,102,74
76,195,82,280,545,822,101,77
76,177,110,290,535,782,93,66
76,178,139,354,549,771,112,63
77,188,143,360,494,792,118,66
76,176,142,353,513,702,115,70
75,241,153,360,550,673,121,67
70,245,149,359,484,659,121,66
85,253,138,394,491,652,118,78
83,261,151,416,513,654,118,76
84,290,156,413,501,672,124,75
100,244,172,518,629,710,139,93
105,258,179,547,642,765,144,101
105,270,176,524,773,760,144,101
109,264,161,505,802,766,144,110
111,242,159,540,828,791,153,111
99,240,135,430,712,796,135,103
96,220,112,382,703,769,125,98
82,192,102,332,523,787,107,85
87,195,112,349,475,817,109,82
91,186,109,293,423,809,91,78
89,176,113,362,411,791,98,71
100,173,113,350,391,802,106,67
105,208,125,348,403,806,106,70
111,200,122,334,447,770,104,67
114,243,135,335,462,779,107,76
118,257,136,284,489,796,100,77
107,247,143,308,499,787,103,85
109,234,144,320,480,767,109,96
93,237,164,361,490,755,118,95
87,193,156,358,457,721,115,88
80,210,166,383,434,692,122,85
76,234,178,427,512,696,129,75
75,227,176,479,609,703,139,75
78,239,160,430,588,731,123,72
78,245,162,443,621,789,122,80
84,237,150,405,617,821,112,89
86,209,123,340,572,841,99,92
81,213,112,224,492,881,83,86
78,194,105,217,453,879,84,85
73,202,104,213,430,835,85,77
70,181,106,241,479,792,99,74
77,191,115,296,541,782,106,80
94,198,111,299,532,719,101,95
100,201,123,331,527,682,112,95
96,187,120,329,500,670,114,96
95,202,125,323,470,710,104,92
97,212,126,299,373,707,102,93
79,197,128,293,382,712,101,74
74,217,123,258,381,744,90,72
83,237,126,269,419,769,88,73
81,226,130,319,474,740,97,73
78,212,146,307,473,720,90,65
77,213,145,300,464,706,92,60
76,208,142,320,486,688,90,64
79,209,157,323,479,668,93,68
89,209,150,261,458,664,87,79
83,223,132,244,521,692,83,75
88,226,136,254,568,695,91,79
94,216,140,241,571,721,94,81
95,205,140,221,549,731,88,75
89,216,140,214,501,751,81,65
94,204,136,214,435,745,84,65
93,228,161,280,434,762,84,66
86,225,159,301,422,743,86,64
89,212,145,299,425,718,86,75
86,231,149,304,430,692,99,80
84,223,147,336,442,691,107,84
89,285,157,300,415,677,103,88
98,353,171,297,392,676,102,88
85,356,170,303,461,695,112,77
91,376,171,304,503,717,103,70
105,382,173,294,522,708,99,75
102,401,151,267,499,729,91,65
90,357,136,243,518,735,89,62
90,363,131,221,468,745,77,61
90,318,123,225,404,754,83,67
72,338,132,197,396,742,81,55
67,245,112,202,378,756,88,55
70,231,111,220,360,728,89,54
81,221,118,245,409,743,91,63
77,220,115,234,422,730,88,58
82,188,113,263,416,726,87,65
79,171,124,282,453,692,92,70
100,177,119,263,477,710,90,76
99,169,119,272,484,701,90,75
97,165,124,279,497,697,91,76
95,161,112,259,471,701,86,72
105,180,113,233,433,715,76,84
101,161,118,243,439,712,78,88
95,214,120,233,380,711,74,84
101,238,123,229,380,705,72,85
98,259,142,225,481,717,85,84
93,274,147,224,490,768,82,76
79,290,145,219,517,774,82,66
77,267,156,253,517,743,88,64
86,255,162,270,548,733,96,69
94,236,167,272,471,705,91,79
93,259,169,278,552,617,101,73
96,275,174,301,586,579,109,80
99,267,155,250,591,570,107,82
90,278,150,226,571,548,102,82
84,271,125,211,596,538,97,72
79,219,109,213,551,514,92,68
70,175,119,173,479,595,78,63
69,183,141,225,470,637,77,66
74,178,147,275,499,679,78,66
73,185,171,334,486,704,84,63
76,183,181,373,491,745,81,64
77,178,168,372,505,694,84,63
75,181,157,350,543,663,92,59
71,179,152,318,530,635,97,55
76,206,139,262,500,618,90,58
83,239,134,227,472,605,101,78
86,239,132,228,473,610,97,77
83,235,136,220,444,629,85,78
85,245,131,204,512,647,71,78
85,246,134,208,502,653,78,79
75,223,145,289,553,646,89,64
75,219,149,310,532,636,98,67
76,233,148,304,545,609,99,69
77,213,147,305,512,612,102,65
72,188,140,351,532,603,110,62
72,183,123,264,544,594,95,60
79,193,125,248,538,597,89,55
83,172,118,256,506,607,90,57
74,174,117,264,433,580,87,53
75,168,110,185,402,618,70,57
78,173,112,189,329,646,71,56
74,162,111,180,323,639,71,61
69,149,115,185,316,666,84,55
71,145,116,177,286,681,89,56
62,140,119,185,307,652,92,50
65,133,121,216,290,641,94,53
69,137,123,222,288,651,91,52
78,153,117,214,293,615,75,54
83,165,125,213,332,611,73,58
89,193,129,201,323,618,66,56
92,203,135,254,384,603,89,66
100,233,169,355,452,599,114,84
104,243,173,375,477,594,123,91
99,243,189,479,519,593,150,90
102,270,194,486,557,623,156,93
109,266,185,467,573,617,152,101
106,249,167,403,571,619,142,86
95,232,167,396,562,645,141,79
96,244,142,270,527,622,111,79
99,194,133,253,510,611,107,87
142,195,130,200,452,671,88,69
143,187,115,177,421,668,80,66
153,205,127,189,422,667,69,67
158,173,122,180,397,719,73,77
158,178,125,204,421,701,72,66
108,194,138,212,393,649,70,66
96,199,150,274,393,667,81,66
94,190,152,285,392,652,92,77
93,194,153,303,416,616,98,68
88,186,154,317,366,641,110,68
89,156,142,338,369,649,117,66
100,208,147,323,358,620,121,70
89,198,130,302,332,638,118,56
119,294,187,392,471,605,133,73
118,296,184,405,484,583,129,72
119,310,186,384,474,595,122,76
132,291,198,418,486,595,128,92
130,289,198,415,484,600,125,93
106,254,185,418,411,648,128,84
106,255,202,454,433,638,138,90
141,290,225,474,447,645,145,97
123,271,205,444,408,663,135,79
125,281,207,454,453,652,138,82
120,269,186,369,374,637,119,85
120,262,166,296,321,636,98,78
90,217,152,328,374,606,108,72
92,222,143,315,382,595,106,70
97,246,145,314,342,569,106,79
93,212,132,321,359,577,103,69
88,217,132,317,355,591,105,69
77,342,146,294,320,590,101,67
91,352,151,279,287,590,97,79
87,333,148,284,297,626,100,68
89,352,154,309,306,629,103,66
90,351,151,305,326,625,101,64
91,230,123,289,293,712,94,65
96,258,132,301,314,761,100,63
92,248,127,281,344,751,99,61
87,222,126,249,355,743,99,60
107,294,145,245,336,724,102,88
105,296,146,269,355,623,106,87
85,261,161,267,346,523,98,75
87,267,162,259,284,485,91,78
89,272,156,253,283,436,89,80
86,252,156,257,284,428,87,62
88,264,147,205,285,431,81,63
93,272,124,203,290,476,90,68
96,270,129,200,302,509,91,68
99,261,122,175,248,529,85,70
88,211,104,155,243,526,80,66
81,179,103,151,205,534,76,60
87,208,92,119,229,509,63,60
87,214,96,124,242,465,66,61
88,220,105,135,247,446,68,61
87,217,115,164,281,422,72,56
98,248,129,187,316,399,70,64
89,204,125,185,307,401,72,68
82,210,122,197,284,413,67,65
83,250,142,224,320,431,69,62
75,250,130,213,358,473,70,59
85,319,121,201,355,500,73,64
89,334,124,202,349,515,72,54
97,345,129,240,387,535,82,56
113,391,110,219,365,534,80,61
116,387,107,213,301,497,74,60
101,342,142,242,296,505,83,49
98,329,145,258,280,473,94,62
95,312,144,276,289,446,111,61
84,240,160,324,307,443,119,57
86,238,162,328,306,462,121,64
83,196,139,330,303,454,120,63
86,200,138,324,312,499,113,60
87,195,131,280,560,512,93,60
70,133,104,266,707,523,98,56
65,150,125,269,749,560,96,50
76,148,111,235,761,560,92,70
74,158,111,230,781,527,88,69
81,180,123,219,622,556,80,71
91,184,122,158,449,564,58,81
90,214,124,231,518,546,68,81
82,236,155,315,713,585,79,66
79,230,158,364,731,593,95,68
83,246,168,439,799,578,105,81
76,263,167,446,848,565,108,74
75,264,169,429,785,557,102,73
76,244,156,381,592,547,87,72
82,255,155,347,558,576,76,72
64,228,131,247,468,552,77,53
61,204,130,230,352,564,73,53
62,197,148,200,335,592,75,52
72,193,133,180,337,548,76,55
65,181,150,232,457,534,84,50
71,186,173,273,460,639,84,58
75,185,174,273,496,654,87,58
110,154,142,278,520,675,89,77
106,146,142,274,521,745,90,76
104,128,124,229,434,770,79,73
104,123,94,189,386,749,68,69
107,118,93,211,393,748,74,72
77,128,87,190,352,720,75,59
75,135,88,206,346,684,83,62
76,146,92,209,296,688,82,61
79,158,90,199,316,634,77,60
73,160,88,171,248,632,68,54
67,159,89,174,271,633,59,58
72,152,83,160,319,630,49,57
71,152,71,138,387,640,51,58
63,192,110,197,405,682,52,60
74,197,119,245,457,722,58,68
81,203,131,292,492,769,62,59
73,205,134,305,501,817,64,56
73,223,138,316,456,825,63,58
73,191,116,297,456,838,69,59
69,205,113,276,430,820,69,59
66,186,99,245,373,828,66,59
66,190,97,235,354,800,63,60
93,194,110,262,435,791,66,77
97,180,108,256,427,795,61,74
93,174,115,294,481,788,65,69
87,202,127,297,485,756,66,66
88,198,126,302,512,787,70,70
68,177,121,284,528,809,68,52
111,198,125,285,533,787,72,73
117,187,118,231,480,795,65,73
119,154,109,216,473,785,66,75
124,190,116,229,443,755,68,71
130,191,105,206,364,718,68,75
99,173,96,197,351,695,60,61
97,183,98,210,347,688,60,73
96,182,90,200,357,707,58,74
92,192,101,181,328,716,55,72
74,177,103,195,312,751,54,63
82,181,110,188,316,838,56,78
82,173,107,189,313,849,64,70
80,171,115,204,348,862,73,68
103,160,123,219,352,857,74,91
108,164,119,216,396,841,75,97
92,198,112,213,388,774,73,80
94,202,117,215,366,744,69,81
95,211,113,208,331,698,61,85
73,213,101,186,329,676,59,67
73,231,109,196,303,629,68,62
73,210,118,216,322,615,69,63
93,233,124,205,365,633,65,67
96,231,128,215,355,652,62,62
94,236,129,246,406,681,67,59
89,225,133,253,410,715,59,56
88,213,125,251,390,732,60,57
61,193,123,270,362,723,63,49
62,199,115,251,369,729,61,49
66,165,115,247,340,711,59,49
71,199,122,231,315,700,59,54
70,227,124,217,296,702,64,55
77,227,111,200,289,705,64,60
75,223,115,206,313,695,67,62
68,224,121,165,273,701,59,58
65,198,102,156,253,694,59,56
66,161,107,184,256,667,53,53
58,162,113,181,251,673,53,47
51,154,116,200,205,663,53,41
52,153,100,200,190,642,52,42
51,145,104,212,209,633,49,41
53,159,100,231,253,602,55,45
56,196,108,257,322,629,57,43
60,204,113,250,334,650,57,45
57,212,125,267,341,717,57,45
59,224,133,280,377,745,61,46
56,226,132,251,365,779,59,43
54,199,133,282,394,771,82,49
81,196,129,313,460,780,89,65
83,199,131,324,484,749,91,64
82,195,129,350,574,760,96,67
90,212,132,354,589,781,98,79
93,217,133,330,587,760,78,80
82,281,211,506,656,724,114,82
93,299,277,770,802,740,144,109
101,322,311,904,879,737,170,121
109,322,338,989,997,691,198,123
107,326,341,1021,1010,678,205,122
99,296,302,946,943,692,192,115
88,277,240,765,825,634,179,94
81,241,190,579,721,666,152,83
62,241,143,431,574,720,117,72
62,231,133,359,501,762,112,72
69,203,130,348,520,778,99,71
67,196,118,318,566,785,91,64
66,220,142,356,509,725,93,59
74,224,142,353,489,696,93,64
71,218,134,319,501,667,83,60
67,220,134,302,471,658,80,61
68,239,162,285,422,667,77,65
68,229,153,284,475,695,88,67
56,212,145,270,446,692,85,58
56,219,159,304,431,692,80,60
74,237,166,317,430,699,84,67
78,241,143,296,393,705,79,63
79,274,141,246,266,696,62,58
81,276,151,264,292,692,66,59
81,269,138,233,287,672,69,58
65,278,139,256,336,665,74,50
59,291,144,262,354,650,79,53
53,252,136,277,366,629,86,50
64,253,128,262,353,618,86,52
64,276,139,276,382,634,85,52
65,260,135,249,371,633,81,51
65,231,131,269,367,630,81,47
71,254,136,255,361,642,70,48
61,245,136,267,391,662,67,48
64,225,126,244,363,662,70,51
61,237,114,234,368,667,75,49
63,228,128,283,435,672,78,53
70,197,123,287,483,659,81,59
70,187,116,297,488,660,88,56
74,182,117,300,514,640,88,62
73,160,122,302,550,614,90,60
71,164,105,231,494,608,82,60
67,165,106,230,482,601,91,58
67,162,103,191,536,571,86,59
61,190,122,249,541,584,99,53
66,188,112,253,480,575,99,57
83,195,108,262,493,560,101,62
77,203,107,257,474,615,97,59
81,205,108,256,377,639,91,60
81,174,88,236,420,633,77,57
80,190,115,247,476,669,70,59
70,179,111,239,506,678,64,55
74,199,115,228,491,644,58,54
66,199,116,224,497,646,61,54
68,198,114,214,434,655,65,62
68,208,97,192,372,629,65,59
75,210,108,215,301,624,66,60
70,187,95,218,286,608,63,58
73,222,105,230,340,567,69,54
68,242,123,228,376,546,64,43
79,212,115,221,357,518,64,58
68,203,110,198,355,544,65,62
75,210,127,231,373,558,87,67
74,170,142,252,295,575,86,69
80,144,132,227,241,569,84,75
73,163,144,236,259,634,84,66
75,177,149,233,283,625,84,64
68,186,146,219,300,621,62,59
70,193,125,185,304,682,67,59
75,220,120,193,315,709,69,56
75,214,114,183,298,670,67,57
72,254,111,197,272,691,64,54
72,244,106,187,247,700,67,56
70,255,107,190,240,634,55,54
59,236,112,184,240,635,53,52
58,237,105,191,263,635,50,47
63,196,105,188,276,635,59,48
68,192,100,191,313,636,59,48
69,178,96,188,322,654,62,49
84,173,98,202,318,652,61,63
80,175,115,211,313,668,61,62
72,158,106,210,315,646,58,59
76,166,106,219,311,636,74,63
80,180,110,215,306,674,71,64
65,174,103,214,298,670,73,49
64,155,82,198,287,657,73,49
67,189,106,225,303,663,73,55
62,189,115,224,276,667,56,49
73,186,107,218,272,636,58,52
77,192,111,202,260,638,60,56
84,214,115,209,272,652,64,62
79,186,95,164,239,651,59,56
91,195,91,130,251,649,57,62
77,190,88,124,244,645,57,60
73,193,85,139,251,649,56,56
66,206,107,150,322,621,53,48
70,205,114,181,334,598,53,50
55,194,114,198,312,608,53,45
73,201,133,218,331,579,57,60
72,206,130,228,361,544,61,61
77,185,117,259,385,561,74,68
73,200,128,306,458,570,75,71
73,193,131,367,542,545,85,79
78,224,201,607,599,576,103,88
101,232,229,661,620,634,103,95
101,218,229,655,625,723,102,91
108,207,223,635,618,751,100,93
119,246,233,634,603,773,101,101
109,201,166,430,611,760,86,90
88,182,124,356,605,709,83,83
90,206,124,356,577,615,75,85
87,204,130,380,539,548,81,79
67,176,138,386,546,493,90,60
61,187,141,366,511,472,91,52
69,192,142,356,535,463,89,48
75,207,143,370,555,435,91,45
71,208,133,357,598,446,100,49
72,207,102,288,553,458,85,50
77,207,99,278,512,519,79,53
70,201,101,260,469,532,76,54
58,173,96,214,406,521,73,51
62,189,96,171,324,524,51,57
63,181,121,213,306,573,54,56
63,181,127,222,293,507,54,58
66,190,131,227,278,496,56,58
67,211,144,231,270,512,60,63
65,193,143,230,241,519,65,53
65,203,126,188,214,470,59,55
68,186,125,207,238,504,64,55
65,177,129,227,224,517,73,52
57,157,117,228,242,533,72,46
60,171,152,294,315,533,75,52
57,159,154,323,330,518,83,49
59,189,159,300,325,518,77,45
70,188,151,299,345,508,71,56
71,193,150,298,329,480,69,57
68,181,113,229,281,485,61,52
72,186,115,182,272,502,49,55
62,154,99,181,277,475,52,53
54,159,94,144,248,515,48,43
54,150,81,126,273,527,46,42
50,143,81,127,250,535,45,42
77,141,65,126,230,600,45,53
81,149,72,156,235,612,49,53
77,138,82,147,216,569,52,52
78,136,82,148,187,609,54,53
81,148,90,150,189,601,52,53
57,126,83,159,209,525,57,39
50,155,81,134,194,528,49,35
56,164,82,151,194,538,49,41
55,160,84,149,208,531,50,41
58,158,78,149,226,529,52,47
53,170,84,124,205,539,45,47
62,147,88,149,191,528,45,51
61,152,84,140,198,585,41,49
61,146,79,142,181,548,42,51
57,140,80,141,169,549,41,45
64,201,89,145,164,591,43,50
54,218,83,113,169,613,46,44
48,214,86,105,228,561,44,42
52,215,98,102,233,581,43,42
51,239,104,103,226,588,43,44
46,197,99,104,243,562,40,37
48,174,102,123,264,547,41,40
52,183,109,129,220,577,44,41
57,182,101,147,239,630,46,46
55,157,108,156,255,656,49,50
53,140,105,172,268,674,52,50
52,157,109,177,241,721,57,48
49,148,102,184,233,727,59,49
43,165,106,179,219,678,56,42
47,161,91,173,216,642,57,38
53,160,85,155,189,639,54,40
55,145,77,140,237,624,53,39
62,151,85,143,237,623,54,45
64,129,82,133,246,682,54,46
65,149,91,126,236,734,54,45
72,159,104,160,256,754,61,50
70,174,104,156,236,746,57,51
63,203,101,152,250,803,53,44
69,212,101,165,248,813,58,49
69,209,102,177,244,829,56,49
60,205,91,187,241,850,57,41
61,209,94,207,233,876,58,43
66,181,86,206,202,836,65,46
62,210,89,205,174,815,62,39
59,197,84,199,187,789,63,39
60,223,89,163,179,761,55,37
62,212,84,135,159,767,54,39
58,207,83,124,162,775,41,39
52,172,82,111,169,781,41,40
56,179,89,102,159,817,40,40
58,163,90,112,169,827,43,43
58,161,96,118,177,789,44,42
65,182,104,122,193,789,47,41
65,181,107,122,204,761,47,39
62,192,102,121,217,710,45,41
57,201,103,114,207,732,41,38
54,201,105,111,205,736,36,36
59,179,98,102,184,752,38,42
63,179,98,106,187,796,34,50
62,163,95,114,170,824,36,48
59,152,92,108,185,824,45,50
59,152,92,100,197,870,46,51
57,152,102,108,226,870,47,47
55,158,98,104,225,841,52,43
59,170,106,121,235,798,53,45
60,162,110,135,216,750,48,45
61,156,109,153,264,703,52,47
59,183,115,185,349,665,56,46
62,191,124,197,367,643,58,46
60,175,115,186,383,656,57,43
64,177,113,182,397,676,60,43
62,199,109,181,371,668,56,40
58,174,101,149,326,687,51,42
52,164,90,136,309,727,46,40
57,179,100,152,296,755,53,43
63,165,97,148,278,754,53,43
62,149,123,153,268,748,51,45
59,160,117,153,262,740,55,48
60,179,123,194,353,704,64,48
56,172,122,194,406,685,65,51
46,176,128,245,486,674,87,50
43,173,108,269,496,679,101,49
43,161,112,282,488,684,104,41
44,158,105,256,427,707,101,41
45,152,103,257,392,712,98,35
42,165,106,212,306,716,81,34
48,218,110,172,297,728,67,37
51,226,117,162,281,723,63,44
51,224,122,188,272,690,64,45
62,233,131,174,257,687,67,60
69,235,127,183,252,668,63,63
72,183,120,198,245,647,66,67
82,198,112,195,294,641,65,67
87,189,104,165,299,655,62,70
77,177,89,179,390,653,62,59
81,163,88,189,412,678,71,64
84,177,86,172,444,707,74,60
82,156,91,165,422,733,73,62
76,151,93,184,448,767,77,56
78,191,93,174,383,775,79,55
69,197,86,145,358,757,73,46
62,196,93,162,341,758,73,46
53,200,88,168,330,724,74,40
53,196,86,162,315,671,68,42
50,180,92,163,322,647,65,45
53,194,102,173,323,680,64,47
50,187,95,152,296,658,58,43
61,183,92,147,292,663,55,50
63,192,93,147,264,679,56,57
62,178,97,179,264,699,61,58
60,154,81,168,245,683,61,56
63,151,84,194,257,702,60,57
49,156,91,195,257,708,60,51
49,151,89,194,259,728,59,48
50,141,76,159,229,716,54,45
51,160,102,173,270,696,50,47
51,161,105,174,284,698,54,45
55,149,99,184,289,699,57,49
54,146,100,177,288,683,54,43
56,162,105,187,289,698,55,49
56,149,99,179,255,707,57,48
52,143,94,147,229,688,51,49
50,141,94,129,210,687,48,43
52,144,95,144,197,676,50,49
56,122,91,158,226,687,50,39
56,114,80,181,228,678,50,37
68,109,77,193,240,689,49,49
73,125,79,194,237,694,50,50
69,122,75,180,239,693,53,43
69,130,70,157,187,668,51,52
69,122,57,126,169,671,54,52
56,145,66,108,124,646,53,45
50,131,61,105,126,638,56,46
51,130,88,173,198,626,74,48
54,135,96,184,190,620,81,48
54,137,97,186,190,631,82,48
55,128,112,225,210,638,92,44
54,133,113,226,203,631,92,43
52,132,97,185,182,646,78,42
40,123,93,190,192,634,76,33
38,128,92,184,199,616,73,32
34,132,74,132,225,618,60,33
30,130,76,129,227,606,56,30
30,132,72,120,193,591,54,29
30,147,69,114,196,595,50,28
35,162,76,129,190,594,53,32
48,156,68,125,125,580,53,36
50,156,71,150,162,604,60,37
66,161,78,154,166,623,61,39
76,159,83,136,162,624,59,42
78,150,82,128,189,634,55,46
73,158,93,142,197,643,55,43
73,157,91,114,176,620,45,44
64,153,90,108,190,610,45,46
66,160,93,103,212,612,40,53
68,220,122,110,191,602,42,52
68,220,118,91,217,609,39,52
68,224,122,104,267,608,43,55
66,225,118,105,281,607,42,55
51,213,111,107,266,611,42,48
42,173,84,101,267,613,40,43
39,172,80,103,249,595,40,42
40,163,73,100,222,609,41,40
38,167,74,109,190,613,45,42
38,172,87,119,201,598,46,37
38,141,76,110,196,624,49,38
39,123,76,119,203,638,59,40
43,134,80,119,199,620,65,42
55,171,84,118,209,630,62,37
57,159,73,113,235,643,64,40
59,157,73,113,241,654,65,43
61,161,74,106,239,672,60,45
59,167,79,95,221,700,54,46
52,135,88,95,218,717,53,45
50,135,84,97,166,747,49,46
50,138,85,108,171,732,49,43
46,141,86,104,167,721,44,38
45,145,80,103,156,712,42,32
54,146,77,108,159,682,45,41
67,162,79,108,158,638,45,44
65,171,78,109,152,616,45,47
72,174,80,114,155,603,47,52
70,169,87,124,216,592,46,53
68,181,82,173,295,597,57,52
59,208,102,184,329,603,59,52
60,223,110,219,383,604,63,50
61,260,137,236,399,602,61,53
63,255,136,260,389,611,76,57
56,241,137,229,367,615,71,55
57,224,129,242,355,635,72,55
61,214,137,243,393,634,81,60
57,166,116,244,515,647,87,57
59,212,122,252,558,644,86,55
78,217,118,270,538,629,87,61
82,226,126,261,550,603,85,61
82,223,114,238,594,599,86,55
85,235,115,235,500,574,85,61
85,219,111,198,481,539,78,65
71,215,113,190,497,521,75,59
67,193,99,176,484,495,76,57
75,191,105,167,351,464,65,70
70,165,91,150,323,525,60,65
69,128,87,160,278,559,60,63
76,144,106,171,286,614,66,67
79,150,113,174,274,676,69,71
70,135,103,166,273,715,66,58
74,142,126,176,266,692,70,62
83,161,121,168,266,775,70,60
79,149,105,145,228,769,67,62
77,162,104,155,219,729,70,58
78,165,105,157,213,718,67,60
75,177,96,150,209,692,63,60
71,172,97,178,289,565,68,70
68,196,114,232,340,505,73,66
63,219,119,306,429,473,86,70
61,235,124,321,453,463,92,67
67,247,121,336,480,469,95,69
63,249,118,326,444,467,94,63
61,243,109,310,484,513,91,61
62,215,119,304,448,541,78,57
73,211,120,309,435,515,78,66
70,185,117,312,429,490,76,64
64,182,124,309,417,493,76,57
64,197,124,331,405,455,83,62
66,200,107,282,393,439,80,62
66,190,103,269,430,449,75,63
61,201,109,248,431,467,72,58
65,201,106,250,424,473,65,62
67,206,110,216,462,474,60,62
65,213,124,262,519,494,67,67
59,242,126,308,538,551,76,61
60,232,123,343,552,567,82,62
61,226,126,348,620,654,89,62
64,194,117,346,589,900,93,54
77,196,107,313,540,914,87,58
75,183,128,357,505,878,92,57
82,198,135,396,543,873,105,65
81,205,141,401,516,818,105,66
90,227,156,408,510,520,96,70
79,211,157,449,539,483,115,63
80,196,151,415,564,541,114,65
78,181,137,351,500,532,97,61
79,195,134,346,469,542,95,62
66,171,132,364,452,563,100,61
69,178,129,307,420,587,82,63
67,173,122,266,363,554,75,63
66,200,130,262,356,564,75,61
70,176,128,276,367,537,72,65
71,195,135,290,380,535,78,68
66,190,130,299,456,492,75,62
67,201,130,293,488,468,71,61
73,168,126,287,514,469,70,68
64,179,138,283,524,458,71,62
72,162,123,243,501,474,72,75
77,183,130,254,446,520,70,78
88,165,123,286,479,547,77,82
97,219,135,315,499,548,81,83
103,220,134,356,505,595,92,89
105,215,144,385,550,574,92,81
109,214,139,361,568,541,93,79
100,232,143,360,535,548,89,80
86,181,130,347,550,543,92,70
83,201,130,308,512,541,83,65
75,208,116,285,477,540,78,57
69,210,120,313,508,581,79,60
66,231,128,288,507,595,79,54
64,259,152,334,485,636,80,58
61,255,141,323,504,754,80,59
59,258,141,282,509,809,74,57
53,246,137,261,448,819,78,54
70,240,141,267,420,813,79,71
79,257,144,233,402,780,76,72
87,258,148,243,390,687,85,69
87,252,147,260,348,677,89,71
90,256,149,266,353,662,92,71
84,238,136,264,377,659,93,54
84,197,108,252,371,693,94,54
76,166,95,241,392,680,84,54
82,183,103,275,422,665,92,57
100,195,100,265,400,724,84,65
99,187,97,255,366,764,83,62
90,188,87,224,345,783,81,60
95,194,91,219,362,807,79,60
92,188,76,159,310,808,68,60
70,162,87,257,304,785,79,54
63,158,112,299,375,808,83,55
73,169,131,321,394,795,90,64
67,189,142,340,333,792,91,68
62,179,150,367,406,808,91,63
65,199,160,310,407,811,83,73
64,196,142,267,360,773,80,74
84,190,127,242,335,807,71,68
92,165,118,204,367,819,69,67
98,209,122,202,307,809,72,75
100,199,108,202,313,804,84,63
110,245,131,206,310,802,86,72
94,248,131,229,392,771,86,70
90,255,130,265,397,786,91,67
87,216,119,240,387,784,87,60
87,206,110,234,362,777,72,59
88,201,95,245,373,772,73,62
84,204,107,255,298,774,73,56
84,210,112,259,276,767,67,54
90,218,113,267,355,804,77,64
95,218,114,287,448,816,84,69
87,176,103,284,454,850,80,61
86,178,124,327,554,843,86,62
92,174,134,349,577,806,97,69
83,165,135,352,545,772,90,60
83,171,141,381,514,737,91,62
77,180,153,411,556,672,94,60
83,209,137,372,511,661,90,63
72,208,130,341,502,660,83,59
70,212,131,337,561,640,80,58
70,209,124,288,536,648,76,61
74,205,113,236,493,663,67,63
69,158,102,211,437,662,63,59
73,144,95,192,426,657,58,56
103,139,90,179,330,693,67,60
109,164,99,292,406,695,112,71
105,154,96,305,383,703,119,69
108,201,104,326,465,715,127,70
106,198,104,349,487,716,136,72
84,241,126,353,492,698,132,73
64,227,118,270,479,682,98,51
77,254,131,259,498,676,93,50
92,224,129,246,506,673,85,67
94,240,134,229,612,692,70,72
88,219,129,290,650,695,73,73
91,222,144,418,665,702,77,79
81,201,154,516,725,720,94,89
66,205,164,571,709,723,98,82
59,204,165,593,688,696,113,78
66,190,156,567,655,668,113,77
78,191,162,518,696,665,115,77
78,180,141,417,628,650,104,67
79,187,131,363,581,640,101,74
82,169,125,340,535,673,86,76
81,180,135,375,566,713,95,81
76,174,122,359,564,741,103,90
88,209,136,375,609,757,105,97
82,199,139,379,645,796,110,89
81,207,150,381,620,805,111,84
79,193,139,347,587,789,102,78
72,200,136,323,500,774,85,59
62,166,125,331,504,731,81,51
71,169,126,333,531,690,75,58
75,193,133,357,498,653,80,63
71,200,134,347,498,647,82,63
73,186,133,351,497,633,84,71
70,191,149,433,496,668,94,69
64,182,145,420,442,662,92,69
64,177,140,407,466,665,85,67
67,189,153,444,492,680,93,75
63,204,150,448,524,697,97,73
61,210,147,366,544,686,86,72
68,238,154,388,603,721,96,70
64,229,146,364,657,714,99,69
66,210,127,325,660,708,90,70
73,208,126,294,645,702,83,67
89,231,122,283,578,717,85,79
95,224,120,244,527,755,75,80
99,222,121,247,444,778,72,81
101,223,125,264,437,786,74,73
108,210,130,278,426,785,82,87
103,187,139,307,430,776,97,86
93,172,142,339,550,702,108,84
91,179,140,357,568,679,111,86
100,201,149,346,577,671,114,94
90,208,151,369,586,667,115,82
89,192,135,349,654,684,101,74
85,187,126,313,532,710,94,69
103,210,141,306,525,723,97,91
95,182,131,308,512,698,92,90
95,183,121,266,471,696,86,88
88,203,129,289,379,655,92,84
88,193,121,281,470,631,84,85
80,166,102,259,454,618,76,64
74,165,92,247,431,631,73,57
70,162,101,273,441,622,79,62
76,164,109,241,418,648,68,62
84,163,108,227,308,646,75,69
67,147,117,284,435,627,84,57
69,178,137,323,477,635,96,57
67,185,130,304,484,638,89,55
65,247,126,301,501,620,91,60
57,262,131,311,530,613,87,52
64,277,130,258,419,626,73,52
63,266,115,194,375,591,64,52
72,261,126,198,366,566,63,51
87,250,130,229,401,538,65,54
88,238,131,249,373,525,68,55
84,228,133,268,404,549,71,64
91,226,132,269,394,575,66,65
86,228,124,269,381,606,72,65
73,173,119,250,332,642,72,61
71,177,130,269,347,648,81,62
79,187,122,248,321,629,81,61
73,205,127,248,315,633,85,57
89,207,129,261,350,636,84,54
88,206,115,282,343,635,87,52
88,226,107,292,305,652,75,55
82,213,100,280,339,656,74,53
93,187,93,284,457,630,72,63
98,206,98,305,456,622,73,70
95,193,105,278,465,609,68,69
112,187,95,223,551,606,79,94
115,191,118,287,574,610,93,95
106,210,130,327,521,624,103,88
98,199,132,306,520,629,103,86
109,227,172,426,612,650,117,90
107,248,180,473,570,651,125,67
102,249,172,465,539,656,114,64
114,298,194,481,580,681,121,72
109,289,191,481,579,690,121,85
103,277,153,417,560,696,112,84
91,239,152,394,542,697,98,86
88,247,158,370,580,709,99,89
79,189,123,324,554,694,86,90
79,193,127,338,595,679,84,83
78,182,130,301,530,644,86,82
68,188,119,268,533,620,84,76
76,200,123,293,496,572,86,78
72,184,126,302,492,571,80,72
75,182,142,316,437,559,83,62
70,186,144,308,420,568,72,57
72,177,144,301,392,577,72,59
74,168,140,313,395,599,76,58
74,164,138,303,354,579,73,56
65,181,144,352,396,584,92,59
92,215,194,625,780,694,179,107
132,322,329,871,976,703,241,157
140,322,339,923,1042,714,246,163
143,356,360,982,1121,706,263,180
145,369,361,1012,1145,710,262,181
135,362,338,876,1031,572,215,159
96,304,221,642,860,532,144,111
76,293,202,567,783,490,141,103
71,261,158,466,685,514,112,79
66,239,136,340,711,478,101,75
57,227,134,325,570,531,102,71
62,182,138,335,577,551,117,66
65,196,142,306,548,533,107,61
59,187,139,296,520,537,100,53
65,176,149,294,388,554,95,53
80,187,148,294,369,535,95,60
75,197,127,282,434,500,75,73
76,188,124,287,436,525,76,73
81,217,133,273,503,498,74,79
84,217,114,280,518,479,80,79
73,204,115,343,561,518,83,81
76,196,124,357,522,625,89,92
82,219,131,362,540,692,104,97
84,193,137,369,481,694,105,98
83,201,139,365,475,717,105,97
93,215,147,313,411,703,111,94
107,262,154,269,356,606,110,82
109,253,160,278,324,525,101,75
112,245,154,291,335,551,107,83
108,240,162,261,319,511,101,88
102,226,150,264,331,550,100,86
90,215,147,315,393,576,94,85
90,226,162,340,427,577,113,101
84,247,179,365,443,586,114,93
83,248,169,367,445,605,116,91
95,282,173,363,438,525,116,100
98,308,182,389,409,545,133,113
94,303,156,353,372,528,115,97
95,309,147,315,376,488,108,94
123,324,153,316,426,489,109,112
120,301,160,328,427,536,116,109
130,286,144,240,412,498,97,105
130,295,151,223,425,550,98,108
126,274,139,221,422,638,99,108
102,254,132,218,351,662,110,88
91,284,129,214,412,707,99,81
67,347,152,264,498,703,99,66
69,346,144,264,487,674,95,60
71,364,157,293,489,628,94,66
70,380,159,298,495,608,76,65
73,410,179,312,437,498,83,66
68,353,163,275,362,511,82,61
69,348,162,272,365,468,96,68
79,342,150,224,310,404,96,69
74,350,150,210,281,377,93,65
77,307,124,144,278,422,80,64
112,323,117,118,217,447,76,83
123,318,112,113,193,506,60,79
118,373,125,108,246,576,60,71
121,379,132,155,328,591,73,74
136,363,128,163,325,674,81,89
109,325,121,163,325,663,79,71
91,353,124,160,321,679,86,77
91,309,109,160,270,666,89,85
92,312,117,122,168,671,77,85
77,373,133,125,171,707,74,67
85,371,132,150,266,955,79,69
89,357,137,158,275,1072,73,62
89,362,137,157,283,1095,65,53
89,399,163,150,278,1093,68,53
80,365,147,156,287,1041,57,54
69,398,162,134,215,857,54,50
67,401,161,135,226,747,55,45
62,392,166,155,229,826,59,44
57,353,126,147,217,1040,55,39
61,369,133,126,193,1102,58,40
63,352,123,143,191,1142,54,42
59,336,118,163,229,1144,71,53
63,350,115,154,216,1087,72,55
62,329,113,156,220,911,75,57
61,362,132,163,217,891,75,54
61,354,133,156,202,864,81,55
60,354,133,126,119,847,76,47
57,344,128,112,108,918,76,55
58,354,130,110,99,946,77,62
51,312,106,96,96,903,80,63
48,309,95,78,85,865,81,64
53,326,94,72,94,910,67,65
52,312,99,76,107,825,63,55
52,293,95,78,124,821,56,47
52,259,97,80,128,845,50,44
55,249,100,81,140,847,42,42
54,228,112,140,133,766,46,39
57,209,108,155,146,838,45,42
57,194,108,161,138,865,51,40
54,180,104,170,166,849,57,41
51,187,104,174,180,848,59,39
44,162,86,146,206,1031,59,37
36,168,86,141,201,1094,66,32
31,172,82,133,216,1125,65,32
33,151,85,125,194,1165,67,30
32,132,83,125,176,1177,64,30
34,148,94,118,146,1045,63,30
33,150,90,101,144,918,57,28
36,142,93,107,123,814,55,27
40,156,80,105,121,748,56,29
44,223,91,102,121,761,57,32
47,221,77,91,120,746,53,30
46,217,81,100,124,738,56,31
43,228,95,106,141,740,57,34
37,223,95,107,558,703,49,30
38,163,93,106,718,658,52,29
46,174,107,107,730,675,56,35
48,176,102,94,740,718,51,36
65,169,92,84,744,783,48,38
86,168,97,81,520,849,52,60
85,190,107,85,259,891,48,60
80,166,94,92,219,903,43,58
80,155,96,96,176,904,45,58
68,159,105,104,155,879,49,56
37,164,112,128,152,848,47,33
43,152,107,147,202,807,51,39
39,162,108,172,317,759,64,40
46,179,118,198,370,724,64,51
49,192,111,216,443,706,67,51
71,206,116,224,494,662,71,54
81,199,108,231,500,665,71,52
104,195,113,239,462,669,67,54
109,180,102,256,434,629,70,52
119,162,105,247,414,633,71,54
115,153,107,260,357,668,67,58
108,200,121,264,347,739,83,55
89,212,124,265,348,777,91,55
82,213,121,237,381,792,91,49
72,210,114,240,337,770,91,46
66,198,98,216,326,774,94,46
67,143,78,222,329,716,86,50
72,147,80,194,401,695,85,45
70,142,82,189,398,719,86,45
68,143,86,177,398,722,84,44
79,143,83,168,423,735,82,44
78,141,106,302,491,743,92,47
70,132,106,334,474,750,86,48
75,139,111,356,464,742,90,54
75,216,126,391,509,742,96,60
78,217,131,412,523,696,99,65
78,232,134,395,528,665,109,65
114,259,151,447,510,643,113,89
117,254,146,432,492,613,108,95
124,220,156,494,534,592,117,103
118,261,158,484,511,617,115,100
118,253,147,417,438,626,97,99
85,215,118,346,455,640,92,77
85,231,118,344,466,672,93,67
74,206,89,203,364,721,79,50
62,165,82,200,351,726,77,43
60,155,75,207,362,758,76,37
60,165,73,193,314,747,81,42
49,150,87,199,326,731,86,44
44,157,86,188,310,696,84,41
46,160,93,169,322,684,82,42
51,193,99,166,298,664,78,48
67,199,108,161,276,674,72,57
68,197,103,155,265,659,59,57
74,230,107,175,307,677,63,62
76,226,100,181,300,686,66,62
77,200,101,186,398,699,80,66
64,185,98,211,390,710,81,61
67,181,105,271,398,743,97,63
68,176,133,353,456,752,113,64
64,165,138,372,449,771,115,62
63,171,146,420,433,767,124,58
77,197,151,423,445,759,130,72
75,203,141,387,427,773,124,75
72,167,135,367,369,777,116,74
80,164,130,353,416,758,116,78
82,166,113,287,348,761,100,75
67,142,104,275,353,770,91,56
70,140,108,282,349,728,86,55
69,161,76,196,331,698,84,59
60,159,76,189,335,692,86,55
76,216,89,189,334,651,84,59
76,228,96,189,308,624,88,61
69,233,95,172,313,613,89,54
71,238,121,168,297,583,80,47
93,246,131,182,262,541,78,58
78,202,127,191,255,530,73,55
87,193,125,176,259,504,68,73
87,197,128,192,300,496,77,75
89,180,101,191,285,512,76,73
73,178,84,180,292,552,79,67
73,187,94,193,298,562,86,71
61,179,88,203,299,567,86,49
72,221,93,201,282,634,77,57
66,215,91,196,286,650,77,57
67,256,105,203,266,656,89,58
70,249,89,184,262,663,85,56
70,253,93,236,447,668,96,56
68,238,111,260,446,597,111,57
78,232,114,260,446,579,109,61
72,203,117,292,482,544,116,59
77,196,137,340,497,534,128,60
83,190,134,304,365,540,128,60
79,165,125,287,348,547,129,48
76,168,124,285,354,548,133,50
77,142,116,249,307,568,120,46
74,154,90,187,273,576,109,44
67,156,89,174,223,585,98,42
65,149,71,164,217,588,83,42
76,162,79,186,247,584,81,45
77,156,77,181,213,572,69,47
72,132,83,182,250,584,76,49
78,148,99,207,297,575,87,66
76,130,93,202,288,618,83,67
60,104,84,180,279,648,81,60
66,135,93,171,302,692,81,63
65,136,88,152,282,695,71,60
59,170,80,120,287,718,58,47
77,191,93,139,380,709,60,69
76,191,90,143,372,706,58,69
68,203,86,176,382,679,64,67
72,226,100,203,381,669,66,72
77,192,96,204,354,682,74,74
59,201,92,195,268,696,75,62
59,227,104,196,270,677,78,61
67,239,122,196,288,675,82,71
70,251,136,238,301,703,96,69
71,272,158,305,455,722,102,69
73,255,156,315,487,774,104,63
76,269,161,324,514,812,102,68
74,293,148,312,500,818,98,63
71,295,146,274,511,793,84,60
67,294,123,215,423,757,93,57
81,358,169,218,385,674,93,62
85,358,174,239,379,615,97,61
89,382,191,261,379,587,102,68
94,428,203,283,364,561,118,76
109,532,214,272,309,513,100,89
114,555,193,266,312,497,101,96
138,573,188,244,279,519,100,115
137,565,173,227,291,500,127,125
154,583,207,262,339,529,122,147
166,524,212,270,372,546,140,148
157,485,204,258,392,565,162,144
145,491,205,255,384,536,163,131
159,503,215,250,370,531,150,134
212,621,195,225,345,501,170,146
207,667,222,250,385,872,164,144
211,689,243,256,374,1107,151,146
217,699,241,272,376,1192,155,153
224,687,242,340,419,1319,176,154
177,590,239,396,436,1356,179,136
183,565,212,398,420,1220,219,141
196,520,197,419,429,1036,266,142
206,529,207,475,503,948,301,140
226,546,209,484,523,804,336,147
212,530,189,525,622,774,374,148
204,494,179,530,644,682,443,145
206,532,192,537,646,618,425,149
193,525,191,543,627,587,411,154
165,510,193,537,717,546,395,132
184,516,225,650,821,576,372,148
181,539,225,649,816,556,301,167
180,548,230,712,927,583,303,169
182,559,242,670,935,730,342,171
232,622,258,669,869,833,375,199
234,604,225,499,731,823,375,182
240,573,225,489,699,831,357,164
228,546,209,400,542,841,346,158
224,511,189,426,510,1035,332,149
161,458,170,405,476,1069,334,115
183,464,185,383,416,1216,345,131
185,460,186,371,459,1213,347,137
187,467,178,329,491,1286,419,141
193,533,201,309,490,1122,453,151
192,508,187,292,477,1113,445,148
154,626,229,265,486,948,507,135
150,696,232,268,466,1036,503,123
176,743,254,315,478,1008,462,120
179,680,237,318,476,988,455,120
187,678,248,300,484,898,418,117
185,562,198,295,443,881,318,103
178,502,195,299,463,797,310,101
157,421,165,238,435,665,308,98
148,466,162,219,442,578,231,84
142,479,171,292,503,512,253,91
143,467,188,375,544,538,289,101
141,422,186,372,534,568,291,101
156,395,194,394,556,831,277,109
155,401,190,381,552,1161,344,106
151,367,165,348,492,1368,343,106
151,409,152,306,517,1428,315,104
166,480,184,305,621,1498,327,111
140,527,184,338,705,1420,342,105
130,503,198,341,698,1246,317,102
119,500,190,317,683,1080,299,94
155,459,179,268,644,989,293,114
141,386,138,262,543,867,295,116
149,391,139,186,366,794,291,115
163,365,113,205,394,697,250,125
166,404,126,221,434,655,247,131
127,381,125,255,440,667,248,109
159,402,147,278,411,637,221,114
154,379,141,291,405,633,188,111
138,380,136,275,362,584,167,97
136,351,131,257,332,553,179,89
141,381,144,285,404,533,179,91
128,363,136,281,393,577,196,101
129,334,126,272,415,569,201,106
134,358,128,285,408,598,197,108
131,347,129,288,489,665,213,114
130,316,108,238,447,928,209,132
115,323,111,223,445,911,203,119
116,346,138,226,462,930,195,124
124,374,156,236,486,926,200,125
132,425,169,247,397,855,221,123
128,425,178,241,342,499,229,96
123,421,178,253,361,409,332,98
124,435,186,262,318,321,336,86
115,416,198,271,297,224,356,82
116,379,188,258,300,162,336,80
123,398,184,252,359,397,327,84
125,398,179,261,347,607,220,79
129,397,151,251,344,812,220,86
124,395,142,257,339,932,185,85
120,401,145,253,329,1023,192,82
126,375,139,259,265,1030,186,96
119,370,134,231,268,992,170,92
130,359,145,222,266,889,169,90
130,357,121,173,241,847,158,89
134,335,113,170,251,818,154,96
125,358,128,183,286,777,149,89
123,354,134,203,314,743,150,85
101,310,122,207,303,754,156,80
105,282,117,205,307,753,190,89
114,278,118,212,287,790,169,96
113,287,109,204,289,893,177,89
114,338,107,194,239,1087,196,95
111,347,105,200,236,1090,185,95
113,400,138,219,265,1053,158,88
170,405,139,209,281,975,167,106
181,382,148,222,262,870,178,108
184,384,152,198,271,628,185,106
189,390,173,241,340,618,194,111
196,321,154,231,323,755,233,115
141,309,158,261,331,986,241,85
116,377,164,267,380,1202,223,80
111,376,161,278,387,1219,203,75
107,369,138,229,323,1184,194,69
99,448,153,224,314,1097,190,83
105,474,157,189,286,901,189,94
125,416,135,149,202,531,188,102
127,374,125,126,207,390,188,103
130,374,127,129,260,367,193,104
128,322,112,117,257,302,137,88
118,292,107,122,316,460,115,76
101,315,108,127,310,669,131,67
101,306,117,143,299,808,150,81
117,349,129,153,256,905,144,91
114,328,119,152,266,1006,151,89
115,316,111,162,239,1004,147,88
114,343,119,175,234,963,146,86
111,393,124,184,238,941,129,74
98,373,115,178,225,921,134,62
92,350,112,179,206,869,123,66
97,356,114,181,170,850,144,72
102,326,109,175,177,802,139,74
118,296,105,150,174,742,130,80
106,253,95,141,193,717,127,74
124,285,107,144,204,726,131,78
122,269,108,137,227,839,111,76
125,264,112,150,236,963,129,84
116,249,116,154,232,1116,131,81
126,276,122,206,260,1226,141,84
141,321,140,227,268,1268,141,100
141,335,137,225,232,1197,137,97
139,342,132,250,295,1128,134,103
139,335,132,277,310,1068,134,111
133,326,128,251,298,979,118,110
112,277,104,236,289,932,115,94
108,265,102,235,307,986,116,93
111,270,96,200,245,996,94,80
111,305,111,167,246,895,111,77
110,304,112,165,264,853,111,78
106,296,112,160,301,942,138,83
108,337,134,166,338,897,146,86
97,327,135,151,357,989,147,82
94,306,119,145,354,1069,145,82
105,344,132,137,326,1084,156,84
100,350,127,144,314,1028,139,93
104,327,107,139,262,1027,133,92
104,324,107,149,233,873,141,98
98,324,105,148,201,785,128,89
80,323,109,157,220,734,121,83
78,308,113,146,181,677,116,66
70,360,141,151,171,658,110,61
80,353,141,141,161,711,94,52
82,339,138,145,178,742,94,51
93,383,145,143,149,781,92,59
94,393,144,161,158,791,91,61
94,346,111,158,169,786,102,67
86,356,113,155,157,769,109,70
89,348,109,145,138,731,112,77
81,248,83,132,132,703,104,72
74,224,83,118,118,672,98,66
78,312,106,113,135,669,96,67
82,298,97,106,146,668,85,66
73,308,101,110,163,668,83,55
80,360,124,134,168,705,89,61
83,366,128,124,167,737,88,63
83,290,116,122,139,733,108,61
87,303,138,141,131,736,107,64
86,288,136,134,107,761,105,64
73,207,103,111,103,768,104,53
83,289,133,123,136,746,103,53
82,266,127,112,128,737,73,47
77,269,108,95,127,744,67,39
88,327,120,104,134,726,67,52
92,339,122,102,160,697,81,54
79,288,85,81,166,733,89,53
78,306,96,92,178,742,92,55
79,379,108,95,181,725,94,52
80,389,121,102,204,726,95,50
79,380,124,106,191,723,95,48
82,362,123,125,182,710,88,53
92,374,121,125,192,814,85,57
100,296,109,129,220,966,87,60
92,258,90,135,203,1026,84,58
96,271,85,134,207,1061,65,63
103,273,94,117,209,1060,88,75
95,257,102,111,219,1002,89,72
80,261,99,113,229,947,92,71
80,237,96,119,255,930,91,67
76,245,105,169,294,922,92,67
61,294,116,183,326,973,67,48
58,288,115,206,343,932,63,47
59,271,122,215,403,979,53,53
64,291,133,206,489,1012,59,52
63,278,126,169,481,1002,55,46
78,310,120,180,476,932,64,48
80,318,114,187,597,991,75,56
78,331,109,211,619,959,86,54
75,324,112,231,563,942,83,56
77,321,125,278,557,942,84,60
70,247,116,276,559,981,79,63
87,235,126,270,481,918,84,75
92,240,138,264,420,834,92,76
91,249,130,249,462,830,93,77
92,272,119,207,484,880,98,74
93,284,131,195,474,814,104,69
74,281,125,189,413,818,94,48
68,270,112,164,395,763,77,41
67,256,127,180,348,618,74,46
69,294,148,218,322,409,74,49
59,280,148,236,368,373,78,50
60,282,164,243,395,283,90,51
61,280,167,248,390,269,119,51
58,267,166,277,415,440,133,46
58,199,148,251,426,833,137,47
69,197,136,234,421,1122,137,57
74,190,115,247,403,1210,137,59
74,212,120,255,439,1246,121,59
83,211,94,203,433,1295,102,61
79,277,104,200,481,1176,93,58
71,275,104,196,439,962,81,47
82,281,104,168,436,918,74,52
81,268,108,139,403,899,57,51
76,278,121,160,512,796,62,46
80,202,112,179,794,718,61,48
86,212,120,220,866,692,65,61
75,202,119,230,997,663,59,55
79,183,109,255,1028,671,73,56
77,175,124,328,1005,673,82,61
74,199,133,324,770,662,83,59
72,194,126,304,718,684,86,52
67,191,125,292,534,686,87,53
75,294,158,288,482,662,78,58
74,282,138,213,409,668,68,56
82,272,131,213,422,655,67,61
78,300,139,213,488,632,67,60
82,299,138,257,503,635,71,64
77,311,92,248,509,624,71,61
89,321,101,256,545,607,82,72
91,329,109,241,530,649,84,75
91,304,106,256,456,628,84,72
90,331,120,276,460,628,82,70
103,271,125,305,432,665,106,88
94,260,119,303,368,653,104,79
86,268,111,320,433,619,110,74
87,260,114,375,578,886,128,78
86,229,122,345,574,888,133,77
77,193,125,326,575,882,129,77
81,189,139,323,571,883,135,74
84,269,157,345,560,1040,147,77
84,287,154,270,390,1058,159,73
88,287,148,279,382,1265,161,76
72,297,147,264,398,1442,159,59
62,305,131,245,429,1490,152,59
63,223,108,198,463,1455,140,63
80,220,107,211,484,1346,110,77
80,214,90,195,496,1178,101,75
86,200,88,203,486,954,88,69
91,202,94,215,476,872,88,72
85,180,91,214,389,779,79,65
69,184,91,195,357,747,70,49
82,220,117,291,602,931,118,62
77,254,133,309,606,923,120,63
91,341,153,307,656,928,117,62
92,347,161,319,656,892,118,61
98,379,179,344,678,829,131,64
87,368,170,290,439,488,99,58
104,377,168,284,452,422,111,60
107,321,162,352,458,484,133,84
114,327,160,380,537,680,136,89
114,299,170,473,545,726,135,93
115,299,184,480,577,788,125,92
101,272,177,477,571,892,111,97
85,250,166,435,498,1099,100,76
84,264,170,402,475,991,105,73
74,239,141,262,471,980,95,65
87,243,113,203,418,1000,99,64
89,236,107,186,430,972,98,58
89,253,105,174,428,739,82,54
84,261,106,279,500,751,92,57
91,359,105,299,492,755,95,63
78,352,106,297,493,698,91,57
84,354,133,468,585,614,142,57
90,355,153,489,606,538,148,61
85,330,143,434,489,519,135,55
77,302,149,433,509,501,136,54
83,333,156,445,544,497,146,64
79,331,134,264,439,516,97,62
70,314,104,219,402,542,88,59
70,314,107,231,421,553,94,60
73,315,106,207,348,525,89,53
67,285,97,182,293,503,74,43
59,266,89,160,234,494,69,42
58,294,104,153,231,437,67,42
69,322,108,137,226,391,61,52
63,239,88,146,225,414,53,54
65,244,90,156,248,407,58,52
95,276,103,173,252,401,65,62
103,245,89,165,267,435,63,70
97,202,78,162,252,444,56,63
107,265,90,148,246,487,56,65
104,254,88,144,226,540,48,66
76,221,72,131,241,531,40,58
74,241,79,130,277,543,52,49
79,265,98,132,267,566,56,51
74,233,93,134,276,522,57,52
81,228,93,151,273,500,65,54
84,234,103,199,293,534,72,57
78,209,101,232,291,507,70,59
87,195,90,275,347,526,70,73
83,168,84,274,376,571,70,69
81,177,107,307,460,566,77,71
89,182,99,281,446,582,74,72
90,188,107,264,424,629,69,69
75,204,108,223,406,600,68,55
75,196,113,236,397,596,74,58
74,202,91,169,293,622,57,50
82,191,91,171,281,586,55,49
84,207,81,161,253,557,55,49
90,199,78,158,228,589,58,49
94,219,70,149,282,562,51,52
96,210,72,175,289,566,63,62
83,231,81,198,309,624,63,57
82,205,77,211,319,651,68,57
76,208,72,208,323,709,65,55
74,189,74,205,240,751,68,55
69,193,79,188,215,736,58,51
65,177,72,170,195,766,61,54
63,199,86,154,191,766,54,54
65,173,87,169,232,694,64,56
90,229,87,171,287,662,67,86
90,222,81,184,291,672,71,85
93,218,78,173,302,591,66,84
104,254,73,186,365,582,69,94
107,263,81,255,508,633,72,94
87,308,144,333,548,660,76,65
88,310,144,337,592,685,85,66
89,318,155,366,597,728,97,73
89,343,157,373,574,778,95,70
95,342,158,331,621,763,99,78
94,281,112,288,658,777,104,82
96,298,119,312,704,769,103,79
93,290,105,287,714,777,95,74
111,245,111,305,722,762,99,81
110,249,110,330,612,775,92,82
111,241,108,302,530,778,79,78
108,253,110,263,419,803,69,80
111,268,113,285,400,806,83,86
93,239,100,249,385,819,80,75
113,246,92,195,319,828,72,78
121,246,85,181,296,835,71,80
125,220,74,196,352,821,84,80
123,228,95,202,354,820,72,73
125,227,93,205,329,792,70,75
117,228,93,208,323,762,72,71
103,208,91,209,307,772,71,65
103,211,92,212,267,774,57,68
113,249,78,152,237,747,48,74
105,249,76,143,238,781,49,68
108,255,79,133,216,837,47,70
121,258,80,137,223,805,51,75
124,248,77,101,164,828,49,77
117,199,62,110,162,866,54,72
113,189,62,118,153,845,53,72
111,207,66,123,157,778,53,59
102,205,71,120,167,772,48,64
91,211,66,117,181,731,45,54
87,200,67,141,196,684,43,53
107,223,95,162,210,654,54,70
85,174,86,158,199,666,56,71
82,191,89,197,221,666,61,61
90,246,129,214,210,670,65,63
108,232,131,191,188,674,66,77
94,219,116,198,174,708,65,61
110,228,122,204,171,763,69,68
112,237,136,213,222,783,79,71
107,187,108,229,252,781,81,70
110,189,109,235,297,763,80,67
116,189,111,253,337,743,79,85
107,261,141,299,424,693,78,86
127,274,202,537,443,660,94,105
135,281,217,602,494,655,105,120
131,297,220,611,498,669,109,115
139,307,222,601,473,645,105,106
153,271,212,595,410,639,104,107
142,247,146,399,365,663,82,97
135,226,115,295,269,655,64,78
122,210,115,283,221,661,56,76
118,220,106,270,251,670,57,78
118,201,99,243,238,715,54,87
113,209,93,223,222,704,57,81
115,218,91,184,247,733,55,81
116,213,80,171,240,735,57,81
134,281,95,250,244,736,65,84
124,273,88,258,280,689,71,69
118,260,87,237,274,713,69,59
118,277,98,282,297,686,70,60
134,284,104,305,308,720,73,68
104,211,90,263,314,755,69,58
93,231,91,281,409,769,75,62
100,236,89,293,437,763,78,65
106,237,84,253,410,754,79,63
100,267,95,231,401,735,79,66
97,260,92,213,378,694,75,67
98,259,123,249,312,655,76,58
125,310,148,288,280,635,79,72
126,288,145,290,271,644,76,79
114,254,139,293,273,626,76,71
126,270,152,317,327,636,81,77
124,279,133,270,291,656,75,82
95,221,111,213,300,655,69,68
130,291,144,233,306,655,73,95
138,294,141,231,314,660,76,100
129,273,129,199,252,677,70,94
151,253,128,217,242,699,69,105
150,253,123,226,221,710,67,105
112,193,87,210,234,733,64,77
106,226,91,202,246,758,57,72
120,236,85,193,258,771,60,86
98,238,80,176,249,773,57,69
101,261,86,168,239,775,55,76
104,270,86,153,216,769,49,75
109,242,87,184,195,726,54,80
91,225,92,214,224,702,53,63
79,235,95,195,204,665,50,61
81,222,95,233,207,628,61,54
78,215,103,250,221,606,67,53
72,222,102,241,236,589,61,54
68,260,105,213,196,560,60,54
69,265,98,218,190,584,69,59
63,246,93,163,213,575,60,57
81,248,83,137,306,546,55,70
83,252,83,156,595,569,66,70
86,224,93,255,666,588,72,75
99,273,110,324,719,598,73,73
99,278,111,346,744,636,75,74
102,255,111,362,721,679,77,71
93,252,110,351,576,680,73,64
93,262,110,322,543,680,71,59
82,206,99,274,477,655,65,63
82,206,118,373,499,618,71,64
63,238,122,396,505,581,69,58
62,233,118,393,459,572,64,57
61,220,111,389,404,562,60,56
77,219,108,412,417,546,63,62
82,215,84,304,357,545,49,61
79,195,84,265,339,539,50,55
81,246,103,299,306,535,62,57
78,240,95,275,305,539,105,58
58,233,96,203,286,566,160,52
