31,294,147,106,101,48,28,50
34,339,150,110,102,53,26,50
32,325,168,98,105,53,27,46
32,315,171,102,99,57,27,35
46,338,182,106,93,59,28,32
48,345,190,112,89,59,30,21
52,298,190,114,88,57,35,22
53,301,215,122,68,58,33,23
53,284,216,116,64,58,32,24
49,298,210,124,69,55,31,24
49,296,195,128,73,56,34,24
47,307,201,116,73,54,30,22
46,288,159,111,74,53,31,22
47,291,155,118,87,59,33,25
37,257,145,106,83,62,33,24
33,243,143,90,79,61,29,26
30,294,131,97,87,60,29,26
30,370,135,96,93,63,28,26
32,536,156,82,128,64,36,27
38,630,166,96,156,78,41,28
41,791,177,114,170,83,43,27
41,788,176,112,167,83,42,26
42,758,166,111,165,80,42,26
42,650,126,138,141,74,35,21
48,559,116,129,110,60,28,21
56,290,103,131,101,57,24,21
59,233,104,130,98,59,24,22
64,269,119,143,100,57,25,22
65,251,146,136,98,70,27,24
61,254,197,140,95,72,27,27
55,256,213,126,82,71,26,26
49,259,220,136,82,71,27,25
52,240,222,137,75,74,25,24
55,277,211,126,71,58,23,22
55,273,163,132,90,56,23,19
56,283,137,149,109,55,30,22
58,284,147,148,114,52,30,23
50,281,163,150,122,52,31,23
69,284,165,159,130,61,33,24
68,286,192,164,129,67,34,25
67,375,197,152,125,66,30,23
66,458,199,150,146,69,31,25
66,562,176,137,161,66,35,31
44,561,178,116,152,63,34,38
41,646,154,98,170,54,33,40
40,618,163,105,166,56,33,41
42,610,167,118,153,53,33,40
40,574,168,113,134,55,29,36
36,604,179,121,137,58,29,26
34,538,194,131,117,63,29,24
34,541,178,133,123,63,27,23
39,604,181,124,154,63,27,23
43,553,180,130,165,70,31,27
43,516,200,147,172,66,29,30
48,497,207,143,171,63,30,31
46,490,218,136,163,72,34,32
41,394,218,139,136,81,36,34
44,500,233,140,126,81,35,32
43,580,214,111,114,83,38,29
43,660,207,106,108,92,39,28
54,683,206,103,122,88,36,26
56,700,195,98,123,81,34,24
56,645,199,106,124,82,32,24
57,606,242,119,146,78,33,26
55,579,245,117,157,66,30,24
61,637,248,126,176,69,30,30
68,590,259,129,174,76,32,31
69,562,249,133,173,72,34,36
87,516,222,133,161,76,31,38
95,427,210,136,159,78,31,39
90,233,225,139,146,75,93,36
101,186,232,147,140,64,97,38
165,314,242,136,154,60,97,39
166,435,221,137,168,66,99,37
167,493,216,142,160,65,100,37
171,545,219,157,174,76,54,36
168,590,265,159,176,88,44,35
124,566,260,185,162,93,43,32
154,477,279,190,151,86,40,32
152,433,284,190,153,86,37,31
154,406,278,175,117,77,31,33
165,350,210,166,115,68,32,32
155,309,225,164,128,62,31,29
126,330,212,154,116,65,32,29
138,325,232,174,118,65,31,29
136,293,215,186,113,69,31,28
119,321,214,186,109,69,30,27
114,385,205,170,94,72,30,27
116,444,242,173,105,72,29,29
109,489,214,157,127,69,29,29
124,510,238,158,142,72,27,30
126,513,260,180,149,75,29,33
139,467,255,197,160,83,33,37
150,433,224,200,158,87,51,37
151,463,240,202,138,96,67,37
137,530,221,187,139,93,68,35
153,616,208,177,136,95,70,34
142,663,215,154,135,90,72,30
126,671,203,147,126,84,64,30
121,641,229,160,125,81,52,30
132,618,277,239,135,113,96,40
115,513,291,241,131,111,98,42
115,447,300,254,115,107,98,44
147,404,308,281,127,107,96,46
149,362,314,280,128,111,95,46
145,265,276,224,98,75,55,38
140,271,323,224,121,85,69,37
150,275,341,246,141,99,69,39
110,276,344,224,136,98,69,35
117,460,325,210,172,92,68,35
140,498,389,241,188,97,65,35
137,563,366,251,176,87,40,33
129,591,347,221,157,73,36,29
136,629,348,209,151,77,33,29
127,564,369,210,123,75,33,25
86,634,303,163,131,69,33,26
86,616,269,138,128,65,35,31
103,675,267,157,130,66,35,34
120,669,262,194,141,64,37,41
122,626,222,213,124,65,37,44
125,580,232,216,98,66,33,44
129,583,260,222,125,79,33,44
139,493,272,233,138,79,33,44
122,453,285,220,138,82,32,40
115,456,292,206,143,82,31,40
122,372,302,210,162,82,34,41
134,282,297,203,152,72,33,38
126,231,290,175,146,72,32,35
131,206,278,166,137,66,32,34
129,320,281,178,156,69,35,33
125,382,290,181,146,67,34,31
128,452,273,175,140,65,33,30
116,499,301,160,139,76,35,29
111,554,333,169,148,77,34,29
119,520,325,158,120,75,31,30
129,490,303,157,117,80,30,29
115,452,297,161,118,79,31,30
111,403,247,172,113,70,28,30
101,413,209,182,104,71,28,31
95,380,220,171,108,70,28,27
73,353,204,158,100,69,27,25
61,332,202,158,93,71,27,24
61,346,196,154,88,67,27,22
62,261,174,118,88,65,25,23
63,315,142,117,97,64,24,25
69,498,140,119,117,57,26,29
75,533,141,105,131,61,25,31
71,547,153,104,133,64,25,33
88,560,163,110,131,64,28,35
99,559,178,134,139,75,35,34
97,450,198,130,124,82,37,31
98,484,217,137,122,81,39,29
97,561,213,131,126,81,38,26
85,613,207,129,126,82,37,25
81,617,207,103,108,72,32,24
84,635,208,113,111,64,30,26
98,663,236,114,107,58,30,27
104,644,240,107,119,54,31,27
104,659,250,108,170,52,30,26
115,649,265,115,185,61,30,35
119,604,282,110,183,63,32,36
106,510,240,119,180,67,31,34
100,430,242,117,174,68,30,35
98,277,227,111,141,68,30,35
90,220,227,105,126,61,30,25
90,200,208,128,133,63,29,27
95,173,201,137,134,60,28,28
94,343,191,137,136,62,29,27
98,444,201,139,147,67,31,35
95,491,192,148,141,70,30,42
87,524,177,131,128,66,30,39
83,563,189,111,126,62,29,39
92,476,188,122,124,73,29,42
93,390,188,122,93,72,29,41
87,349,171,109,91,72,29,38
87,325,159,111,89,78,30,39
84,264,154,116,83,78,30,40
91,286,186,131,75,71,30,39
88,284,192,130,74,67,28,32
93,264,183,133,75,64,29,29
93,257,184,124,81,58,27,29
94,252,186,120,86,58,26,28
91,320,166,119,86,60,28,31
89,330,146,122,81,60,30,30
75,332,184,139,82,60,29,29
83,337,221,144,77,59,28,27
99,351,222,142,73,57,31,30
112,318,225,119,86,53,30,25
117,507,230,119,110,50,27,31
129,716,211,104,125,57,29,33
136,884,198,103,152,63,35,33
122,949,201,117,163,67,34,29
107,975,192,125,163,67,34,30
134,923,190,120,150,67,34,28
129,785,179,117,137,61,33,28
122,587,154,115,106,55,28,29
149,499,162,112,95,50,26,29
158,430,159,110,78,47,26,28
145,364,181,109,74,50,27,31
151,342,186,109,72,49,26,29
150,343,192,111,77,50,26,28
156,329,170,109,81,52,26,34
144,334,174,106,84,58,24,35
143,329,147,109,81,57,24,33
166,311,150,100,79,56,25,36
175,300,173,96,76,57,23,39
166,273,183,81,67,56,24,34
172,241,177,77,59,47,26,33
173,224,169,90,64,48,24,32
146,245,186,105,74,50,23,28
154,293,167,110,73,52,25,26
139,293,175,113,70,50,26,28
145,293,192,119,73,50,25,27
156,301,210,110,73,49,25,27
155,302,213,121,68,55,27,35
145,249,211,113,65,52,27,36
182,260,202,116,63,53,25,34
175,260,194,107,60,53,26,35
175,251,201,120,66,61,27,37
195,257,183,107,72,59,26,30
191,260,169,113,72,58,24,30
164,284,192,121,71,60,25,30
163,302,195,124,75,61,26,29
175,301,192,111,72,55,24,31
155,281,186,101,57,55,29,34
168,310,209,97,56,56,29,33
165,272,203,85,72,56,28,33
189,238,192,82,67,54,27,34
171,264,188,98,65,56,28,35
168,278,186,98,70,52,23,33
202,262,165,100,83,53,25,34
208,251,133,97,72,50,24,34
196,278,146,97,74,53,25,35
185,260,154,81,76,59,23,34
235,252,159,81,71,61,25,37
206,229,162,87,80,61,23,34
206,234,185,96,76,61,24,33
232,222,194,101,75,62,24,34
280,214,172,99,69,54,26,32
248,222,176,104,81,56,24,28
237,221,179,102,60,50,24,28
235,249,166,93,65,51,24,31
208,238,143,95,74,56,27,27
185,236,135,96,77,57,26,28
183,234,120,94,68,56,25,28
197,255,130,86,76,66,25,29
264,240,146,89,75,66,29,31
285,262,179,81,74,62,26,37
294,298,202,83,77,60,28,35
294,285,203,82,78,65,30,36
294,268,195,90,72,57,30,37
276,320,191,113,71,59,28,37
258,295,173,120,76,56,28,31
255,261,160,129,72,58,27,33
277,275,169,132,76,65,27,33
309,291,171,128,78,64,29,35
275,228,161,112,77,63,27,32
272,240,143,104,65,64,28,34
241,249,134,92,61,60,30,32
236,249,139,90,60,45,32,31
220,313,180,107,58,48,33,30
213,309,174,100,60,53,34,29
201,325,182,107,58,54,34,27
219,340,187,108,56,55,31,28
221,351,204,110,61,69,37,30
185,299,169,93,57,68,35,30
194,291,174,96,60,62,36,32
198,311,200,102,75,76,40,33
181,291,195,113,82,77,43,33
146,283,177,116,80,76,36,36
155,315,216,127,94,82,43,35
231,329,217,142,95,88,43,34
242,314,194,151,88,78,39,36
240,312,212,157,86,77,38,35
249,323,207,156,88,76,42,32
248,303,176,152,76,87,34,31
169,311,240,152,80,98,48,30
172,294,250,134,89,108,49,26
183,309,242,127,89,113,52,26
176,314,236,119,81,110,50,23
176,282,227,112,82,95,53,24
187,262,154,92,73,83,50,25
183,284,166,94,60,76,52,30
175,266,157,85,57,67,49,30
169,257,184,94,66,76,56,35
162,265,179,93,64,81,54,36
167,269,175,93,66,98,51,38
157,250,164,103,75,99,60,39
161,276,189,111,87,110,74,41
171,261,187,115,81,107,71,40
187,252,192,121,82,119,75,41
176,332,216,138,87,120,101,40
243,319,200,137,85,119,110,37
270,312,196,132,71,116,107,49
309,317,189,136,88,121,115,50
334,348,208,138,90,119,128,55
373,316,224,124,94,142,239,57
342,318,227,125,103,148,251,56
347,346,235,132,105,149,254,47
320,362,234,131,101,144,289,45
289,378,233,135,102,174,299,40
276,355,219,144,98,145,211,41
298,386,252,146,94,150,191,50
286,375,258,150,107,189,192,53
282,341,255,146,100,196,138,54
294,315,253,135,100,180,144,55
263,300,249,134,101,185,165,53
279,285,232,128,98,177,171,48
297,272,205,106,88,137,174,46
297,293,223,103,96,131,184,52
283,278,205,116,96,111,176,48
286,275,200,99,90,106,162,50
275,266,188,93,88,99,155,48
232,248,189,97,81,93,150,44
224,249,158,93,72,123,149,41
233,255,192,76,69,124,124,43
233,278,206,97,67,127,122,40
187,326,220,96,61,129,124,39
186,334,229,92,79,136,117,42
262,351,250,105,78,114,106,40
265,346,238,104,77,109,106,40
282,336,220,88,84,102,103,41
276,279,204,87,87,106,108,43
284,271,212,99,68,112,125,45
241,231,195,87,76,124,121,54
277,266,185,91,102,125,119,56
267,252,187,98,102,125,116,55
287,259,188,105,103,121,133,53
282,256,178,101,105,136,149,51
274,249,171,99,109,140,150,41
262,234,197,110,90,156,175,44
281,359,231,130,84,166,193,53
263,360,229,134,84,186,180,56
294,359,255,136,96,179,158,62
285,387,259,138,83,163,160,67
269,398,266,134,76,148,131,63
232,328,245,115,89,144,105,56
241,327,260,109,97,141,106,54
247,348,217,104,90,133,132,46
237,331,214,107,91,138,143,37
219,311,188,113,96,140,141,37
227,292,161,105,83,129,148,36
217,287,145,109,81,114,148,35
196,272,161,110,85,114,119,38
258,306,158,106,93,105,91,37
269,338,234,109,92,96,92,40
258,327,245,119,97,98,76,40
272,321,240,111,90,84,87,43
253,309,228,107,79,68,88,39
284,325,246,112,81,77,113,50
286,342,221,129,107,82,120,53
290,339,215,120,102,87,126,54
283,350,220,125,104,106,126,54
311,359,242,128,105,107,128,57
260,363,253,132,100,106,106,46
262,329,222,112,67,122,97,39
270,341,219,115,74,123,116,40
271,344,223,114,75,115,105,37
232,347,216,115,80,117,106,35
206,288,180,113,77,121,112,35
227,271,187,100,88,106,129,38
213,254,188,103,91,110,121,37
282,259,185,102,98,99,130,37
300,252,168,103,106,104,128,43
299,282,182,111,105,97,129,41
270,262,151,109,95,111,114,43
272,285,160,104,86,117,108,41
184,297,189,99,76,123,91,42
175,291,200,95,62,119,86,35
163,292,192,75,71,129,87,40
166,309,192,76,79,119,100,35
155,317,203,91,94,125,94,36
162,292,172,94,94,123,95,35
191,314,167,97,113,121,98,35
209,310,168,102,107,113,91,33
205,314,168,109,112,120,99,33
205,303,211,138,123,113,99,36
204,311,215,152,179,125,99,39
163,292,225,154,171,133,102,40
152,279,229,160,183,135,103,42
142,287,237,165,185,127,84,43
143,293,207,149,176,120,89,42
174,281,227,148,151,115,95,41
199,281,245,153,167,112,90,40
190,274,241,146,162,107,119,37
202,320,231,153,168,112,130,43
217,329,233,143,210,119,126,46
204,335,211,133,200,130,127,47
192,361,175,131,191,128,138,50
194,375,215,147,202,141,120,56
227,320,234,151,221,153,114,63
283,381,227,156,186,181,140,66
302,389,246,181,181,181,135,70
336,399,266,203,196,192,140,78
383,405,286,219,234,224,167,89
406,415,295,216,225,237,211,86
399,362,366,222,224,221,214,88
412,369,378,205,222,236,232,99
386,441,402,204,224,248,247,102
368,490,458,196,192,232,263,101
338,513,552,210,225,244,296,105
359,514,511,241,241,248,303,107
326,513,501,239,239,241,297,103
335,428,485,221,221,247,287,96
320,390,444,214,209,233,260,89
308,358,364,191,158,231,217,80
247,353,367,139,126,232,201,71
270,354,368,149,130,221,198,58
245,403,383,154,124,187,190,64
221,387,373,148,114,207,289,63
226,386,316,148,100,186,268,81
227,363,297,146,97,174,275,81
203,384,303,143,105,170,271,84
224,365,332,146,116,189,276,76
268,382,296,138,110,162,242,78
275,427,331,164,143,178,253,91
299,457,359,203,162,213,289,98
311,430,364,231,169,207,293,97
326,415,305,246,174,197,289,99
301,428,353,244,175,205,246,96
308,392,373,230,153,177,247,67
304,382,349,208,137,123,179,59
299,393,370,187,115,127,175,61
261,397,382,159,104,187,199,60
257,407,371,179,95,182,178,65
253,408,327,177,94,188,172,70
247,406,359,180,97,188,179,70
253,426,383,184,101,189,239,73
274,416,374,183,103,139,224,70
275,354,353,170,106,132,233,70
267,343,357,172,103,140,228,78
276,341,356,178,103,149,229,79
263,355,322,199,132,154,171,80
258,348,313,195,129,161,166,81
256,356,316,193,139,175,180,82
240,394,360,198,146,169,186,79
288,459,332,206,150,159,180,75
281,414,290,172,116,175,192,69
277,418,293,182,117,172,217,82
291,439,276,191,103,155,202,77
330,401,232,184,98,147,186,66
303,324,241,155,81,146,206,66
314,334,264,154,97,148,221,66
313,351,346,152,96,162,190,48
306,378,360,137,105,161,183,42
329,394,349,136,107,156,178,42
308,414,363,145,108,167,206,41
305,431,360,139,107,166,187,42
303,432,311,149,111,135,190,43
306,426,295,154,100,136,198,43
251,438,294,168,100,146,213,45
270,403,285,162,126,191,195,45
272,380,296,166,119,175,179,53
277,373,303,152,111,177,189,60
264,373,335,147,119,187,185,62
273,336,327,126,114,191,199,62
217,344,316,118,93,164,178,64
261,338,315,108,100,163,176,56
284,334,308,105,113,170,198,48
294,316,333,139,108,184,225,64
293,322,375,152,124,189,217,71
316,411,374,160,121,165,211,74
282,429,369,164,117,163,215,73
268,505,387,178,122,153,218,72
265,502,350,170,136,148,229,65
234,498,308,156,121,148,243,61
216,452,317,159,116,162,258,65
227,441,328,163,127,184,264,66
219,339,310,147,118,188,245,66
240,353,307,142,117,181,251,66
243,358,302,153,135,185,235,73
292,335,290,146,135,170,224,63
307,364,265,186,128,142,219,63
300,428,250,208,133,162,224,68
286,409,239,200,125,158,207,62
312,402,254,197,107,153,196,55
279,404,257,209,103,157,189,60
261,392,289,173,92,162,209,59
300,385,351,151,84,145,196,55
295,359,339,148,70,176,191,56
280,368,332,149,67,166,192,56
333,408,349,136,69,170,212,67
327,415,348,130,71,166,196,67
313,382,303,128,69,173,232,70
307,393,309,121,77,136,262,71
347,399,322,123,73,132,287,68
341,514,391,157,82,134,283,66
357,524,411,159,84,137,282,86
390,557,427,156,81,140,282,93
408,593,434,173,86,149,232,96
411,625,436,179,88,149,220,101
372,549,363,153,96,148,230,104
352,549,316,145,96,144,217,90
306,509,255,142,95,134,187,83
316,553,281,150,99,119,248,87
291,543,311,145,99,114,236,84
287,513,309,141,91,110,233,72
278,520,302,152,94,140,251,69
311,503,300,159,91,140,278,80
296,420,331,151,90,163,247,79
268,382,283,140,90,162,237,74
260,352,289,143,93,164,220,74
262,341,330,143,94,157,223,80
248,382,347,138,92,158,193,84
250,427,302,135,83,132,176,82
238,425,318,144,91,150,196,86
256,432,315,138,80,145,230,87
287,521,320,194,81,127,212,81
258,543,378,210,95,125,216,61
241,526,393,218,96,125,218,51
279,567,422,216,95,124,230,44
307,577,432,217,109,133,191,45
283,508,416,200,127,136,194,45
280,462,356,196,127,137,220,44
291,434,363,186,131,198,279,56
305,388,312,189,146,198,271,66
266,393,321,212,155,189,275,72
268,375,321,198,146,196,279,74
289,376,321,194,159,201,272,75
266,398,281,189,161,147,222,68
247,421,322,214,160,136,225,60
255,409,373,211,143,142,237,48
245,399,356,196,136,139,249,44
247,407,358,190,123,163,266,53
254,409,372,207,146,157,246,58
299,393,339,175,130,156,240,55
292,419,291,154,131,154,258,59
302,431,299,172,147,160,304,61
295,424,291,175,144,131,286,56
345,397,275,155,112,127,287,53
284,452,296,178,118,121,274,52
280,430,255,182,121,122,243,46
295,452,241,190,105,105,163,42
278,485,264,200,102,87,158,40
275,499,283,212,108,89,153,38
319,452,308,196,105,92,161,42
339,493,333,195,103,106,203,49
325,450,375,166,117,125,244,52
329,406,356,149,115,130,225,51
273,379,341,138,124,130,238,50
225,434,339,155,123,137,233,49
215,374,324,159,120,121,196,41
267,381,294,173,117,166,140,41
257,392,349,174,118,172,142,41
270,404,354,174,112,177,116,39
265,379,348,158,113,184,128,36
269,419,350,160,133,206,215,40
211,408,332,143,139,175,212,43
223,431,300,139,146,172,216,43
224,445,309,157,136,166,215,44
245,386,270,159,148,155,217,43
249,340,250,165,135,143,185,46
249,326,264,166,128,133,204,45
276,301,239,180,133,124,193,48
281,293,214,170,138,126,198,49
266,302,206,166,136,123,193,48
241,289,209,154,134,152,175,40
229,317,179,157,125,145,148,36
192,303,193,147,123,154,154,40
164,336,214,153,127,154,159,38
180,342,232,154,119,165,157,41
176,343,241,155,119,143,127,41
177,326,275,157,119,141,132,42
163,353,267,160,117,186,130,35
160,337,287,149,109,194,112,40
145,315,272,147,104,229,108,40
151,314,273,138,97,223,94,43
184,347,256,154,96,231,92,42
187,328,265,145,100,199,123,42
187,282,226,150,110,193,136,39
182,298,251,155,113,144,134,39
184,324,243,161,116,160,157,39
156,315,235,148,120,161,153,39
167,309,225,153,111,154,135,39
196,336,253,140,105,156,123,39
204,346,248,133,100,180,148,37
188,341,242,122,102,186,125,43
187,343,254,115,89,173,127,43
182,343,269,115,92,170,112,44
176,327,287,132,87,163,117,42
156,356,300,132,101,145,107,44
167,339,297,132,95,100,100,37
186,321,337,138,98,103,101,41
190,328,346,134,86,99,105,42
173,344,340,122,86,106,102,44
171,298,325,124,77,110,92,44
179,295,331,140,78,116,96,48
187,338,296,141,80,112,97,46
173,314,262,140,86,127,92,42
164,281,237,139,82,138,89,48
165,308,262,135,94,168,85,51
165,308,257,116,96,186,101,49
151,268,252,123,110,190,94,48
160,288,295,134,122,189,93,48
165,282,292,128,131,191,104,42
162,250,278,128,120,153,95,37
161,268,272,130,117,138,91,33
147,283,278,130,112,150,90,32
137,265,229,117,94,146,92,33
131,287,221,114,80,144,84,29
156,286,195,114,82,141,83,27
157,292,197,122,88,132,80,27
163,305,169,100,77,113,93,27
214,339,199,105,83,104,116,27
279,345,194,106,83,99,111,34
271,357,196,105,79,98,114,37
286,340,207,100,73,93,102,40
283,306,202,94,68,93,100,40
254,292,169,90,58,110,88,42
303,315,202,99,74,98,95,41
358,299,210,101,73,97,90,40
351,319,190,96,78,99,112,37
352,307,201,95,88,110,140,41
353,327,244,107,89,100,131,39
269,309,229,96,77,103,133,34
308,317,229,108,81,99,136,34
314,331,230,117,80,106,141,39
309,338,219,120,72,101,117,35
327,318,186,119,72,96,115,39
348,305,175,133,86,88,107,43
265,319,164,130,81,90,110,47
251,287,160,120,77,82,91,45
268,299,160,122,75,79,80,44
245,279,162,109,73,75,82,40
224,305,185,91,59,68,94,36
215,303,183,76,64,67,94,29
238,321,200,77,66,83,92,28
233,314,201,67,65,79,91,25
242,331,209,66,65,86,97,26
219,307,187,67,60,95,93,26
223,301,200,80,58,100,93,27
209,269,192,77,53,86,99,27
242,281,210,98,58,87,109,30
226,318,257,116,62,109,119,32
245,319,300,125,68,104,122,37
232,306,299,125,70,103,128,36
222,312,298,131,75,104,119,37
170,319,283,117,73,132,114,36
189,262,237,118,82,112,97,38
198,319,185,105,78,111,110,37
231,342,206,101,77,111,110,35
224,351,215,99,72,116,119,35
264,334,216,99,72,88,116,34
257,329,232,74,57,91,130,31
267,282,234,86,56,100,113,34
335,280,212,82,61,106,110,42
382,310,218,85,71,99,105,41
380,348,263,102,71,95,100,41
382,362,238,124,73,130,85,46
426,366,256,134,73,131,89,41
355,357,254,135,67,125,89,33
330,330,250,141,62,129,86,33
330,310,203,147,70,138,104,34
336,337,197,134,70,107,106,34
267,346,172,122,67,95,108,36
285,346,181,125,71,114,101,37
257,373,205,125,72,118,110,42
235,353,215,106,64,110,101,40
214,310,217,99,63,106,101,37
232,305,217,96,66,113,91,35
258,381,228,106,65,102,89,36
266,418,236,104,59,98,90,36
269,427,225,103,64,93,97,35
268,454,242,109,75,95,92,34
235,446,244,119,72,85,93,35
231,406,239,130,68,82,96,34
221,371,213,131,77,77,103,29
199,393,216,148,86,83,93,29
204,362,225,147,82,83,96,29
200,375,226,165,96,85,94,30
130,351,211,154,96,79,92,32
143,340,225,147,95,84,88,31
140,413,257,145,86,79,85,30
155,429,250,150,84,75,78,31
176,412,240,122,86,79,85,29
177,431,275,125,90,82,93,29
170,442,264,140,93,87,74,33
183,381,349,158,104,100,71,40
172,394,364,156,102,111,82,41
148,388,369,160,89,111,83,41
165,414,391,167,99,115,75,42
189,401,396,183,102,113,73,42
242,505,395,236,99,105,74,47
240,524,422,262,113,100,63,46
256,525,435,266,121,111,56,46
252,528,436,270,112,104,49,43
252,529,442,257,111,100,46,42
201,440,394,190,110,103,48,35
204,427,431,161,112,111,47,37
236,480,446,166,126,99,49,40
271,462,457,152,128,97,74,42
253,446,458,141,125,96,76,41
254,431,451,154,127,92,76,35
262,446,379,159,130,79,77,33
225,471,386,163,113,83,78,37
188,475,364,179,122,96,93,36
198,493,367,182,118,93,104,36
218,476,380,178,114,93,107,41
202,436,381,181,108,96,111,42
194,346,379,186,124,90,111,36
186,321,344,165,120,113,207,37
168,312,386,163,127,113,207,42
134,300,359,156,130,109,210,38
148,281,341,131,128,106,222,38
149,368,297,109,118,115,247,41
142,401,338,120,114,84,159,39
171,398,282,125,111,88,154,36
180,417,285,130,104,93,150,38
196,430,316,130,96,94,159,40
187,360,328,120,101,84,118,37
234,366,297,120,98,82,119,38
251,347,273,107,93,85,126,36
247,342,262,100,93,85,124,40
241,350,241,106,94,83,90,36
269,362,232,111,77,85,100,38
233,339,230,117,81,85,96,34
209,339,240,121,78,85,91,37
201,355,237,142,78,90,96,32
190,353,224,145,91,99,91,36
232,361,207,143,91,95,91,40
234,322,192,131,86,107,94,41
230,340,181,135,91,109,90,44
245,312,178,114,97,100,91,47
289,300,172,108,86,93,86,45
248,324,177,116,88,99,75,43
245,349,171,117,94,88,78,43
250,339,173,106,89,77,84,39
238,337,216,113,81,85,88,34
233,342,221,111,79,83,88,36
229,347,220,122,88,99,88,40
237,311,221,112,87,97,82,40
226,332,245,124,92,101,78,39
230,350,220,124,98,93,67,39
182,370,238,131,96,94,68,36
167,321,228,108,83,77,64,30
160,336,233,123,77,74,65,31
152,334,265,120,74,70,64,33
153,336,268,130,71,71,66,41
146,316,267,118,75,66,67,40
151,306,276,125,78,64,73,39
175,311,278,124,76,76,103,40
177,305,234,120,80,78,105,37
175,307,257,135,92,81,103,31
169,300,239,136,91,82,102,29
161,318,252,143,98,81,105,30
156,303,239,139,114,92,79,28
166,279,230,153,128,102,75,27
160,267,223,151,118,100,84,29
170,272,230,153,118,100,87,31
191,257,205,143,116,107,98,33
165,286,206,166,130,91,98,32
149,276,193,155,116,80,102,32
165,261,133,127,113,85,112,32
228,317,139,188,130,87,109,31
211,317,144,190,127,85,99,28
219,305,177,169,106,97,96,30
235,309,177,168,107,96,132,30
237,306,178,170,114,98,130,27
183,221,159,102,91,99,137,30
185,274,175,167,136,94,136,35
195,256,133,168,132,78,137,34
183,254,152,165,129,76,127,37
172,244,164,179,131,75,137,39
175,246,168,179,132,77,138,45
177,355,233,133,90,81,136,45
175,374,239,132,85,86,138,45
221,391,255,135,84,84,121,46
227,393,254,116,74,96,138,45
217,402,255,111,75,97,134,38
206,289,181,100,74,99,135,35
258,308,198,123,89,106,132,36
231,324,174,129,90,123,129,33
226,353,185,153,115,128,97,34
222,370,185,159,133,127,90,33
231,405,205,163,132,121,88,35
196,383,190,160,127,114,94,33
183,346,187,161,131,104,171,39
174,311,174,140,132,141,307,41
180,316,182,138,118,146,325,41
214,305,177,155,112,149,328,41
195,293,174,152,135,151,331,45
187,298,215,148,132,145,302,41
192,308,221,147,118,99,184,39
198,340,223,146,120,89,151,40
152,292,254,119,123,86,147,37
127,299,260,99,95,82,136,33
129,304,232,99,91,106,157,32
123,308,236,99,84,106,122,29
122,247,230,95,74,105,123,31
148,290,187,98,67,104,121,32
147,295,182,97,65,112,127,29
184,299,179,87,60,116,109,34
185,294,162,83,54,128,116,34
170,301,205,90,56,128,119,47
152,292,226,94,61,125,121,61
153,287,250,99,72,128,173,62
121,287,248,105,73,107,177,59
134,295,263,112,77,101,171,60
138,292,233,110,79,102,170,52
128,286,206,102,83,102,197,32
125,267,167,97,77,102,150,31
169,259,166,97,78,104,130,32
162,253,135,88,73,91,137,30
159,258,164,84,87,88,135,25
164,231,168,83,84,87,99,26
163,250,166,90,80,93,102,29
101,278,186,96,88,94,120,27
100,290,201,98,86,89,123,31
126,326,228,96,74,91,131,32
119,324,230,91,70,93,133,33
125,316,234,85,89,73,150,32
126,309,221,89,82,76,136,34
136,307,227,89,82,81,136,33
112,245,175,85,84,82,131,35
136,243,163,84,89,81,122,33
132,240,163,98,70,73,94,31
150,228,151,97,71,77,93,31
136,237,126,100,72,71,74,28
135,256,137,101,73,75,72,26
136,261,137,106,66,77,78,28
163,259,163,96,63,77,90,29
151,302,162,97,58,67,99,30
156,291,153,96,62,70,114,34
164,291,145,97,57,59,114,33
153,288,153,91,56,55,106,35
140,314,158,92,55,56,94,38
140,270,161,75,54,52,122,38
145,267,166,73,67,59,126,35
160,252,165,64,65,63,124,36
167,251,161,66,66,64,125,37
160,230,126,56,70,69,136,32
164,243,146,65,70,90,102,31
155,223,155,64,54,86,102,32
149,239,165,73,59,90,107,34
162,254,162,72,59,89,110,32
166,245,178,69,54,86,106,34
188,231,181,74,55,64,121,38
204,257,212,80,66,93,117,40
243,246,210,84,66,96,117,42
235,254,220,97,66,97,124,43
285,288,248,110,75,97,124,47
287,320,255,112,83,113,129,51
289,311,247,109,75,120,144,50
279,356,256,118,101,126,155,53
379,361,279,118,101,163,226,57
410,398,285,152,123,202,269,67
463,399,310,181,158,201,268,70
469,422,301,187,159,187,264,71
458,378,295,183,148,183,261,68
393,381,280,186,156,155,204,64
323,352,246,169,144,111,140,49
267,348,245,154,112,115,133,43
333,354,262,153,126,123,145,42
345,355,252,153,120,143,171,42
331,334,253,143,111,142,171,41
348,363,269,138,106,152,202,44
328,358,251,128,98,146,200,48
309,339,261,125,85,162,246,65
320,385,331,162,102,151,279,84
331,381,352,160,110,156,294,86
361,375,351,155,104,142,284,87
415,422,347,178,115,153,288,85
371,448,351,210,138,155,271,97
400,446,304,205,135,151,230,119
396,468,297,218,134,159,240,122
388,463,303,233,145,174,244,128
379,426,312,216,137,164,245,130
395,403,284,206,110,157,242,116
352,363,285,187,104,163,233,81
379,379,314,195,110,148,205,88
356,360,297,198,103,130,238,82
287,358,272,191,103,131,245,77
278,348,283,171,113,124,211,78
281,393,328,183,145,148,237,76
245,440,291,171,140,157,242,61
222,436,295,145,143,170,214,64
235,422,326,150,147,175,236,66
270,428,328,162,152,182,252,70
306,470,308,155,123,155,231,69
299,390,301,147,134,154,231,68
334,401,298,163,135,165,230,78
378,393,271,155,131,160,195,83
373,418,298,164,116,140,175,79
341,337,260,160,120,135,166,77
334,349,265,171,114,150,166,78
306,319,260,156,104,127,161,61
249,328,262,155,97,126,154,57
206,357,271,133,103,127,175,54
213,394,282,146,102,136,199,57
229,442,283,145,103,130,213,55
226,448,298,143,103,131,200,54
209,447,286,150,110,135,203,47
236,387,261,146,103,141,183,44
272,403,254,129,105,161,175,51
264,332,249,109,95,172,166,50
263,343,233,106,96,171,160,51
268,341,238,104,104,181,159,51
246,333,211,114,115,181,158,51
179,266,200,128,119,162,137,42
235,290,203,137,119,147,122,48
235,271,191,136,117,140,140,74
232,289,183,137,106,116,146,76
252,333,210,131,93,109,142,78
269,335,202,122,75,106,140,76
213,328,208,121,70,127,130,70
211,328,210,132,72,137,121,43
240,314,207,125,71,182,111,41
202,300,174,120,84,186,114,41
171,276,187,114,84,181,113,40
170,307,150,104,86,167,116,43
177,292,157,118,95,187,120,44
127,293,160,120,104,153,118,41
124,253,171,118,96,147,117,38
150,280,158,112,92,152,111,36
153,228,168,109,90,138,106,33
148,231,165,80,76,112,96,32
150,223,157,85,73,108,123,35
148,244,171,96,75,105,123,35
124,245,177,107,76,101,124,36
123,231,166,104,73,100,118,38
116,259,184,101,74,116,126,33
116,260,200,93,76,105,107,31
134,286,196,85,74,106,107,37
178,262,196,63,79,107,107,49
174,278,196,64,83,108,105,51
172,252,176,64,85,73,92,52
174,258,164,64,75,80,79,51
188,223,138,70,70,76,71,47
156,225,143,75,63,76,80,32
158,225,142,80,65,118,87,32
176,233,140,89,81,121,101,42
183,320,146,89,80,119,98,43
182,333,140,83,80,127,99,45
178,342,162,93,86,130,91,49
179,362,159,88,85,102,97,48
163,363,179,82,66,100,71,39
165,282,180,82,65,97,77,42
175,289,174,82,69,104,78,41
174,304,147,86,83,104,80,38
173,289,155,98,87,96,75,37
182,303,128,99,89,95,86,37
183,314,114,98,91,99,84,32
148,303,135,98,96,100,104,50
143,291,141,90,81,101,112,50
155,319,169,83,75,114,113,52
139,318,167,83,70,122,103,53
145,329,174,80,69,133,127,53
157,319,165,81,55,120,109,36
159,315,156,73,55,126,107,40
163,302,178,110,63,114,107,36
180,316,193,110,64,115,105,37
169,292,187,112,64,103,72,36
159,279,183,111,62,105,75,36
155,278,179,110,74,113,76,31
132,274,121,73,69,119,74,31
158,262,123,84,70,110,77,35
164,286,121,83,72,114,84,37
162,298,133,80,76,119,85,41
160,303,137,81,58,103,78,39
195,314,155,98,57,105,85,37
158,317,142,88,58,109,91,32
142,321,195,93,62,107,89,30
143,317,185,98,55,113,93,32
168,313,203,104,67,112,96,40
150,294,228,98,72,122,99,45
156,306,236,101,79,127,114,56
177,288,200,97,73,129,116,59
197,299,213,95,76,119,110,57
180,309,204,101,78,122,135,54
170,318,162,115,74,117,125,50
173,291,167,121,70,164,122,40
163,298,180,121,74,169,121,37
150,311,193,124,78,173,126,39
149,296,185,115,66,173,98,34
143,280,207,96,71,170,94,37
149,314,196,94,80,121,70,38
142,301,185,94,80,112,74,32
134,275,163,88,74,117,92,33
140,271,168,88,78,109,90,34
151,256,141,83,69,106,90,33
151,254,167,75,63,109,94,35
152,251,165,74,58,129,98,40
144,253,159,71,68,125,84,39
132,259,150,70,66,128,84,42
155,281,157,87,82,123,93,43
139,243,124,89,76,115,93,41
137,232,121,87,79,109,88,38
140,237,132,88,72,104,109,43
159,228,138,92,73,104,109,44
149,243,171,99,68,104,104,45
150,253,173,95,66,102,108,46
151,288,178,99,65,76,101,46
172,285,169,102,64,72,69,42
164,361,199,114,71,68,76,40
149,361,177,96,77,109,84,45
154,356,178,94,77,114,98,45
152,330,172,92,77,112,96,46
167,333,173,87,76,112,102,43
169,273,136,84,68,117,106,42
162,258,168,87,61,81,99,36
155,315,192,98,61,79,86,48
184,331,195,98,62,86,93,47
162,338,193,97,64,106,101,50
147,309,191,80,65,118,110,50
153,313,156,82,59,118,119,50
166,273,142,75,63,113,114,38
136,273,141,76,59,108,121,39
115,263,149,87,62,89,112,37
118,268,158,89,62,78,92,35
159,272,178,79,53,75,104,32
159,255,168,82,54,75,105,30
154,234,171,80,61,79,103,29
155,231,171,78,56,77,103,26
152,239,161,77,54,59,103,25
121,225,134,79,53,61,76,29
124,228,127,75,48,57,72,29
124,243,126,74,44,45,58,28
133,245,129,68,46,46,62,31
138,266,139,88,48,59,72,33
118,257,135,90,49,56,73,32
111,246,142,90,46,56,73,33
138,254,136,92,43,59,73,33
135,256,126,89,44,61,70,31
137,251,154,79,43,50,60,28
150,260,184,74,41,52,67,24
140,266,192,68,47,83,80,24
141,262,213,68,51,90,81,27
143,318,215,66,72,90,78,30
166,445,224,68,107,92,76,37
165,569,201,71,140,98,75,43
192,624,198,88,139,75,73,42
291,642,193,97,157,89,94,47
324,632,196,102,150,90,97,46
324,571,159,102,130,91,98,44
330,453,157,103,95,84,96,39
318,383,158,90,95,84,94,38
240,348,138,84,64,60,72,34
197,327,136,80,60,57,79,35
261,307,177,78,57,63,93,32
264,300,182,94,73,71,89,34
272,295,186,101,77,71,86,36
271,321,193,98,76,69,84,37
278,317,191,99,82,71,98,38
200,287,157,100,81,73,82,39
175,309,197,90,70,69,83,38
195,316,198,84,64,71,82,37
227,304,193,86,64,80,103,37
236,298,191,85,59,83,90,37
365,314,212,79,64,78,93,44
403,335,191,76,67,81,96,48
400,342,220,81,68,99,103,50
381,330,222,84,65,100,86,47
375,321,233,86,70,98,84,52
340,313,222,85,68,97,82,47
299,266,235,85,59,94,92,46
320,254,205,84,62,78,99,48
322,250,230,82,85,69,117,53
356,249,225,89,82,87,125,53
279,243,219,90,80,96,127,52
276,220,208,84,90,94,118,51
270,217,239,82,86,92,105,50
274,232,221,86,66,91,98,48
212,237,231,87,71,76,82,45
259,245,238,93,81,78,81,44
299,265,235,94,72,86,82,43
269,259,198,95,79,96,110,41
248,263,204,91,80,99,97,46
256,307,197,89,81,110,98,46
273,318,183,89,77,104,96,47
243,325,174,87,76,94,93,45
252,327,198,101,71,84,57,46
264,322,184,109,82,82,82,39
320,306,189,108,76,68,96,39
269,303,207,112,69,70,98,39
327,298,206,115,72,73,99,40
348,313,223,111,77,74,104,37
352,332,241,113,69,95,92,39
305,311,231,113,67,99,81,36
344,315,229,105,66,99,78,34
274,314,223,109,68,107,101,35
312,350,215,104,75,113,103,36
314,341,193,103,73,94,96,37
327,362,210,107,72,84,99,38
288,334,196,108,80,99,100,38
296,328,216,104,81,93,77,38
233,264,175,96,74,84,67,35
278,265,176,85,71,83,63,33
265,275,177,75,71,81,52,34
269,292,177,80,72,80,53,35
279,287,154,79,71,86,52,34
285,299,166,78,66,88,53,35
237,294,177,76,64,91,51,35
232,267,170,76,65,90,45,31
261,263,169,80,64,68,38,29
246,284,167,80,74,56,36,28
240,275,152,80,74,64,37,25
216,252,163,82,74,73,33,25
265,257,163,89,75,78,48,36
244,274,187,80,71,79,57,39
273,252,197,98,83,83,58,39
257,281,216,99,84,75,57,40
263,278,217,102,85,74,61,40
247,271,213,108,84,69,86,33
231,298,213,112,88,72,84,31
203,303,216,117,71,67,85,30
206,302,213,128,72,70,86,30
213,319,207,138,84,100,87,36
161,329,205,132,83,104,53,38
166,291,209,128,77,106,48,37
225,293,207,107,72,107,45,36
224,269,216,99,70,104,42,38
214,263,205,80,54,103,34,31
229,288,219,79,55,105,34,28
238,318,213,79,54,103,33,29
230,310,198,82,54,104,32,31
224,356,245,90,56,103,32,27
227,353,270,95,53,65,29,29
219,335,274,103,57,60,29,28
220,326,270,99,55,55,27,27
183,341,280,113,63,55,26,27
189,288,251,145,72,57,26,29
188,313,254,151,80,55,27,26
187,300,260,148,79,70,31,30
188,314,293,153,80,78,37,33
198,327,298,149,76,78,39,37
253,383,302,133,75,78,39,37
249,356,285,127,73,82,45,38
246,345,259,123,77,88,56,37
246,333,212,127,84,82,55,36
224,330,229,139,80,86,65,32
160,322,206,127,79,95,70,32
163,340,215,126,74,114,79,33
172,372,237,131,67,101,69,32
143,357,260,125,62,105,69,31
131,365,247,118,61,105,59,29
117,595,245,105,66,101,56,30
125,783,246,106,71,108,44,30
107,832,230,99,72,126,47,29
165,833,216,97,71,140,53,29
174,829,222,85,77,141,57,29
193,674,233,94,68,142,59,28
187,436,219,88,71,129,57,24
213,344,255,94,69,113,56,23
186,359,268,100,68,103,48,25
179,347,260,101,64,102,46,28
166,331,258,98,62,103,40,31
168,360,286,106,71,102,59,33
145,323,251,103,76,114,67,38
136,323,246,115,80,109,85,47
139,342,238,125,82,108,84,47
179,377,234,150,85,111,86,47
196,351,213,152,84,123,92,51
192,369,220,153,82,115,93,51
195,471,262,150,84,113,93,45
201,462,286,158,90,118,94,45
289,474,320,161,94,124,98,49
295,480,393,185,106,114,116,57
307,523,488,199,111,129,126,58
316,467,539,233,110,127,117,56
315,459,531,222,111,122,117,55
211,419,515,214,106,108,113,50
195,415,477,188,92,113,91,38
179,427,402,189,87,95,79,34
191,379,310,154,90,94,78,38
181,411,305,158,92,98,79,38
188,424,303,147,109,121,89,41
186,430,278,151,104,104,76,40
180,350,262,144,103,102,82,39
133,378,284,132,103,124,91,38
176,355,302,136,119,137,96,46
181,346,294,135,113,120,94,45
179,384,319,160,120,127,99,44
179,400,336,164,124,140,107,51
192,387,305,156,138,141,153,89
220,467,297,166,122,136,160,88
212,486,342,195,125,144,163,95
204,551,410,191,126,148,162,99
206,548,399,184,128,138,155,97
205,580,428,205,110,126,107,63
159,575,456,215,130,152,107,60
162,588,457,196,127,146,100,59
163,488,382,184,125,136,111,55
157,485,371,185,118,147,105,54
152,487,335,172,121,180,105,52
132,494,344,156,98,149,107,48
148,450,295,152,85,148,103,34
147,446,287,145,76,152,88,30
179,447,284,138,76,143,91,41
179,389,276,130,81,113,89,53
201,283,216,129,82,114,80,63
185,278,226,125,85,118,94,67
186,290,204,123,85,111,91,66
176,263,202,128,88,111,97,66
179,260,211,125,80,88,90,63
148,262,246,105,74,90,101,55
150,303,242,121,75,94,106,63
154,306,259,132,80,105,117,72
143,306,262,124,80,99,126,68
145,306,265,134,80,106,131,64
170,341,227,138,81,106,117,73
164,324,223,121,82,122,156,115
166,427,257,142,87,125,169,113
199,465,286,153,84,130,161,114
194,511,304,157,88,130,185,117
193,496,355,168,107,133,212,117
201,537,422,195,128,135,212,77
210,471,416,184,126,126,198,75
186,461,393,175,127,123,200,73
204,396,386,165,126,131,188,71
209,394,343,176,114,128,161,63
212,316,255,150,88,116,127,49
230,336,267,155,93,131,149,45
235,304,265,157,91,132,152,45
252,326,238,151,88,122,144,43
280,327,243,120,87,135,152,48
316,406,245,116,89,131,146,56
292,359,197,92,81,140,137,62
300,372,195,95,81,143,152,65
297,411,212,118,79,153,169,71
269,398,303,130,79,158,192,85
243,336,319,142,86,154,212,90
255,392,336,142,85,133,220,92
271,444,358,158,99,163,248,113
262,476,378,182,102,163,246,117
279,480,289,177,101,147,225,108
267,491,268,163,96,152,216,111
280,519,271,170,103,157,202,108
252,561,264,165,92,123,152,91
302,537,245,147,93,106,134,79
287,547,252,149,92,129,139,81
281,522,251,147,83,124,129,64
266,475,233,150,74,119,137,66
257,387,213,140,70,111,142,54
172,326,193,120,62,112,141,54
195,285,185,108,58,112,128,44
197,302,174,116,60,113,137,49
212,272,148,120,56,117,127,51
212,252,158,113,54,118,150,51
218,272,142,107,56,126,150,54
173,301,135,110,66,112,157,53
199,285,154,104,74,112,141,55
176,292,179,90,80,123,137,49
197,297,168,101,86,131,94,51
200,277,197,99,88,124,102,74
197,249,213,99,79,114,86,74
171,251,198,97,84,111,103,71
176,280,196,87,80,95,107,70
153,283,198,85,85,89,117,68
146,298,170,85,83,94,108,45
151,301,146,84,90,113,111,49
139,320,183,84,82,114,93,48
131,301,182,84,79,111,102,45
131,325,185,94,74,114,89,48
136,342,189,93,79,138,103,47
138,343,192,90,73,123,102,42
150,332,236,96,67,121,106,43
149,329,230,95,68,123,102,45
157,273,233,71,63,120,106,42
159,254,252,77,52,100,94,41
148,259,259,88,53,104,94,40
135,252,215,94,62,110,96,41
169,280,203,98,68,105,86,47
169,283,186,97,64,103,96,48
158,295,155,95,64,91,91,42
162,277,160,93,61,88,100,45
156,293,141,97,67,97,98,42
209,291,156,106,69,102,102,37
204,295,163,108,70,100,86,34
209,263,177,110,74,112,94,35
240,286,183,105,75,113,83,36
251,281,180,94,78,101,87,39
214,273,194,86,74,118,105,36
216,285,206,87,76,123,107,37
223,286,209,82,73,115,103,38
187,275,192,82,73,126,104,35
187,330,196,84,59,121,97,37
162,335,175,82,52,101,78,36
155,341,172,87,66,98,80,36
133,334,170,85,67,107,79,34
158,352,179,102,70,112,147,35
163,295,171,99,71,114,144,33
157,253,165,94,70,115,142,33
165,298,167,104,66,112,141,34
182,313,169,104,69,115,150,47
174,292,152,85,67,95,90,49
162,286,158,81,68,94,92,48
156,299,167,84,71,93,93,53
187,232,154,64,66,93,90,53
172,224,128,60,62,61,75,41
169,277,133,61,59,55,68,40
172,291,148,63,59,74,87,43
185,287,143,56,58,76,86,38
175,294,168,58,54,76,86,37
175,294,172,63,61,80,83,36
169,256,190,64,67,100,109,37
168,244,172,61,64,91,94,32
173,245,175,71,68,91,107,33
183,232,148,74,70,89,111,34
185,269,167,81,68,105,111,42
184,252,145,80,70,93,96,44
191,258,148,87,70,84,93,46
176,250,153,84,71,98,77,48
146,269,189,80,71,108,78,49
145,234,178,78,65,99,75,44
156,247,191,80,57,105,83,45
156,235,191,78,61,110,89,44
172,282,183,78,57,97,90,41
161,303,182,82,59,86,83,43
160,301,186,78,60,81,83,44
190,309,181,76,63,94,59,42
184,323,182,80,69,119,55,43
165,305,187,88,68,130,52,45
165,268,159,86,65,132,51,41
166,265,201,89,84,133,53,37
157,264,200,95,84,116,51,33
147,252,196,87,76,103,60,29
159,237,189,78,79,93,60,29
161,235,195,77,80,88,61,32
161,231,134,69,57,86,58,32
133,222,134,58,61,107,61,34
131,257,149,62,62,94,66,35
129,269,151,55,52,87,63,37
152,289,157,76,52,89,61,39
150,292,162,81,53,91,62,38
133,287,157,84,52,78,58,38
143,247,143,82,60,83,39,37
132,226,146,85,63,87,40,35
167,210,115,70,61,84,39,36
166,243,143,67,60,81,37,40
173,238,146,68,60,69,38,42
182,239,145,68,54,63,38,42
182,241,141,65,54,60,41,40
121,218,143,56,50,61,42,35
144,212,131,59,52,63,43,30
141,216,121,58,48,56,41,24
130,227,149,61,48,53,40,27
132,218,147,60,46,47,35,30
138,231,145,63,49,45,36,39
124,219,125,65,56,46,33,42
127,224,134,60,54,48,33,43
121,233,111,66,50,46,29,44
116,242,117,67,57,50,30,44
114,239,132,65,55,54,29,37
99,228,131,62,49,48,29,34
113,222,122,61,60,45,28,35
116,202,122,54,94,44,28,32
122,205,118,51,94,41,28,33
116,203,106,51,95,38,27,32
119,194,109,44,95,37,32,30
115,211,150,62,91,44,33,32
125,219,150,59,55,51,45,33
146,233,154,60,47,52,44,34
144,238,161,61,44,52,45,35
153,242,180,75,45,61,41,37
142,224,149,65,38,60,42,39
150,218,139,62,39,55,28,48
130,198,133,64,48,74,28,51
144,196,118,62,47,75,31,52
150,218,112,60,48,68,31,51
144,238,109,59,49,66,28,47
149,228,123,63,53,66,28,35
146,235,162,72,46,51,36,31
141,231,168,81,47,53,36,29
131,209,146,72,41,52,39,35
135,195,149,72,41,52,40,37
118,223,143,70,39,66,47,42
122,240,114,70,43,63,43,44
125,250,111,60,45,65,41,49
124,292,113,56,46,68,47,48
121,303,110,57,45,71,56,46
128,295,105,57,45,59,52,43
137,292,134,62,41,56,52,40
129,299,134,66,38,50,53,34
126,271,131,66,36,40,46,33
124,271,138,68,39,51,40,32
142,265,154,70,38,49,39,34
158,249,139,59,40,50,37,34
162,242,155,59,39,52,38,35
160,234,160,60,40,56,39,38
159,237,162,56,41,49,36,38
135,237,149,58,39,49,33,37
123,240,146,62,39,48,32,39
146,248,136,59,39,49,35,41
145,251,152,63,42,89,43,41
150,240,143,63,40,99,44,46
175,251,169,62,43,108,47,47
165,273,165,65,45,109,51,45
149,274,159,69,48,113,51,46
148,294,151,66,47,97,44,42
170,295,155,69,46,107,47,40
159,296,126,70,48,102,46,38
155,270,110,60,44,102,44,40
152,263,131,61,48,98,41,41
161,237,141,68,57,85,81,40
148,253,145,70,61,55,80,39
117,225,140,68,60,49,82,41
145,245,159,71,65,47,84,43
151,244,141,65,61,50,84,44
140,242,119,62,54,49,50,47
130,217,106,61,55,75,49,46
140,228,119,57,54,77,45,50
160,225,113,57,52,90,56,53
155,219,120,64,52,87,55,50
156,247,135,65,52,87,57,48
167,248,135,61,49,64,61,46
178,258,131,79,54,71,77,40
140,248,115,78,59,57,75,36
158,285,118,83,60,78,83,39
165,258,99,79,57,80,81,39
158,253,104,82,54,86,88,40
134,244,103,68,48,91,94,42
148,259,120,76,45,95,105,37
132,216,122,72,44,94,130,35
123,214,125,77,46,95,131,38
229,264,121,81,57,98,128,41
244,304,126,88,57,105,116,39
238,307,116,79,53,106,113,39
249,322,105,73,53,97,93,39
251,342,112,71,65,99,89,34
171,428,117,68,64,92,86,30
153,419,123,62,62,73,89,29
186,401,117,67,62,67,83,31
168,395,113,75,62,74,68,27
170,379,99,72,47,69,79,28
183,261,114,91,37,71,101,31
210,251,99,91,37,66,97,34
177,249,113,88,32,66,94,34
199,244,118,83,38,60,98,36
197,243,136,87,39,59,91,36
185,224,130,69,46,56,64,32
157,282,131,65,47,58,62,35
152,288,130,73,53,60,62,34
122,297,133,76,51,53,54,34
113,301,122,70,52,50,51,34
133,296,108,65,46,48,50,34
132,249,122,65,46,50,66,30
152,257,149,57,43,40,59,33
152,243,143,51,40,44,56,33
158,250,144,56,43,52,66,37
162,286,168,57,45,55,74,38
160,288,162,54,47,52,61,36
143,301,133,59,46,55,76,32
137,303,133,56,49,51,79,29
150,308,129,67,55,46,81,33
117,300,121,73,58,88,84,42
122,289,137,77,57,93,93,44
186,295,156,71,60,99,99,47
206,288,176,74,62,123,124,57
196,280,189,73,57,127,132,56
215,277,186,99,56,113,156,51
264,308,204,102,59,131,160,56
248,280,211,109,62,148,160,61
249,305,238,111,60,139,145,52
260,314,256,116,66,150,165,50
339,339,266,96,78,145,203,72
340,306,255,96,78,128,222,69
352,322,265,103,94,110,291,67
390,357,273,128,101,121,312,69
396,367,334,144,102,125,311,71
341,356,329,146,93,130,298,52
316,351,340,156,107,137,292,58
299,353,330,154,91,139,222,58
262,325,323,140,92,121,196,56
256,326,267,125,100,107,189,53
240,336,283,123,105,114,197,66
225,356,276,113,99,124,197,77
307,336,282,107,102,121,212,78
319,325,280,124,98,125,244,93
317,301,299,120,90,117,248,96
317,259,300,115,81,108,223,87
322,246,308,108,73,95,220,74
246,328,306,110,66,97,224,77
257,332,291,85,60,95,187,63
248,333,251,76,53,98,168,62
281,343,272,89,60,104,165,60
275,367,250,97,59,104,183,59
266,299,249,96,59,99,169,48
230,308,243,101,57,90,169,44
237,320,230,97,56,88,188,40
206,301,180,103,58,74,181,44
207,262,198,97,57,91,165,42
202,272,186,97,67,95,166,43
227,264,187,87,65,97,167,47
219,237,183,91,73,99,146,46
234,326,196,79,78,112,144,44
239,362,182,86,80,100,139,47
242,376,194,88,73,101,159,46
209,361,207,87,77,100,152,44
208,378,225,99,86,101,160,46
175,312,213,102,83,96,188,41
167,278,207,104,82,88,182,38
153,246,182,101,83,85,152,41
198,256,156,102,86,88,168,39
223,253,170,91,77,84,160,39
210,272,181,88,67,74,134,40
220,261,189,85,62,72,182,44
239,276,193,89,67,81,202,44
218,283,197,93,71,86,195,49
201,278,194,93,68,89,201,48
223,296,198,104,74,85,197,49
215,322,202,107,81,88,159,54
257,322,211,108,82,82,152,56
257,358,239,108,77,93,167,62
273,400,226,123,72,107,198,70
262,381,226,115,75,119,202,73
303,375,226,119,72,124,211,72
275,373,226,125,69,135,242,95
278,317,190,135,70,123,236,100
278,282,187,125,85,120,228,97
295,303,169,123,84,126,242,96
261,318,171,116,93,127,243,93
233,308,161,103,93,117,201,64
229,324,164,89,90,116,198,48
212,300,165,90,80,106,182,47
190,298,190,106,77,89,181,44
190,271,168,102,74,97,159,47
194,276,163,105,74,91,152,46
171,259,165,106,78,92,153,54
229,289,162,117,86,95,144,70
226,277,144,104,91,92,116,87
242,289,148,102,86,68,114,130
240,302,151,106,87,76,117,133
248,327,158,105,91,90,117,136
186,311,175,96,82,89,114,128
233,300,178,89,73,89,107,119
206,271,190,93,77,125,114,73
229,263,205,87,90,125,135,73
227,257,207,97,89,119,155,70
223,258,204,94,92,119,156,70
252,297,218,108,94,126,154,68
253,356,254,123,93,101,155,64
267,373,276,145,80,98,154,61
273,377,275,140,77,98,124,50
278,382,274,173,78,96,126,45
201,353,267,167,80,98,139,46
212,300,260,157,81,96,155,49
210,295,257,146,83,92,139,47
204,327,289,144,83,104,139,59
206,312,285,98,79,108,137,68
213,312,276,97,81,101,131,69
198,322,250,104,77,89,115,63
235,310,220,92,72,89,115,65
234,294,203,96,70,65,116,61
253,289,196,94,67,66,116,61
257,305,200,100,67,74,121,60
261,295,196,91,62,83,112,61
196,304,202,94,61,87,110,60
193,271,190,91,58,87,106,53
170,269,205,95,59,100,131,44
168,259,215,104,57,96,118,56
161,274,247,118,69,95,121,58
216,285,254,114,69,94,121,59
213,303,252,111,74,114,121,76
223,322,248,109,78,104,127,81
224,320,234,103,82,102,142,73
226,317,231,101,71,115,135,85
174,312,233,100,74,127,134,92
237,300,234,111,70,121,154,79
231,307,236,116,67,113,122,78
223,314,234,115,63,118,111,76
229,338,208,108,64,113,113,68
229,341,219,125,60,102,116,72
169,349,203,113,61,94,92,77
151,332,209,112,64,104,97,73
143,323,207,102,63,97,94,74
131,291,195,100,66,92,92,68
121,287,184,88,69,90,97,53
116,281,188,90,71,96,97,45
117,312,165,89,69,92,97,40
116,309,166,89,63,92,96,44
123,314,180,85,57,88,104,40
129,324,171,83,60,87,105,42
138,308,170,84,57,83,118,42
130,287,171,77,66,93,116,44
138,282,188,78,70,91,113,42
135,273,174,79,71,89,108,43
147,259,187,78,69,87,112,45
135,278,191,81,72,98,112,51
141,273,206,80,70,95,114,50
135,268,205,74,64,95,116,46
149,270,221,74,66,93,116,47
170,284,203,71,62,92,97,44
165,305,243,72,56,77,88,40
168,300,233,72,47,68,80,47
166,297,241,87,63,78,114,52
157,314,225,85,66,81,115,52
117,308,235,94,72,86,116,51
126,280,185,90,73,83,119,48
114,285,184,96,77,80,120,43
124,295,158,94,72,73,90,41
158,285,159,102,70,73,87,45
155,264,136,94,66,70,98,49
144,261,147,91,68,66,89,51
154,258,146,86,64,66,93,52
148,275,167,76,66,67,100,51
170,293,169,74,64,65,99,45
179,298,186,71,62,64,88,43
174,297,175,71,59,67,96,43
174,302,185,70,60,78,99,42
187,297,169,70,64,79,103,41
162,289,171,58,62,85,103,41
159,291,159,60,63,82,103,38
174,274,162,61,71,84,87,39
176,269,147,65,77,105,73,35
193,262,151,65,69,118,55,34
172,250,155,80,70,119,54,31
172,244,149,83,70,123,54,31
166,260,150,84,74,133,53,32
158,264,147,80,70,117,57,36
152,293,142,87,69,99,53,39
152,300,143,73,67,98,60,41
145,297,140,82,70,95,72,40
147,309,131,82,57,76,71,37
149,319,136,86,57,73,66,32
124,303,134,92,59,83,76,29
142,288,115,91,60,85,77,37
150,285,125,77,53,82,69,44
144,282,149,92,55,81,68,47
143,257,146,93,54,76,67,48
138,247,141,80,47,74,55,46
143,250,156,83,62,71,46,40
158,264,157,87,64,71,45,36
167,261,145,66,64,70,42,36
174,321,162,68,62,76,51,39
171,321,154,66,62,70,56,40
143,328,145,60,51,80,64,37
140,366,158,67,50,83,65,36
131,358,153,69,53,86,65,34
122,310,134,63,53,83,64,32
120,298,145,62,54,88,64,38
117,307,172,71,53,78,57,40
111,263,144,62,56,76,52,40
102,274,141,61,50,73,56,42
105,280,145,66,53,70,48,40
119,303,151,73,52,62,39,40
128,274,119,65,60,56,39,39
144,279,135,69,69,64,78,44
154,261,158,68,68,87,80,48
154,250,154,68,71,87,89,49
150,239,147,80,84,91,91,44
175,233,154,83,79,107,96,43
157,228,144,84,74,115,89,39
157,229,122,89,73,98,97,38
168,258,148,88,77,100,91,35
175,261,161,79,67,108,90,34
153,265,185,76,72,107,88,46
151,249,191,71,71,106,91,43
146,268,198,74,76,109,85,42
137,239,183,77,67,118,90,44
124,232,181,76,71,140,97,44
139,259,165,81,65,135,94,34
141,272,174,84,76,127,73,33
140,269,164,81,74,127,66,32
133,268,164,80,72,120,57,29
131,266,153,82,66,78,49,34
107,245,136,74,64,75,56,34
129,225,123,68,48,78,62,37
144,207,126,68,46,70,59,41
142,223,121,69,55,66,66,43
144,216,117,62,59,69,61,38
152,206,111,63,60,62,58,38
127,225,108,68,59,78,57,43
131,300,99,68,60,87,62,44
143,306,103,66,59,92,62,43
148,348,122,69,67,87,66,43
149,361,136,73,71,90,70,42
161,358,129,71,71,76,86,40
144,292,135,68,74,65,96,36
147,272,132,65,67,55,92,37
144,288,125,68,62,57,101,40
130,288,113,67,62,52,101,40
155,291,113,68,67,48,85,35
154,303,106,68,66,56,71,36
147,326,117,65,65,58,81,38
150,263,119,67,73,79,91,38
155,246,129,63,70,80,88,41
147,243,132,62,68,81,87,43
143,249,142,62,66,77,85,49
133,220,130,68,71,79,86,48
127,212,131,55,64,62,59,45
144,253,119,63,60,67,109,42
114,257,122,61,58,66,116,41
116,275,118,67,59,64,120,35
114,271,119,62,53,59,120,39
134,282,103,70,53,54,120,40
114,251,120,65,55,45,81,42
129,253,119,62,56,45,81,42
129,240,114,59,60,56,85,46
134,275,126,62,60,65,80,41
112,265,118,55,62,65,81,41
158,261,107,63,62,68,80,38
140,252,102,65,64,75,80,38
151,252,112,80,62,99,121,33
150,230,106,77,66,93,122,34
177,239,109,80,58,95,123,33
153,251,103,77,56,94,119,36
156,251,103,85,73,109,127,35
149,219,104,74,74,83,90,34
150,216,93,76,71,85,91,34
120,217,101,73,69,86,91,34
117,230,112,70,70,85,94,32
114,250,120,67,48,60,95,32
118,270,115,62,41,65,84,30
119,260,116,61,40,63,81,30
115,250,115,59,43,61,83,32
99,232,113,63,44,60,87,30
100,204,124,53,47,56,68,29
113,193,120,56,47,52,82,31
106,193,122,53,47,55,80,32
108,191,122,55,46,70,84,29
123,210,118,54,42,71,92,29
138,223,107,56,38,70,94,34
134,227,129,70,50,81,87,44
136,233,124,73,55,86,95,46
150,238,122,74,55,74,90,46
142,237,142,72,57,74,89,48
127,215,141,78,59,73,83,44
128,218,120,63,50,64,77,31
125,205,123,58,53,58,78,28
124,230,133,66,56,58,83,29
129,226,117,64,57,56,71,32
127,239,105,59,55,57,74,37
124,229,105,60,57,55,82,36
130,252,108,63,47,48,81,38
121,247,100,62,47,53,77,39
109,240,98,63,52,57,85,35
124,237,101,60,53,58,82,39
146,259,108,63,54,61,103,43
156,260,105,68,56,64,105,39
154,242,108,61,69,63,104,44
158,246,124,67,69,62,109,43
152,234,126,66,70,67,111,43
121,215,123,67,69,71,100,39
102,200,123,64,69,82,98,42
122,197,134,68,59,85,100,36
128,191,123,64,60,85,103,40
130,200,121,68,61,81,105,38
131,211,136,71,72,75,93,38
133,256,158,82,75,69,90,38
112,300,175,85,72,66,89,37
91,305,178,86,71,64,79,33
79,322,189,84,70,78,83,33
136,334,183,94,63,79,89,34
137,307,169,90,59,70,87,31
139,309,159,93,56,76,86,32
144,308,169,92,67,79,112,34
154,305,159,102,67,78,115,30
129,276,168,91,71,79,113,31
127,263,161,83,71,78,112,31
132,225,141,70,70,69,116,35
127,226,138,80,72,68,92,34
114,208,140,82,72,78,104,33
100,238,138,83,70,89,115,33
137,236,147,85,68,91,111,34
135,228,150,91,71,118,112,38
145,225,137,84,58,121,138,41
147,254,141,72,63,107,123,45
142,238,134,78,59,102,136,46
136,247,132,81,62,104,146,46
135,285,153,91,63,78,146,40
129,282,145,93,68,77,139,38
126,257,152,90,64,76,140,36
118,299,165,107,72,78,132,36
117,293,166,106,76,75,138,39
129,260,144,98,80,71,147,40
125,261,150,91,75,67,135,41
125,275,166,97,75,72,136,40
125,220,152,68,70,65,129,37
88,230,147,65,61,66,112,33
113,230,141,56,52,63,97,30
113,223,142,61,50,67,89,27
120,216,105,69,49,73,103,30
142,236,138,91,43,70,93,32
150,230,137,90,44,66,90,31
124,219,142,92,44,75,120,33
127,217,134,87,43,69,116,32
120,229,158,86,41,58,110,30
97,241,128,65,39,54,110,27
98,236,125,64,40,55,110,29
108,245,129,68,39,38,75,27
110,257,134,81,45,39,79,27
110,251,117,78,43,42,70,28
113,231,129,90,56,46,68,28
105,241,130,93,58,45,67,28
90,237,118,94,58,54,63,29
137,259,115,98,59,61,86,34
141,267,100,94,64,64,99,33
139,265,81,83,53,64,103,34
147,270,89,90,55,65,103,35
142,284,101,87,54,68,113,34
98,250,100,72,48,62,110,33
90,230,106,74,46,55,94,31
130,227,123,78,55,51,88,31
121,227,122,76,51,53,95,29
128,246,122,82,56,82,121,30
127,245,122,86,60,88,110,31
134,249,115,83,56,91,114,37
93,247,103,74,50,93,120,36
100,266,108,67,47,95,114,40
91,229,109,59,39,62,99,39
86,253,113,53,32,71,107,36
84,261,138,59,35,69,117,31
115,278,136,72,32,69,118,34
114,250,136,71,32,65,118,33
117,263,150,76,40,83,104,35
117,244,152,75,40,80,103,35
125,220,134,75,43,86,105,35
105,237,138,67,41,84,98,34
121,232,134,70,41,85,97,32
126,224,120,71,37,73,89,42
130,244,153,82,42,66,116,45
131,245,153,80,40,57,120,46
126,204,144,75,42,56,121,44
124,229,150,75,45,54,124,51
126,235,158,80,44,45,145,40
139,209,120,68,38,47,124,37
129,222,117,65,41,46,110,36
153,246,121,78,42,50,112,40
159,234,112,76,46,54,110,34
158,235,96,64,49,58,88,38
149,248,103,75,52,53,105,40
146,246,106,76,53,57,119,45
120,228,123,68,52,52,118,53
137,239,122,67,49,62,122,59
159,243,126,71,46,71,137,62
159,233,121,59,43,70,116,65
162,226,120,62,37,67,112,65
170,215,99,58,37,69,110,59
151,227,111,72,38,60,109,51
125,215,114,73,39,43,84,45
122,222,112,87,43,50,99,38
132,233,111,84,42,50,85,36
183,272,107,83,44,55,81,36
173,253,101,77,47,59,77,38
176,270,94,84,56,61,113,41
179,266,105,74,56,58,111,44
188,259,98,76,57,58,121,44
140,224,96,77,56,58,127,50
151,232,96,75,51,52,144,49
144,224,111,64,45,51,118,46
154,258,123,60,43,51,112,49
139,251,131,58,40,51,107,46
136,257,129,61,44,46,105,39
129,257,125,64,46,51,90,39
141,259,125,63,41,58,99,38
130,239,114,63,41,56,107,32
126,258,111,62,42,56,103,32
116,248,125,60,40,57,102,28
157,260,128,55,38,57,97,36
147,255,120,61,50,60,103,37
157,250,131,68,50,61,106,38
155,239,132,68,52,73,127,38
192,255,121,69,52,70,127,37
167,233,127,67,54,67,134,32
177,262,129,62,42,57,121,34
162,258,121,51,41,60,120,33
167,256,135,51,37,44,93,35
176,260,144,63,37,47,98,37
171,265,138,66,40,50,87,34
164,232,132,73,44,51,89,32
166,225,124,76,44,60,80,31
177,233,112,77,49,60,84,30
127,225,109,73,51,57,78,27
121,213,106,67,47,56,81,28
125,239,108,64,43,54,80,27
133,252,110,64,43,38,73,29
111,266,110,63,39,39,101,35
125,260,104,56,35,40,101,65
140,278,106,59,34,39,98,90
143,257,97,51,37,37,96,92
137,259,101,56,41,48,95,93
135,249,100,53,46,51,83,93
120,255,102,52,47,54,85,80
119,250,100,50,46,53,84,57
109,263,111,54,47,69,91,56
103,259,110,51,47,70,105,54
110,270,105,56,44,70,92,50
114,269,102,54,41,67,89,46
114,299,106,59,41,67,88,44
130,276,111,56,40,53,87,49
140,292,106,55,35,41,70,47
144,277,114,57,38,44,84,47
145,267,136,63,41,44,81,46
128,222,138,60,43,51,94,42
146,226,122,60,42,48,99,38
146,198,120,60,44,62,147,41
143,193,113,56,48,68,143,41
141,213,96,59,47,69,151,43
145,235,112,67,53,69,157,49
129,243,115,68,54,75,167,49
132,235,124,63,56,73,146,49
123,264,130,68,50,65,161,51
128,253,130,59,49,64,156,52
126,254,112,51,44,60,142,46
100,259,121,51,44,53,133,42
100,267,119,52,42,44,127,46
125,254,110,51,46,46,102,49
130,249,112,55,48,49,105,48
127,233,112,61,46,53,108,48
129,224,110,64,50,56,94,50
156,222,120,69,50,53,78,47
141,212,146,66,52,58,93,41
153,221,142,66,49,56,87,38
168,204,149,59,51,56,83,43
182,217,141,57,47,53,87,42
151,226,134,48,55,56,79,42
147,254,112,53,62,47,72,40
122,260,111,55,64,48,75,40
112,279,112,57,64,46,78,35
119,277,127,62,65,52,85,35
129,259,117,71,57,53,86,31
131,224,116,68,44,52,69,31
157,246,124,67,44,54,68,31
167,240,135,68,44,70,97,38
153,291,124,67,46,67,89,40
149,297,124,60,48,67,91,44
148,292,114,58,50,68,92,45
127,270,115,58,50,64,89,45
107,261,88,55,48,46,55,40
96,213,99,51,44,54,85,36
173,225,103,61,44,52,83,34
175,245,103,61,42,55,83,35
174,241,88,55,40,55,82,34
180,252,90,61,40,54,80,32
181,248,73,57,39,45,67,35
114,237,69,45,35,43,73,33
139,249,77,47,33,46,78,30
148,284,73,49,32,48,81,34
138,270,82,44,35,48,83,37
141,271,91,52,39,47,65,36
132,289,100,50,39,55,72,37
103,276,99,50,39,51,67,39
108,232,98,47,38,54,80,38
109,258,100,55,39,52,77,35
104,253,119,59,37,50,75,33
108,243,111,61,38,55,69,36
107,229,110,60,40,53,84,34
88,243,124,67,43,53,72,32
102,254,124,66,41,54,73,33
103,251,108,70,40,54,76,33
99,254,107,70,38,39,71,29
111,250,104,69,37,38,81,31
110,237,88,63,35,37,79,32
120,212,79,57,34,37,84,36
125,206,76,46,34,34,81,37
125,184,77,43,36,33,79,37
116,191,90,44,37,35,44,35
115,181,91,44,36,36,43,33
96,183,95,47,35,44,33,30
97,178,91,44,37,44,33,63
106,206,107,61,41,46,36,72
100,208,94,61,39,47,55,79
107,223,93,67,44,49,54,81
95,211,86,63,42,41,53,80
95,233,105,76,41,43,53,57
113,209,91,68,36,43,52,45
115,212,97,68,37,41,32,34
118,207,120,68,30,38,36,34
119,196,119,68,31,39,34,38
120,179,107,60,33,39,37,37
105,189,106,57,34,37,34,38
105,192,102,59,34,38,34,39
96,182,72,54,34,38,29,33
97,201,86,58,38,42,98,29
95,195,95,51,36,45,103,36
79,201,100,50,38,46,107,41
77,209,109,48,38,46,109,46
75,227,110,47,40,41,110,47
92,213,97,44,37,47,60,47
91,226,100,49,38,61,74,42
105,219,127,52,34,68,81,36
113,219,132,54,33,69,79,29
122,217,138,55,32,68,78,28
107,222,139,53,33,63,79,29
120,205,127,44,32,51,58,41
110,206,99,45,34,49,43,47
106,185,87,44,36,51,43,57
98,177,80,46,34,52,42,58
98,170,84,45,34,50,38,57
69,187,81,48,35,47,38,49
93,197,78,49,36,40,33,44
106,199,120,56,36,37,31,31
108,201,125,57,35,33,29,31
110,212,123,57,36,40,28,31
117,206,124,55,35,41,29,34
110,180,132,56,34,41,31,34
124,198,114,51,32,41,31,31
123,195,106,52,35,43,30,29
126,192,110,52,32,39,31,28
131,200,109,54,31,37,27,21
123,236,111,63,32,36,27,23
94,224,90,62,34,36,27,24
89,243,95,60,30,33,27,25
104,233,90,60,30,31,24,24
99,219,87,60,31,29,23,27
110,186,82,52,34,32,27,32
115,194,86,66,39,39,28,38
122,170,87,67,40,43,31,40
113,182,92,66,40,42,31,41
119,179,92,70,41,45,31,42
121,194,81,62,39,45,33,39
117,199,80,51,33,39,32,32
114,192,83,53,34,36,30,32
113,199,81,53,34,37,29,31
101,220,88,52,34,47,29,31
84,203,87,51,31,48,27,30
88,184,89,53,33,48,27,30
112,205,111,55,36,49,29,30
127,198,110,58,37,49,29,30
125,180,104,54,36,37,31,29
124,204,118,66,37,38,30,33
122,203,116,62,37,39,29,32
96,193,87,55,33,38,27,34
70,188,91,51,32,38,26,35
74,201,102,57,35,37,25,35
96,183,87,48,37,33,21,36
96,195,87,51,36,35,26,36
97,185,91,57,36,36,28,32
96,205,91,60,38,34,29,36
95,196,90,55,35,35,29,36
83,212,95,55,32,35,29,30
100,201,94,55,31,35,27,31
102,209,96,53,31,40,30,32
126,188,90,51,30,42,33,30
130,215,118,65,33,72,33,32
138,203,124,67,33,80,38,34
132,254,129,63,34,81,38,34
127,266,140,64,35,104,42,39
102,275,142,68,35,109,57,38
94,270,118,60,33,94,58,38
153,280,117,65,35,93,60,38
150,249,114,67,37,103,69,39
157,242,101,72,42,98,106,40
165,240,107,73,43,97,102,38
165,222,120,74,46,97,105,35
96,198,108,65,47,92,110,35
159,188,104,71,49,86,115,37
170,198,104,64,44,70,91,34
169,212,109,62,47,64,88,32
172,219,94,62,43,61,100,33
179,226,98,64,42,60,99,33
130,240,94,58,39,53,93,30
136,235,90,60,39,55,95,30
163,225,90,67,42,58,99,35
161,247,91,63,41,59,110,37
154,252,96,62,42,58,111,37
151,252,118,71,44,56,123,40
131,250,121,71,43,45,121,39
90,248,113,60,38,46,122,34
115,219,128,56,39,48,100,34
123,214,126,63,44,51,93,34
117,217,108,60,41,59,83,31
115,208,103,62,43,64,76,29
157,209,104,65,42,67,87,30
150,200,84,69,41,64,95,29
146,206,87,72,39,61,98,30
148,180,97,65,40,53,97,27
160,188,102,65,41,45,105,30
130,177,95,61,40,36,95,32
117,196,92,60,40,42,94,37
125,194,87,49,38,45,93,37
150,191,78,47,37,42,95,39
156,193,85,42,36,42,103,36
152,192,92,44,35,42,117,37
159,188,104,42,33,39,112,59
155,183,102,39,29,42,110,100
130,214,108,41,28,45,105,101
120,200,100,41,24,45,95,104
109,210,98,47,25,44,81,131
113,198,84,45,27,43,81,131
111,206,90,45,29,38,86,102
131,170,84,48,34,35,90,102
121,198,89,63,44,36,106,103
146,204,91,62,46,37,101,69
140,213,90,62,49,37,108,59
136,215,91,64,50,34,112,116
181,223,89,62,49,36,103,139
187,215,86,54,47,34,89,137
173,201,86,54,48,32,93,136
176,201,92,55,44,38,90,135
181,192,91,54,41,38,78,125
155,211,94,55,39,41,107,179
155,209,113,54,32,42,102,189
165,216,124,52,30,39,107,190
161,240,144,72,38,37,126,208
178,249,145,79,42,49,154,193
161,272,158,91,44,56,156,123
178,325,216,102,63,73,185,111
178,324,216,109,72,97,194,110
182,317,231,101,75,123,232,74
178,333,260,117,77,127,247,86
199,364,289,111,81,125,239,85
180,330,266,109,70,135,244,83
183,333,275,108,65,129,256,81
185,360,261,110,60,107,222,103
183,344,241,90,58,98,189,145
152,283,206,85,53,98,192,147
146,273,177,76,51,71,165,151
137,280,168,70,46,64,144,213
137,254,156,64,47,59,145,222
125,245,139,57,44,62,150,190
117,261,140,81,48,64,142,193
128,269,147,86,53,64,137,230
127,291,133,90,57,63,125,199
123,277,145,91,56,62,113,177
121,297,145,96,57,60,110,181
140,280,143,82,52,59,108,226
137,269,131,72,45,58,124,200
133,243,137,64,41,54,118,176
123,239,120,63,41,59,122,177
115,239,131,57,42,63,134,172
117,232,119,55,46,61,144,100
112,232,111,56,45,62,138,68
108,238,127,58,44,64,137,67
110,236,128,55,43,62,140,55
111,235,126,57,43,60,124,57
78,245,125,58,39,59,113,52
87,248,132,69,42,65,99,52
107,276,111,74,48,63,99,87
123,285,107,73,49,62,97,91
125,274,102,69,48,59,103,100
133,313,109,70,48,58,105,102
151,320,96,64,49,52,109,115
157,285,106,58,48,51,123,133
146,278,112,58,46,50,122,148
149,278,111,62,46,59,118,140
170,242,102,68,51,65,117,140
165,253,110,74,50,65,113,131
153,258,110,75,50,69,116,89
158,260,128,77,51,81,102,56
163,273,124,76,50,82,107,59
137,266,128,68,49,82,122,57
123,254,146,71,51,80,139,53
123,265,152,69,48,82,153,50
116,267,133,71,48,79,169,51
110,241,130,72,51,93,205,49
107,264,160,79,52,104,205,49
114,268,151,72,69,107,196,49
132,261,160,80,74,111,200,56
133,272,174,76,76,115,205,53
145,293,178,80,74,107,183,52
153,278,152,84,72,98,183,52
163,269,186,85,58,97,185,49
139,264,168,78,50,86,169,38
141,248,155,81,50,80,210,39
123,235,154,76,49,69,197,60
129,257,163,66,50,63,191,62
102,253,110,62,43,58,191,64
117,318,128,77,42,59,188,64
109,359,126,77,49,48,132,62
117,354,123,78,55,47,130,44
111,356,109,76,59,48,133,42
135,360,128,74,62,51,131,41
140,309,104,58,66,54,130,42
163,287,133,61,62,58,116,42
155,285,131,67,62,59,142,39
151,278,130,64,67,59,139,41
148,300,114,73,72,65,140,64
138,338,141,96,73,62,168,71
110,343,124,101,72,58,177,69
114,368,135,102,71,60,159,77
123,355,137,107,66,67,153,77
142,352,136,102,58,65,156,63
141,329,125,81,54,61,134,55
142,305,121,74,53,61,140,59
147,280,110,68,53,56,140,48
150,293,107,61,48,47,138,49
135,266,109,63,47,43,141,50
131,235,90,59,47,55,142,50
138,243,87,63,43,55,116,47
135,248,95,63,38,58,117,48
117,229,106,63,39,55,127,44
99,224,104,58,40,56,123,41
123,238,113,64,37,46,104,43
116,225,116,69,43,46,109,42
115,244,117,72,47,44,107,49
115,243,107,71,46,49,129,53
122,241,104,72,44,46,120,48
111,261,105,74,44,44,120,46
110,255,111,70,42,45,115,47
128,241,112,67,45,51,121,38
130,230,125,69,46,52,88,32
136,232,132,71,47,51,91,39
130,230,142,69,48,53,90,38
129,265,146,82,49,52,89,36
107,295,223,99,44,80,106,36
107,320,246,107,44,89,106,35
124,336,254,114,46,97,113,35
127,317,252,117,47,101,120,38
128,284,257,116,43,108,137,39
148,262,195,103,41,95,127,38
173,254,164,94,37,92,124,40
157,254,157,88,36,85,119,40
155,263,151,80,39,88,127,39
160,274,157,70,40,94,120,40
141,251,159,68,43,89,114,43
106,231,174,66,45,90,114,42
108,261,174,81,48,91,121,38
125,257,178,86,44,89,110,37
148,251,156,80,47,74,99,37
151,268,154,83,49,127,125,36
153,284,138,91,52,129,149,36
136,234,129,73,50,128,143,34
144,258,125,73,52,127,174,34
117,282,141,78,50,128,180,33
116,274,141,76,51,82,164,31
116,264,127,72,47,68,150,33
140,263,133,76,46,69,150,38
141,247,156,78,43,62,112,57
140,251,140,75,41,66,105,65
139,275,137,73,34,56,101,72
145,269,141,71,35,56,92,71
124,274,143,80,36,56,100,70
106,296,122,79,40,62,94,55
117,268,118,82,43,53,98,47
118,248,112,78,46,49,124,38
114,247,113,77,45,64,121,38
126,257,112,66,42,69,115,40
112,211,119,61,38,63,111,41
119,204,119,52,34,66,113,39
122,193,122,63,35,69,82,41
121,207,138,62,35,57,89,40
114,178,135,59,40,69,87,36
115,185,142,57,39,72,87,34
93,179,147,56,40,74,74,34
101,199,152,49,39,77,78,28
131,212,145,46,38,74,66,27
126,219,143,48,35,57,91,26
131,236,125,48,38,57,96,27
141,247,123,53,40,51,107,26
156,244,111,53,38,43,99,27
137,234,93,62,40,42,100,27
137,241,130,75,47,43,76,29
136,226,126,74,45,40,83,28
128,235,123,73,42,43,89,29
96,217,127,77,43,58,89,28
114,252,191,83,42,68,90,31
111,268,230,74,37,71,89,30
111,289,243,76,36,110,124,33
110,292,250,86,44,116,122,35
119,314,252,91,47,111,126,36
115,318,245,103,55,106,130,40
124,312,216,107,57,136,158,46
151,303,207,108,58,136,131,50
151,313,213,108,55,141,159,52
150,301,222,107,58,145,179,54
175,273,182,94,50,148,177,55
173,256,159,94,52,127,162,51
148,246,149,90,53,116,177,50
203,226,138,80,53,113,148,51
226,220,127,70,47,110,148,49
222,211,137,62,47,105,152,42
246,225,139,55,42,100,151,41
251,256,140,60,47,75,133,41
279,290,137,72,47,66,142,38
307,298,139,72,49,77,120,39
295,324,130,74,55,88,125,41
296,313,114,73,55,87,127,45
354,294,125,72,57,95,150,42
568,257,123,66,57,101,142,44
548,255,121,71,61,92,145,45
567,230,119,69,55,84,134,47
567,257,120,70,59,83,135,43
551,270,123,72,60,79,124,53
273,296,125,68,60,74,124,71
290,290,125,65,55,74,124,73
254,272,126,59,61,74,140,94
230,274,126,66,58,72,128,100
184,278,127,75,54,68,107,95
181,245,129,75,61,71,112,80
151,277,138,73,62,76,115,77
134,280,144,73,57,80,108,51
134,257,141,65,56,87,115,39
128,251,138,55,55,107,112,47
139,244,128,58,55,105,101,49
144,226,112,60,55,101,87,48
150,233,110,62,60,107,84,45
159,249,118,59,59,105,94,46
205,240,113,59,55,92,100,46
198,264,129,66,51,92,103,51
225,261,140,63,48,96,99,52
224,255,135,64,42,87,95,51
220,248,128,69,44,95,88,50
205,236,123,71,51,88,88,43
214,233,113,61,52,98,93,39
191,250,105,73,57,99,92,40
218,294,100,85,62,99,83,41
230,305,130,93,65,104,78,42
206,322,134,93,65,104,84,44
250,332,133,93,68,91,78,40
239,327,133,88,68,84,84,41
216,302,141,74,61,84,91,44
213,290,124,63,68,80,92,44
254,280,122,62,69,86,83,44
227,262,117,66,63,90,86,47
224,271,148,71,61,94,78,44
226,262,144,74,65,98,76,42
215,260,144,74,55,93,110,51
233,257,155,77,50,87,111,52
229,246,157,81,55,84,112,54
243,234,125,75,56,77,112,53
269,229,124,73,55,91,114,55
316,250,130,73,56,91,88,47
275,243,119,68,52,88,106,48
267,255,113,57,52,87,103,46
259,246,115,57,47,87,106,47
243,248,118,56,44,70,101,44
204,218,114,52,49,78,88,43
218,230,110,57,56,91,73,41
203,223,120,59,56,92,74,39
208,241,121,60,57,91,70,35
192,260,112,64,57,98,83,37
160,262,108,70,51,89,91,33
130,245,115,65,43,81,79,32
192,254,107,68,40,83,76,31
216,265,99,66,40,94,76,38
224,262,105,63,41,92,65,38
225,269,105,65,53,91,52,39
249,294,99,77,54,89,52,37
210,284,95,75,57,85,52,36
175,260,96,80,58,78,53,30
211,240,97,81,57,69,49,33
213,247,102,80,49,66,54,34
180,227,100,65,47,63,60,38
184,227,98,65,46,60,59,39
190,209,99,59,46,54,58,39
140,237,108,58,46,49,52,34
136,221,119,56,48,49,47,32
138,233,123,59,49,56,41,32
131,224,128,55,46,63,40,42
124,227,136,56,45,60,38,44
168,205,125,52,46,61,39,45
185,214,112,43,41,60,40,46
187,216,110,51,42,64,35,43
188,227,107,55,43,98,46,36
191,232,101,56,43,102,53,38
160,238,106,59,43,105,53,41
141,228,96,60,43,114,52,43
132,212,95,49,42,116,53,41
151,225,90,46,39,96,42,43
177,248,98,52,41,98,34,42
176,253,103,54,36,95,34,39
174,260,103,51,36,87,32,36
204,291,105,62,37,91,33,36
197,281,103,66,41,92,32,32
167,279,121,76,44,94,37,28
170,271,112,76,44,99,34,30
183,277,115,77,44,99,44,31
167,247,111,69,43,91,42,31
167,248,110,68,38,88,46,28
172,229,76,52,34,86,42,31
154,238,87,59,35,84,43,31
156,254,86,62,38,81,34,33
139,248,83,64,39,77,37,33
138,250,86,61,40,71,32,33
133,246,85,57,41,67,40,32
128,235,77,51,42,62,42,29
140,213,81,50,41,58,43,30
136,211,87,46,38,66,42,30
124,208,88,48,39,61,44,31
120,219,89,52,38,59,38,32
130,216,88,47,36,62,40,32
112,215,80,43,36,66,39,29
111,235,85,46,38,56,39,29
119,228,87,48,38,56,36,27
152,219,87,45,36,55,38,27
163,247,96,50,39,48,33,30
157,269,97,52,40,42,33,28
178,261,94,52,38,46,35,29
174,263,108,51,40,47,36,31
145,270,119,56,40,44,33,30
139,257,118,53,37,48,34,30
139,247,115,60,34,80,39,33
125,265,113,59,35,81,41,35
145,274,104,58,33,81,43,37
145,267,96,57,33,81,41,37
134,246,86,60,33,83,41,36
153,233,92,51,35,54,35,32
145,209,88,51,36,47,28,34
147,225,84,55,36,44,27,37
148,226,92,68,37,50,31,38
147,249,107,65,37,50,33,35
150,241,105,63,36,54,36,38
156,231,105,63,35,55,38,36
145,210,107,63,34,55,38,31
144,215,101,46,33,51,41,33
142,194,90,53,33,42,38,33
168,212,99,53,35,38,36,33
167,231,96,51,37,37,34,32
166,233,92,47,35,39,35,30
168,238,93,47,36,39,29,27
178,261,100,44,34,42,29,29
127,305,87,48,34,39,28,25
120,321,91,48,41,39,29,24
141,351,92,62,42,41,30,27
144,353,88,62,43,44,32,25
166,349,92,60,46,44,35,24
162,318,99,61,42,44,35,25
161,298,99,64,33,45,35,26
136,266,99,51,35,44,33,24
128,259,99,51,34,39,34,25
130,277,87,60,34,38,32,25
134,286,106,61,46,41,35,27
134,292,107,71,49,38,35,26
129,290,103,70,47,36,34,27
151,291,103,71,49,43,34,24
118,260,97,68,53,43,34,25
126,249,89,67,52,43,37,28
126,229,91,56,50,43,35,29
144,216,101,54,51,48,35,30
132,206,95,51,49,42,34,31
126,205,114,46,43,44,33,30
122,235,118,64,38,46,28,27
123,237,117,64,37,52,33,31
134,234,113,63,40,46,37,30
132,234,118,67,42,51,37,32
141,256,124,79,42,50,38,32
212,229,130,74,42,48,39,33
214,249,128,75,45,52,39,33
202,254,123,77,42,58,37,34
201,261,121,77,40,55,38,33
200,235,115,64,39,55,40,33
134,210,92,51,39,54,40,34
130,183,101,48,33,47,41,31
132,206,119,51,33,42,41,37
139,195,126,47,33,41,40,36
151,201,116,45,32,38,37,37
162,200,112,48,30,37,37,36
161,213,139,59,36,55,39,35
163,194,130,57,36,54,37,29
159,248,129,60,39,56,34,31
144,256,136,63,39,60,35,34
123,252,142,61,42,61,35,33
122,249,106,53,36,49,32,32
121,247,103,51,36,52,35,31
114,197,102,49,35,47,37,31
108,191,96,51,40,44,38,31
105,200,87,50,37,43,38,33
111,252,108,50,37,41,34,36
92,258,113,50,35,36,31,35
89,261,104,48,32,40,32,33
83,281,123,43,25,41,29,29
85,280,121,43,26,39,28,26
150,231,107,41,35,34,27,24
156,216,101,41,36,33,27,26
168,211,107,57,38,31,29,28
171,177,74,57,37,30,27,27
175,205,79,61,36,37,28,27
118,199,76,57,30,39,28,24
110,210,71,61,30,39,26,23
132,217,84,48,29,39,22,22
129,224,87,49,32,43,25,21
129,199,83,44,33,39,25,22
130,203,77,43,30,38,26,22
133,197,93,41,29,40,31,22
136,260,98,54,28,39,31,22
144,264,103,51,33,33,33,24
136,270,103,55,35,35,33,23
136,270,109,58,37,38,32,25
133,277,116,61,40,40,33,31
96,226,103,47,39,38,34,29
79,219,109,53,33,39,30,29
84,207,110,51,31,37,30,32
81,206,108,49,31,40,33,32
109,194,89,42,28,46,33,28
116,186,90,48,30,46,31,29
120,185,77,46,29,48,32,28
130,194,82,50,40,48,31,25
132,222,86,51,40,43,26,25
114,227,88,58,41,37,21,27
123,230,87,58,43,37,22,35
121,234,101,60,46,35,26,46
111,220,99,58,39,36,27,46
118,195,95,62,39,39,30,49
114,185,101,60,38,39,30,50
88,184,101,60,38,39,29,46
121,190,99,54,40,40,25,44
117,191,100,52,39,48,28,44
126,206,103,49,39,52,31,43
131,235,100,51,38,51,30,50
135,218,100,46,34,52,31,50
102,200,86,46,29,53,32,46
126,214,81,51,25,56,38,45
128,213,94,53,24,53,34,48
130,185,87,52,27,51,35,41
126,217,110,52,30,51,37,39
132,227,124,57,32,52,36,34
112,237,135,55,38,45,33,39
125,227,126,51,38,43,34,36
119,256,141,69,38,44,34,34
135,245,129,76,37,45,32,36
145,236,118,79,37,43,33,34
143,232,109,77,31,41,27,33
121,221,116,79,32,43,27,31
121,200,112,66,30,45,28,30
183,204,124,63,34,46,28,30
174,215,125,56,32,44,27,35
174,198,124,54,34,42,27,32
171,199,114,50,34,43,25,31
175,188,114,47,35,45,24,31
131,181,97,47,31,41,24,32
127,165,95,54,36,46,25,27
147,178,99,61,37,46,27,35
145,184,105,63,37,44,31,36
143,198,96,63,38,47,34,37
113,175,96,57,38,47,34,36
114,183,95,48,36,43,32,36
86,166,96,40,33,42,31,28
91,210,111,45,31,41,29,31
85,197,112,50,31,40,28,31
101,212,105,53,32,40,29,31
117,213,101,55,30,39,29,29
128,231,98,57,32,39,27,28
128,201,77,55,35,42,27,23
128,209,74,54,36,41,23,23
113,196,75,56,37,42,24,25
107,203,79,56,37,43,25,29
125,186,73,55,36,41,26,31
123,182,67,55,40,37,26,30
126,166,76,50,37,33,29,31
144,186,102,53,37,49,37,32
134,168,100,51,36,48,36,30
124,171,101,52,35,54,38,28
132,190,107,65,33,56,39,28
137,194,97,66,34,58,36,26
114,198,77,66,33,51,37,22
117,206,81,71,38,54,38,23
103,208,87,72,39,56,39,24
163,184,85,62,35,54,38,28
161,229,108,72,37,53,39,28
168,218,127,72,43,53,34,29
169,221,129,68,40,58,34,28
195,227,127,66,41,62,34,28
139,235,128,66,40,63,34,26
143,225,133,57,40,63,30,27
137,223,110,58,32,60,29,26
135,220,111,60,32,58,32,25
92,233,113,66,31,68,38,30
90,246,127,66,33,70,40,32
116,223,105,64,32,69,41,31
121,219,113,60,30,69,60,41
126,222,109,60,31,67,61,43
122,196,113,56,35,47,56,41
122,177,98,56,38,43,56,39
89,164,96,57,39,42,56,41
96,181,87,54,40,43,35,31
116,189,100,59,40,39,30,33
117,196,104,59,39,44,32,32
123,192,102,58,37,44,30,32
121,207,102,56,33,45,32,30
112,204,109,64,35,45,30,30
81,194,100,56,35,47,31,28
84,193,96,53,34,40,30,26
132,209,94,55,32,40,31,27
136,207,92,56,34,41,29,28
137,201,93,52,35,38,38,30
136,206,93,52,36,42,41,26
144,203,88,51,35,42,40,26
135,203,90,48,35,48,40,25
142,193,93,51,36,47,40,27
137,191,88,52,37,51,34,26
137,197,82,53,38,47,32,26
128,197,83,52,38,47,31,26
83,196,116,61,36,41,29,26
58,194,110,54,32,37,27,21
55,199,107,49,29,29,23,19
55,185,105,48,28,29,22,17
58,188,107,48,25,32,26,18
86,170,63,40,28,31,28,23
102,211,73,47,29,35,28,25
101,204,73,50,29,36,29,26
100,211,74,49,29,38,30,28
101,205,63,48,30,46,30,32
80,212,72,46,30,49,30,31
70,178,67,40,29,45,30,30
86,209,79,51,33,46,31,30
102,207,77,56,34,42,29,30
101,218,85,62,34,32,25,26
103,205,74,59,33,33,25,22
102,212,72,61,39,39,29,21
91,205,60,53,38,43,27,20
71,205,62,47,36,43,27,20
66,212,49,41,34,51,31,18
57,220,49,42,35,51,30,18
87,217,63,45,29,51,28,19
103,206,63,47,30,50,29,20
114,233,77,53,33,51,30,21
114,223,88,54,37,43,27,21
114,220,88,52,36,50,29,25
102,212,78,47,37,49,29,25
89,220,99,56,35,47,30,25
76,227,92,54,33,46,28,26
75,233,86,52,31,46,29,26
78,233,85,51,30,35,26,22
77,237,89,51,33,34,24,23
94,222,71,39,34,35,23,27
97,193,69,34,34,35,24,27
100,195,89,42,35,37,24,27
108,204,104,49,38,37,27,32
96,202,101,48,34,36,25,33
96,210,98,47,35,34,25,30
92,214,114,50,37,37,26,35
90,209,109,54,38,36,28,36
84,200,95,53,38,39,27,32
92,210,93,53,40,47,33,32
80,214,92,54,37,57,34,35
97,232,81,67,38,57,34,29
102,233,68,64,39,56,33,29
105,235,68,62,37,53,32,28
100,243,71,62,35,57,31,26
90,234,83,63,37,48,35,22
71,211,85,52,34,48,35,20
108,212,92,47,29,49,34,20
101,204,96,45,29,48,33,21
102,184,99,50,33,34,32,22
118,185,100,48,34,35,28,24
124,174,89,40,34,33,27,25
90,187,86,45,34,31,28,25
90,212,84,47,35,32,26,23
86,211,89,44,35,35,23,23
83,216,74,41,34,34,22,23
84,216,72,43,34,39,23,26
84,200,61,36,34,43,23,26
110,214,85,43,33,45,25,31
123,228,78,41,31,42,25,30
121,233,81,43,28,41,26,30
119,247,80,41,27,43,28,29
117,251,97,47,26,43,28,29
126,230,81,53,34,42,25,24
138,233,83,58,36,42,26,25
138,226,84,59,38,43,24,25
137,216,87,61,38,45,24,24
138,212,75,59,41,44,24,24
136,196,75,55,37,47,25,23
130,188,84,51,38,47,25,25
139,283,93,53,50,49,32,29
149,316,91,52,55,42,33,32
154,322,100,54,54,42,35,32
130,331,97,47,55,37,34,32
114,349,96,51,52,38,34,30
113,276,88,50,41,34,28,26
97,235,87,51,34,39,26,24
89,220,69,48,33,38,25,24
111,232,75,51,32,40,24,25
132,215,73,50,34,42,25,28
117,229,99,48,31,53,29,28
117,238,102,46,36,51,30,30
123,242,109,46,36,52,33,33
114,236,113,46,34,55,35,34
114,223,111,43,37,59,37,33
117,213,96,50,41,55,43,33
130,205,113,54,37,58,42,33
130,222,126,54,39,64,46,39
133,232,138,63,47,67,119,50
165,234,142,65,46,62,122,52
165,230,144,62,46,58,122,52
163,239,162,67,53,60,126,54
169,270,169,70,53,60,126,54
175,266,182,80,50,76,115,72
157,259,184,78,49,78,122,75
155,260,182,80,51,81,124,78
148,248,160,75,47,78,123,76
138,200,155,84,51,74,121,73
124,184,126,65,47,50,72,45
76,188,116,64,46,48,54,38
71,179,110,59,44,43,58,34
71,205,113,61,40,39,54,32
81,196,93,48,33,34,53,29
94,182,87,46,31,32,53,28
96,197,122,52,36,46,54,32
98,192,122,50,35,44,36,28
106,162,121,50,36,44,36,32
96,164,115,44,35,44,34,35
73,218,121,57,38,45,33,35
80,200,77,58,41,27,27,30
85,223,89,68,43,27,26,29
69,219,74,64,41,25,23,24
69,243,89,73,46,42,32,23
67,214,81,66,43,44,30,25
53,223,100,69,41,49,33,27
58,213,99,65,43,54,34,27
88,251,116,70,42,55,34,27
94,225,106,62,38,45,27,26
98,221,105,61,38,45,30,25
114,205,86,58,38,46,28,28
134,197,89,51,34,40,27,29
121,196,88,50,36,40,26,31
120,207,97,52,37,38,26,31
135,197,103,51,38,34,22,30
123,204,117,43,36,38,32,28
113,204,116,44,35,42,33,29
113,177,112,36,33,42,32,28
118,175,106,40,31,44,34,26
118,180,104,40,31,45,37,28
126,183,87,45,32,47,34,26
109,192,81,45,33,47,38,28
139,202,81,47,36,48,39,29
149,192,82,45,38,50,39,31
140,207,93,47,36,58,42,29
134,202,95,45,37,49,38,28
141,194,104,55,38,51,36,27
119,194,113,64,38,51,38,28
120,221,116,64,38,51,40,27
129,203,127,63,44,48,35,28
129,209,129,65,45,49,37,28
122,229,137,67,52,44,37,26
111,221,126,60,53,43,34,22
96,205,127,59,54,57,30,25
93,209,107,61,52,52,31,28
111,208,113,57,50,52,28,29
120,192,91,47,46,53,27,30
121,176,101,63,50,53,28,30
116,178,102,62,49,37,33,27
109,174,121,64,49,43,58,26
102,183,116,67,49,48,81,26
105,180,127,69,48,48,95,26
153,225,136,62,45,56,100,25
163,221,128,64,44,55,99,27
164,233,120,65,42,53,87,34
163,231,118,61,40,49,69,34
177,247,119,64,40,58,97,37
143,238,110,56,38,49,95,39
139,253,112,54,41,49,98,38
135,252,106,52,40,50,98,33
143,244,107,57,43,50,98,32
156,240,107,58,42,47,65,30
154,216,127,68,50,58,64,29
163,194,141,70,50,64,118,31
172,177,142,74,55,68,121,29
174,178,141,74,56,70,126,31
157,178,132,69,53,65,120,32
159,180,105,63,44,59,120,33
153,198,85,69,46,60,67,32
172,223,97,64,42,56,58,32
158,228,103,61,39,56,61,31
137,218,103,59,38,57,71,27
133,205,107,59,42,56,76,28
144,203,117,48,41,46,75,27
133,191,106,51,41,44,75,31
147,207,106,47,44,39,65,31
152,206,106,50,51,42,57,37
163,215,106,57,49,42,47,37
168,220,97,57,44,40,42,37
159,225,108,56,43,43,42,36
158,199,99,59,40,43,45,39
257,211,99,61,37,39,46,39
270,214,100,54,39,39,47,39
259,198,94,56,39,43,48,37
257,185,77,52,40,42,49,36
255,219,83,57,43,48,43,32
178,213,94,57,39,48,34,26
148,209,87,54,39,50,34,26
140,211,86,51,41,48,32,27
151,206,85,59,42,49,29,28
175,191,84,51,42,46,31,27
162,200,64,50,44,52,34,29
170,208,66,54,43,59,37,30
181,229,75,58,42,59,39,29
195,250,75,54,40,58,41,29
193,247,72,58,36,54,38,33
181,259,81,57,38,47,36,31
183,261,78,57,38,36,33,32
180,242,78,55,39,46,34,30
152,232,87,61,46,50,36,38
136,217,91,64,51,53,39,35
163,191,83,62,48,51,39,35
165,190,85,59,48,50,36,33
159,181,79,57,49,45,34,36
193,180,84,49,48,43,34,29
221,183,82,44,42,43,34,29
206,178,86,45,45,45,34,32
197,168,87,57,44,47,35,32
201,177,89,58,42,41,32,30
167,167,76,59,32,39,32,28
128,173,81,61,35,41,29,29
135,189,85,63,36,40,28,30
148,184,85,54,37,37,24,29
145,191,86,53,37,43,28,28
172,199,91,56,41,49,32,35
164,196,107,56,41,45,31,35
152,191,111,52,36,45,32,32
137,190,108,51,39,44,33,31
158,180,108,55,41,40,30,33
130,172,107,52,39,33,27,27
134,171,96,48,40,33,26,30
149,181,96,49,39,42,28,30
151,195,98,49,38,42,26,34
155,203,96,47,36,41,27,35
151,216,99,59,36,44,28,36
146,233,92,57,35,49,31,33
133,217,81,62,37,42,28,32
137,217,91,62,35,44,30,26
118,222,108,66,33,45,34,26
118,211,108,61,33,48,33,24
119,214,111,63,37,47,31,25
116,237,123,61,37,51,39,26
145,249,119,64,42,52,38,27
138,239,108,61,45,50,36,27
142,238,111,56,45,42,35,27
142,230,115,60,46,39,36,28
164,202,109,62,46,37,29,26
154,188,111,65,44,35,30,26
163,189,112,69,42,38,27,27
156,197,109,73,42,39,26,30
164,206,115,73,34,44,26,31
137,220,108,70,34,43,31,32
136,225,109,73,33,44,31,35
136,242,114,74,37,47,32,34
149,236,117,71,37,48,34,36
143,241,110,68,42,46,34,36
166,252,117,70,47,64,37,38
171,239,118,59,45,64,38,39
158,240,112,50,42,64,41,37
172,241,102,51,41,63,40,34
167,245,105,56,39,80,52,42
152,226,98,52,32,67,48,41
126,225,92,58,36,68,48,38
134,219,91,61,36,69,46,43
121,237,108,58,39,69,46,43
122,226,102,59,38,54,36,34
114,229,107,65,37,52,34,32
115,232,108,60,35,51,33,30
123,227,118,68,39,61,38,28
129,240,104,72,39,74,42,28
131,260,139,98,43,76,40,29
134,260,132,96,43,82,42,31
147,273,137,99,42,81,42,31
132,278,135,98,48,74,40,28
108,266,154,101,50,72,46,30
117,278,152,84,49,77,49,32
123,282,156,83,52,72,50,32
113,279,157,80,52,79,51,32
113,270,158,73,43,107,55,33
142,315,152,94,49,126,56,36
131,276,138,104,54,122,63,34
125,283,134,106,54,123,62,33
117,270,127,108,57,120,62,32
123,270,119,112,56,96,70,30
98,216,117,94,51,62,69,27
128,266,122,86,42,57,62,29
148,252,137,94,38,56,61,32
161,281,137,98,37,86,76,33
156,286,135,93,35,88,76,38
153,280,128,90,32,86,70,38
176,268,126,81,35,86,68,39
166,279,122,67,36,86,68,38
156,263,130,59,33,64,54,37
167,265,131,66,36,62,52,31
167,291,159,73,34,63,52,30
147,260,148,65,28,63,51,27
143,266,151,70,27,59,51,27
151,253,148,72,32,56,49,28
139,244,150,69,32,51,32,27
143,227,121,59,34,51,35,28
125,227,124,62,39,52,46,28
130,212,114,59,43,57,76,27
121,230,112,56,40,49,76,26
131,237,108,75,38,47,78,27
126,207,100,72,39,42,77,27
151,259,108,76,40,45,72,28
142,260,115,73,40,39,40,27
145,248,112,75,40,38,37,28
136,241,111,54,41,39,33,29
135,256,117,95,45,40,30,30
87,208,99,94,43,35,29,26
90,212,100,100,41,44,32,33
96,210,98,99,40,47,31,31
92,221,101,100,39,48,33,29
112,208,91,65,33,48,32,28
118,220,83,63,33,47,31,28
126,233,60,63,35,40,25,23
112,226,55,60,35,34,25,23
118,213,62,60,39,39,28,24
98,216,83,58,41,38,29,24
84,226,120,65,38,38,31,24
115,242,123,56,37,35,31,22
120,250,123,58,37,45,31,23
115,249,122,56,32,39,28,21
125,251,115,54,30,43,29,19
127,240,81,36,35,45,26,17
86,252,74,41,39,47,28,18
90,263,92,53,43,38,31,20
104,271,90,53,43,39,30,24
109,269,90,57,46,39,29,25
115,266,86,58,43,39,31,27
127,227,88,56,38,36,29,28
121,210,71,46,33,35,24,27
111,198,67,44,34,41,27,24
108,210,66,43,33,38,27,22
113,215,78,45,35,36,27,21
109,219,79,49,40,37,27,20
114,226,78,51,42,43,27,21
109,230,81,55,43,40,26,22
101,219,78,53,42,39,24,23
89,232,78,56,39,39,22,24
89,215,81,51,38,38,23,23
123,203,85,49,37,35,25,23
131,201,89,48,34,29,22,25
130,198,86,47,35,30,25,25
130,199,83,39,35,37,26,29
123,238,80,44,32,38,27,27
80,238,75,41,32,37,26,27
65,237,67,36,32,37,27,26
69,242,65,36,31,38,24,25
141,219,65,55,35,31,25,21
147,194,64,50,34,31,25,21
151,191,65,52,33,33,27,21
162,235,82,63,35,38,28,22
157,227,82,63,37,37,29,21
100,228,76,49,33,38,29,20
90,220,94,70,40,37,30,22
83,231,107,70,39,33,47,21
61,179,99,62,38,29,86,23
83,172,100,64,34,32,93,23
78,178,107,69,34,37,96,23
84,169,91,53,28,36,97,22
123,192,79,55,27,36,91,21
124,201,89,62,31,40,84,28
124,221,102,78,40,48,114,38
179,236,151,92,46,52,117,39
187,294,173,94,47,56,119,41
172,283,180,93,47,58,134,41
175,292,179,98,51,77,158,38
178,308,197,92,48,98,139,32
153,302,191,103,57,96,142,35
156,283,183,103,54,94,148,38
175,281,180,108,62,99,142,39
174,272,178,108,70,90,109,38
171,258,179,106,70,66,107,36
147,275,192,112,62,71,113,32
156,246,184,112,63,71,121,27
127,247,196,106,64,66,127,26
124,241,210,101,51,101,152,29
159,228,191,99,50,101,160,29
196,248,158,81,50,96,152,30
183,253,159,78,54,98,138,29
203,251,147,86,47,100,132,28
212,265,123,85,47,80,147,27
180,257,125,87,52,80,139,27
176,225,130,91,51,82,147,29
183,337,159,112,51,105,155,29
165,340,158,107,47,114,153,30
155,339,160,106,48,101,116,30
157,341,156,106,54,104,116,31
149,335,145,94,61,102,110,36
143,223,118,78,62,82,117,36
139,208,111,80,69,89,132,35
136,201,104,80,68,99,153,36
142,217,108,79,61,94,155,34
106,214,99,70,52,96,153,28
88,191,84,61,53,92,141,27
105,213,99,61,45,69,134,27
105,214,97,60,45,45,101,25
89,221,99,58,42,43,97,24
101,208,94,59,43,42,94,22
120,243,109,63,43,39,89,22
103,237,101,66,44,36,77,19
101,233,114,67,41,46,80,19
104,211,109,71,44,50,70,24
137,217,108,69,42,44,70,23
135,182,98,65,35,44,75,27
137,177,94,61,36,49,66,28
139,171,85,57,39,50,62,27
139,192,90,59,39,51,96,25
93,179,88,57,38,53,98,26
97,187,78,55,37,54,95,23
95,189,77,50,32,50,96,24
105,223,85,71,33,39,88,24
102,208,82,65,33,31,58,24
100,207,88,65,34,30,52,22
83,196,88,69,36,38,52,22
78,184,89,69,36,40,50,22
70,155,82,50,32,41,50,23
70,157,76,48,31,41,32,23
71,176,74,54,34,40,49,22
74,189,85,49,33,44,47,20
91,189,89,49,35,43,48,19
127,197,86,50,36,43,49,20
131,216,92,52,35,44,49,19
131,208,90,45,32,42,30,19
125,204,83,44,30,32,42,21
120,206,78,51,31,30,43,21
81,196,76,46,29,28,43,19
88,182,67,43,29,31,44,20
109,175,62,44,30,32,44,25
112,237,86,50,33,30,32,23
105,237,86,47,36,32,29,23
101,242,87,48,39,30,25,24
100,238,86,49,38,27,23,26
88,245,92,50,36,27,23,23
101,207,75,47,35,28,22,22
121,200,78,43,31,25,22,23
122,201,135,44,32,26,29,24
115,197,138,52,36,29,47,25
102,189,140,50,37,29,112,24
88,182,137,48,40,41,128,25
72,213,152,65,47,58,194,28
72,215,112,68,48,61,196,26
71,214,111,65,47,60,197,27
74,219,107,65,49,61,177,61
108,216,105,64,45,53,169,106
133,236,81,51,39,37,100,137
137,233,106,54,37,32,99,147
142,232,102,51,35,33,90,149
146,241,110,53,34,30,84,140
123,240,111,53,35,30,86,115
83,197,106,48,34,34,81,100
88,194,76,66,41,40,81,98
85,218,116,72,41,43,97,123
79,205,114,75,42,45,91,131
92,195,118,77,42,43,88,128
143,206,138,80,43,46,123,111
141,196,147,66,38,45,128,99
149,207,123,64,36,45,117,68
156,208,120,64,35,45,117,55
171,218,117,65,34,47,143,49
153,203,96,63,32,44,162,51
195,239,101,61,30,47,175,52
196,250,99,66,38,50,185,54
196,268,124,78,41,52,190,44
185,274,153,75,44,54,173,43
185,294,163,76,47,57,144,42
143,349,166,77,47,56,142,42
166,356,180,82,45,56,140,32
190,349,170,85,44,81,145,32
184,342,147,94,44,83,157,34
190,330,141,95,42,88,141,38
190,257,129,93,45,112,143,38
210,279,171,94,46,115,151,39
184,281,177,96,49,110,163,40
184,290,185,92,51,108,155,38
165,295,187,92,53,111,163,34
173,297,187,92,54,93,159,34
127,267,155,87,51,90,158,33
129,269,156,74,52,82,139,36
132,265,158,77,53,91,159,41
140,258,152,74,54,84,159,37
133,283,166,86,54,91,156,36
127,251,149,86,56,96,151,35
127,237,139,91,49,93,170,32
145,220,137,87,46,95,151,27
160,255,146,98,45,117,174,43
161,215,129,85,42,108,175,42
176,242,144,86,46,102,167,44
192,271,147,81,45,101,149,44
184,280,155,78,45,97,174,47
165,251,148,72,44,66,163,37
166,269,162,76,46,69,175,48
169,238,166,67,47,83,199,51
160,272,174,76,57,91,197,55
191,300,185,76,68,91,192,58
230,306,201,70,71,102,209,59
224,304,193,90,69,98,215,59
226,340,179,92,69,93,194,66
261,298,181,83,61,89,201,69
234,289,179,102,51,102,237,68
200,292,172,105,53,90,226,67
207,346,190,104,55,91,212,59
221,321,191,104,50,83,224,50
170,343,188,107,56,84,233,41
172,318,164,89,55,62,179,33
179,314,162,86,51,64,165,36
173,242,139,66,55,61,156,42
144,242,135,72,58,67,144,40
159,225,116,69,53,57,117,39
174,288,162,77,55,62,120,40
161,284,156,83,55,74,148,36
172,283,153,83,50,74,144,31
176,294,170,73,47,72,148,38
182,331,182,76,52,75,156,40
181,299,146,67,50,69,149,41
209,306,144,57,49,58,135,43
210,343,149,68,51,59,139,43
193,329,129,72,51,59,146,34
175,292,156,78,48,56,137,33
216,289,155,82,49,58,143,34
189,280,157,82,48,51,124,33
179,239,157,71,49,67,130,36
209,238,185,67,47,62,116,40
212,228,153,56,48,70,121,41
171,257,156,63,47,102,112,39
171,261,190,71,50,110,103,37
188,247,183,76,46,108,98,38
185,254,158,83,51,128,95,38
180,239,157,83,48,131,85,38
175,204,152,78,50,112,82,37
184,234,112,77,48,104,82,38
166,235,115,79,53,100,79,34
128,235,115,71,52,79,81,29
130,244,115,72,56,67,80,34
124,236,106,66,53,63,81,36
129,196,89,60,52,63,80,37
121,206,90,52,47,57,73,36
148,232,98,56,49,72,104,42
146,224,101,65,48,80,109,36
170,218,109,66,48,82,114,36
157,247,126,69,49,87,117,38
168,236,134,74,49,87,116,38
165,198,119,77,43,72,76,31
178,212,125,66,42,74,73,34
151,221,123,68,45,88,63,37
141,200,108,60,49,87,67,34
153,215,92,56,48,87,63,33
147,227,96,43,50,87,66,36
143,221,106,53,53,79,79,36
152,233,149,62,50,58,85,33
157,236,162,61,43,55,83,32
138,218,173,63,46,56,97,35
118,211,176,64,45,56,96,35
108,213,166,61,39,64,83,33
103,200,146,58,40,66,76,38
101,196,136,63,39,64,79,39
120,239,154,83,40,60,56,35
125,255,153,86,38,58,57,34
129,246,146,82,41,48,51,36
126,250,130,77,40,52,59,38
130,252,129,73,40,54,63,42
127,223,97,67,42,56,62,47
136,226,96,64,41,55,64,48
130,230,99,65,41,53,67,46
116,227,95,65,42,69,60,38
124,223,89,66,44,69,61,37
148,280,104,54,44,69,60,33
149,311,98,54,56,69,58,36
150,327,97,56,54,67,55,35
166,333,96,55,54,45,62,37
164,332,110,57,57,49,47,35
138,288,94,52,53,48,49,32
125,241,97,50,44,48,45,28
135,224,94,48,44,51,46,33
119,226,122,50,41,53,37,34
117,219,110,47,36,49,36,35
112,207,106,48,32,50,35,37
131,211,103,52,33,54,38,40
122,206,101,51,37,54,37,40
121,197,67,52,39,51,35,39
137,222,77,54,39,50,34,36
132,222,74,50,42,50,33,34
126,210,78,44,38,46,31,33
122,204,83,44,36,44,29,28
127,219,90,37,38,39,27,32
148,190,90,39,37,40,28,31
145,216,98,39,36,37,31,36
134,229,97,37,37,37,33,34
135,252,94,36,35,35,31,35
142,240,82,44,34,37,33,30
121,256,77,43,34,38,32,32
118,240,67,42,32,41,32,31
123,231,66,44,31,43,33,32
133,205,68,45,32,43,32,34
122,198,79,39,28,41,31,36
106,179,78,36,25,39,32,39
129,187,77,41,24,38,29,39
138,182,75,44,26,37,27,39
152,201,75,45,26,36,27,36
149,202,74,47,28,35,25,34
168,219,73,63,33,40,27,29
173,217,71,63,35,39,25,31
166,228,80,61,36,44,33,30
151,222,80,61,36,46,34,32
178,235,81,64,36,49,36,38
161,219,81,49,32,51,37,38
142,218,83,48,32,58,39,54
148,208,80,46,31,55,40,112
166,199,82,49,35,65,41,118
142,219,81,62,38,75,52,118
148,233,93,66,39,75,51,120
157,246,96,67,40,72,78,115
148,246,97,68,39,83,82,75
131,251,93,64,36,75,84,126
135,225,96,52,37,65,81,136
136,216,83,45,35,63,83,134
130,213,80,51,36,60,59,134
152,217,79,54,37,42,51,129
143,227,91,57,37,41,47,80
137,213,83,52,36,40,42,68
140,207,83,54,37,39,38,72
140,184,87,44,39,41,38,83
127,194,93,44,37,38,34,82
127,182,86,41,37,39,36,75
142,180,90,45,33,36,37,68
137,231,94,51,31,59,52,93
146,248,92,52,31,58,62,104
136,250,86,48,33,61,62,102
188,283,93,57,34,69,78,105
180,299,95,55,37,69,80,105
187,274,108,59,41,67,87,81
175,260,114,61,41,72,91,48
189,259,112,64,43,74,97,81
156,235,102,69,45,71,120,95
167,237,98,71,46,87,146,98
161,280,114,90,45,77,151,111
218,292,132,114,52,72,164,115
222,302,148,121,63,94,171,99
263,283,156,115,67,109,180,83
265,284,174,119,72,108,205,91
264,248,177,104,76,165,223,83
271,305,190,95,80,170,220,80
277,334,199,97,77,177,228,76
230,337,200,100,80,185,241,76
239,355,189,95,75,195,226,63
244,351,182,96,76,168,262,58
225,356,179,104,80,172,262,53
255,322,172,99,87,155,266,52
258,332,186,101,80,162,259,54
253,300,184,106,84,152,276,114
254,301,179,106,79,141,232,125
234,229,154,102,83,134,245,129
190,220,153,104,74,158,254,139
183,240,139,109,79,138,253,145
176,258,134,105,86,133,227,126
218,279,131,114,93,129,260,152
216,282,157,109,91,133,250,152
216,289,159,104,92,111,230,143
220,259,160,99,89,128,232,145
211,239,166,98,86,126,233,143
158,227,165,87,84,134,181,115
208,410,157,85,77,134,195,116
204,613,166,88,78,127,200,115
208,669,173,88,77,118,187,104
222,676,176,91,75,117,174,81
219,672,175,89,67,104,183,62
168,577,171,83,70,95,164,50
164,358,178,78,69,117,172,52
174,258,172,72,69,113,155,52
170,243,174,75,67,116,156,52
174,248,175,83,66,124,149,51
192,274,166,73,57,142,141,54
193,249,151,79,56,131,106,52
175,252,147,85,58,124,117,56
185,248,142,82,53,125,121,51
182,245,141,75,54,120,122,49
157,222,146,78,53,97,114,44
153,242,148,77,50,90,134,42
147,245,153,78,50,100,179,36
117,253,159,76,48,111,188,37
114,253,158,75,46,106,184,37
142,248,154,74,45,106,195,36
143,257,156,70,43,103,189,37
148,238,147,65,41,86,136,32
145,243,135,64,51,85,116,32
159,264,130,63,53,89,128,29
193,253,138,65,55,92,118,37
192,241,121,60,55,93,112,36
200,246,118,68,57,93,116,36
209,251,118,67,48,70,108,34
217,228,132,76,49,77,111,46
180,258,127,83,53,92,126,107
190,245,124,84,53,86,136,124
189,296,142,90,53,90,134,149
185,286,143,93,53,90,138,153
170,271,131,84,48,84,127,152
154,248,129,75,39,92,118,143
138,245,137,80,43,108,125,143
143,175,121,67,39,107,125,118
134,197,132,63,38,108,118,119
163,216,139,67,39,104,114,117
161,211,151,68,41,102,121,82
157,223,142,65,39,86,95,52
144,239,151,67,50,85,91,51
166,212,139,67,51,85,92,37
124,204,136,77,53,86,93,38
122,253,117,96,54,53,96,34
126,245,116,94,56,82,99,79
129,238,103,94,51,87,103,115
115,252,97,92,51,88,104,128
136,297,101,86,53,87,113,129
131,252,92,60,53,89,89,129
132,261,82,54,49,61,89,113
136,248,84,53,45,57,97,83
136,240,91,60,47,56,94,68
131,218,99,56,44,65,82,69
136,228,109,61,41,67,91,73
134,220,109,66,43,73,107,62
131,238,102,60,44,65,95,55
144,247,107,62,47,69,97,50
127,238,112,65,47,67,137,53
123,228,104,62,47,61,131,48
119,254,103,70,45,55,116,47
118,246,117,78,45,77,123,42
104,276,159,88,40,80,123,42
123,269,152,89,40,76,73,32
129,321,161,107,46,78,72,35
139,299,173,101,45,90,96,35
139,296,167,95,43,98,118,36
138,333,153,111,56,115,129,42
147,341,153,114,57,128,142,43
144,306,151,102,54,130,144,39
153,305,147,105,57,127,129,40
146,308,141,109,56,114,110,38
133,226,113,81,43,97,101,35
111,214,115,72,41,82,87,34
132,223,119,72,40,81,85,34
122,240,120,67,36,72,81,34
124,227,125,70,37,70,81,34
128,256,133,72,37,71,82,30
132,285,154,78,42,70,85,32
113,295,147,72,43,69,86,34
131,278,144,81,46,69,97,39
130,295,146,74,45,69,89,39
129,286,135,73,44,58,89,37
116,249,96,60,39,56,81,35
113,229,93,75,40,52,78,32
93,246,100,86,44,60,60,30
96,235,105,89,45,60,80,32
87,210,108,89,43,64,74,33
86,209,110,91,41,65,71,34
111,231,114,80,37,65,78,46
96,223,127,61,33,57,81,47
108,272,122,62,38,51,84,48
110,286,123,59,40,47,85,48
111,289,136,61,47,47,89,47
89,292,166,75,53,56,88,37
86,293,152,72,52,54,86,30
130,280,164,76,52,53,62,28
143,305,165,78,54,54,68,30
146,320,158,79,50,82,100,34
143,310,126,70,44,89,105,33
148,306,120,70,45,89,107,39
104,290,102,66,44,91,107,38
89,274,92,66,44,88,100,34
78,260,99,62,45,67,70,30
109,248,105,69,46,49,55,32
107,255,101,68,44,49,52,35
106,263,101,69,44,45,50,37
104,240,99,70,39,43,50,36
112,234,89,74,46,34,36,38
86,227,87,67,46,39,53,36
76,219,95,69,46,39,53,27
87,206,88,62,45,39,55,30
109,202,88,57,45,38,56,32
134,204,88,70,43,37,53,33
136,217,89,64,40,39,55,34
140,227,94,68,42,49,61,32
134,219,97,67,39,56,65,27
119,240,97,68,41,62,65,25
113,264,98,54,39,65,66,24
116,251,95,69,43,64,65,28
116,265,80,67,42,64,79,30
108,273,78,67,42,62,78,30
110,266,77,66,43,64,79,30
106,246,85,63,41,68,87,30
106,259,71,46,39,66,78,28
106,247,97,46,37,62,67,26
105,224,98,50,37,60,76,31
115,221,101,52,37,56,77,33
109,244,112,65,36,57,79,32
106,224,122,64,39,55,79,39
108,224,113,74,40,54,73,41
107,239,123,77,40,53,98,38
102,260,123,76,41,54,101,38
106,240,118,68,42,57,104,39
104,246,116,72,40,63,106,38
112,257,119,60,41,68,107,38
119,256,110,58,42,74,93,38
116,236,121,60,40,76,97,41
128,237,118,61,40,79,89,46
134,236,138,61,39,79,92,48
132,224,149,66,36,81,95,49
138,233,150,61,37,79,88,50
152,244,143,58,35,77,81,48
135,235,137,54,35,76,78,45
150,242,117,50,34,78,91,39
147,238,101,53,34,72,96,43
145,245,122,56,32,73,100,44
143,260,121,57,49,80,102,47
143,267,124,56,52,76,108,44
127,271,114,56,55,72,99,40
128,273,115,52,59,72,100,36
134,274,100,50,60,70,91,34
134,246,97,53,48,59,97,31
132,234,95,54,50,59,94,33
132,215,99,55,48,63,100,34
127,209,86,49,45,65,95,31
148,207,87,50,46,67,91,33
153,215,92,53,45,72,80,33
153,232,90,54,39,75,85,45
147,239,87,52,36,68,79,58
148,243,86,51,36,65,71,65
165,242,101,66,45,63,73,69
147,250,95,63,47,60,84,70
150,248,111,62,47,82,92,64
173,258,111,66,51,94,85,58
189,244,112,71,53,97,85,53
147,218,88,53,44,109,93,46
148,208,97,54,40,112,83,45
144,191,84,54,42,92,70,42
154,169,89,49,41,87,71,36
158,178,92,56,41,87,97,44
160,190,91,57,41,97,89,43
160,177,82,59,44,102,90,43
155,176,81,60,44,103,87,44
179,211,87,65,44,101,85,42
165,208,87,56,42,103,60,36
171,246,99,63,41,103,86,43
181,249,110,64,41,94,92,47
195,259,112,65,39,93,91,47
146,247,101,64,35,99,91,49
153,304,105,66,35,101,93,47
147,291,100,68,41,73,70,45
150,289,102,64,42,86,73,44
135,286,97,66,47,94,70,43
163,335,109,73,46,85,69,45
153,307,116,72,50,83,85,52
192,330,115,68,49,91,90,55
189,337,106,69,46,81,82,55
189,328,107,64,42,73,83,57
168,278,96,60,51,74,95,56
188,315,86,58,47,78,78,51
159,277,89,57,55,85,81,42
157,281,96,65,56,83,100,42
163,289,114,72,58,92,125,45
159,288,115,65,51,91,123,45
143,225,108,71,52,81,122,43
132,224,104,72,42,64,116,44
118,216,92,63,42,63,105,43
120,215,77,66,43,59,83,36
109,202,79,67,50,60,83,35
122,191,93,60,51,63,82,41
127,188,100,61,50,67,81,43
151,174,106,59,50,67,75,41
140,170,101,48,51,56,80,41
145,175,95,45,44,55,79,37
124,194,86,51,44,71,79,32
120,182,79,49,45,70,80,34
126,221,87,57,45,71,79,49
128,225,97,62,42,69,69,49
129,222,95,63,43,65,67,53
139,216,95,56,37,44,79,81
135,223,103,54,39,44,82,93
128,224,99,54,41,40,83,121
127,231,91,50,43,45,89,128
122,229,92,53,45,58,88,128
123,240,98,54,48,61,99,114
127,246,91,59,47,59,102,103
106,228,88,61,44,63,103,59
135,217,86,65,39,60,97,42
136,219,83,64,34,61,95,68
124,200,73,63,30,59,87,112
122,217,78,63,29,57,82,115
113,228,103,64,31,55,81,116
120,237,107,60,31,55,82,116
118,244,113,63,34,60,80,103
119,245,118,63,37,74,68,53
115,217,112,60,40,74,71,59
117,197,84,51,37,75,71,73
76,212,84,53,36,76,65,78
87,207,96,50,35,74,66,76
91,209,94,56,38,72,96,84
106,214,92,56,34,73,96,75
106,231,103,57,39,71,97,61
116,214,112,57,37,74,97,65
105,207,104,56,41,70,98,109
99,211,101,54,35,59,63,107
83,204,103,55,37,56,53,113
121,179,99,55,33,57,63,118
116,163,84,52,36,52,60,117
116,194,88,66,33,47,55,83
116,184,96,64,38,56,64,79
113,183,94,62,36,61,66,72
95,186,87,60,36,62,50,75
136,246,109,80,37,60,50,79
142,231,104,71,39,55,62,107
141,240,101,72,36,48,62,108
145,254,115,75,39,59,67,116
157,266,120,77,42,62,82,141
123,238,107,67,41,63,81,145
146,236,111,69,41,74,78,125
148,239,110,69,41,79,75,128
151,233,102,65,40,69,70,121
131,215,97,67,40,70,52,83
125,230,90,60,42,73,54,62
100,227,87,61,38,61,46,60
114,211,83,59,39,57,40,48
110,204,84,60,43,54,37,60
111,204,87,58,45,48,35,73
113,196,104,54,41,44,40,72
104,200,100,55,44,45,39,76
92,217,121,71,51,53,74,83
93,266,174,75,59,55,86,80
95,297,215,99,64,63,107,85
130,277,211,103,70,83,110,110
131,281,223,104,69,110,121,126
135,285,223,109,70,127,124,129
148,318,217,122,63,134,154,134
141,292,204,121,65,139,144,131
146,329,214,121,65,140,150,111
157,362,224,125,72,132,171,95
155,382,260,121,77,117,165,98
152,348,242,125,79,112,138,89
148,361,272,124,71,107,138,78
114,374,285,138,70,123,131,75
95,342,269,135,62,115,97,68
100,309,228,126,48,111,84,47
141,288,229,112,43,107,72,38
146,274,169,94,41,104,65,34
147,203,126,65,34,72,76,41
149,198,126,57,36,76,83,40
150,215,156,60,38,81,81,39
124,208,140,57,37,83,81,41
121,216,140,67,43,79,82,40
116,218,144,68,44,71,65,34
116,222,149,72,51,64,47,36
115,208,120,69,51,56,42,34
92,257,124,66,50,53,45,31
117,286,148,65,48,59,45,36
122,293,144,65,52,103,51,39
119,291,143,66,52,115,51,52
128,283,134,72,55,117,52,54
127,238,135,71,58,117,51,58
111,226,135,74,59,117,50,57
109,220,136,75,61,93,46,55
109,213,133,75,57,84,44,41
82,233,139,77,56,83,47,41
101,253,138,74,52,83,44,35
96,228,114,63,50,84,44,31
94,235,125,64,53,77,51,46
95,250,117,61,49,67,50,59
125,243,116,50,49,63,49,58
126,229,116,54,48,61,50,69
124,221,113,65,51,77,55,72
123,209,104,60,38,69,46,63
122,202,114,60,39,77,44,51
91,202,113,63,36,91,47,49
77,215,112,68,39,94,48,32
114,211,113,59,34,79,41,26
114,207,109,61,38,88,41,27
118,201,97,62,39,105,48,30
117,197,98,62,39,96,48,29
134,163,91,55,39,95,46,32
112,176,83,61,40,95,47,33
111,170,81,58,39,86,45,32
131,180,87,63,40,61,46,30
135,173,79,61,39,60,46,33
121,198,94,69,37,60,47,31
119,189,97,61,35,60,49,29
121,201,95,62,34,65,50,30
96,194,88,59,30,66,42,28
93,205,111,64,31,80,41,32
113,196,118,57,37,82,40,41
127,211,124,61,37,80,38,42
127,211,122,60,40,86,40,42
134,214,125,58,40,78,41,60
141,210,110,53,38,59,37,62
124,218,113,66,40,66,39,67
108,210,108,65,39,69,38,83
128,212,109,68,36,78,44,84
125,204,111,69,39,83,43,73
117,225,110,72,40,82,42,70
119,233,110,62,35,81,41,60
119,237,105,61,36,90,45,37
96,245,112,63,35,75,41,42
89,253,110,66,33,70,41,43
121,231,109,61,30,71,43,42
111,217,94,56,27,89,51,41
112,221,102,57,28,100,57,40
120,212,108,62,37,102,57,38
123,218,112,59,36,106,59,37
96,215,120,61,38,112,62,53
122,222,119,61,43,100,58,61
121,213,117,63,45,95,50,70
115,208,110,54,41,89,47,73
119,222,112,53,46,87,47,74
116,231,104,54,46,82,43,62
119,226,92,59,44,86,48,56
117,258,98,57,42,72,95,49
118,282,102,62,41,73,98,41
114,266,99,63,37,72,99,41
113,280,103,65,43,74,102,42
87,303,124,75,45,59,107,41
113,290,119,77,43,57,85,36
121,269,108,71,46,57,98,33
129,259,102,71,47,55,101,32
144,250,106,86,47,54,103,34
154,218,95,81,41,61,95,31
134,202,91,77,41,65,83,31
128,194,92,78,39,66,61,32
135,211,102,81,39,63,115,30
135,202,100,69,37,58,123,25
125,194,87,58,37,48,124,27
134,188,87,59,40,43,126,26
134,273,95,73,40,50,130,26
138,284,85,67,36,61,88,29
125,298,73,58,30,61,73,30
121,296,70,59,33,61,81,32
111,296,70,58,29,58,83,30
111,254,110,50,37,60,75,29
83,237,121,53,39,54,85,29
101,222,149,61,41,68,84,32
139,227,153,60,37,78,88,29
141,224,155,62,39,81,86,30
142,207,138,57,31,73,104,33
142,195,130,60,30,70,92,32
129,196,115,55,31,56,89,32
86,203,116,60,37,48,77,34
123,206,113,67,43,43,74,34
126,252,107,64,45,46,79,38
130,269,107,61,44,50,88,38
129,267,90,58,47,52,93,36
129,284,108,57,43,44,90,35
107,306,120,58,37,61,104,35
111,271,125,63,35,60,93,33
114,279,141,66,36,57,84,31
116,270,139,65,32,57,81,32
113,241,123,63,35,57,80,40
106,226,115,57,36,47,74,40
93,215,126,54,40,53,82,37
136,222,126,52,40,63,97,39
138,225,133,54,41,63,98,36
159,271,132,53,52,64,98,29
157,295,129,49,56,62,95,32
176,294,122,54,54,61,80,36
146,315,138,70,54,61,85,42
159,346,142,70,55,63,83,48
137,315,145,77,47,73,94,57
167,297,153,87,41,89,144,62
157,311,144,85,41,99,148,61
166,294,150,84,55,146,151,68
190,270,165,94,65,155,158,66
197,292,177,94,67,153,169,62
247,292,175,96,68,146,132,59
257,302,195,111,70,142,134,58
262,302,181,109,60,110,164,45
241,296,178,106,48,99,177,53
248,291,172,109,46,113,189,51
200,290,174,104,49,110,189,50
188,258,159,88,48,107,186,49
168,231,141,79,47,89,154,50
161,242,121,81,58,90,149,40
158,252,128,76,58,72,143,40
149,246,127,75,54,84,146,42
178,263,119,70,54,90,145,41
183,265,129,75,55,95,149,41
182,260,137,63,41,100,157,40
165,240,125,59,40,103,147,38
145,227,119,54,39,94,143,35
104,231,138,69,41,89,142,34
122,236,129,67,43,83,144,32
121,232,122,67,43,76,117,30
123,224,124,64,88,66,101,32
123,230,123,67,109,59,105,29
115,217,100,51,109,54,103,28
92,211,98,46,107,49,89,29
124,212,95,52,109,49,125,32
121,225,90,57,79,50,127,32
162,258,96,58,47,54,119,39
166,263,106,64,48,54,117,40
163,269,106,64,48,51,114,38
142,264,108,58,46,52,71,37
143,266,120,59,43,51,78,35
84,225,108,53,41,59,92,28
145,217,118,51,36,58,94,30
154,198,118,49,34,57,92,29
155,212,125,52,30,53,94,28
154,188,113,51,30,56,93,28
164,235,132,58,29,43,76,28
109,225,123,60,29,43,87,27
107,247,137,68,31,45,87,27
118,243,133,66,32,44,112,29
127,252,130,63,31,38,97,30
114,216,117,60,30,39,99,55
113,218,111,55,35,43,96,62
100,197,103,46,36,42,106,67
96,190,126,55,36,54,80,69
108,182,147,56,36,62,85,69
109,184,146,57,39,64,84,59
108,204,159,69,37,75,91,55
107,198,153,70,40,76,84,51
107,187,137,68,40,68,86,47
81,191,121,77,43,62,83,55
90,242,132,81,40,66,88,55
116,244,109,72,41,71,85,56
143,265,116,75,38,77,92,57
151,281,115,81,38,83,89,58
163,316,123,90,44,99,103,51
161,293,112,89,45,100,107,42
145,302,126,90,45,88,99,34
131,290,120,89,44,83,90,34
118,285,127,80,42,80,94,43
133,251,123,61,33,68,95,44
127,230,121,56,34,69,91,48
133,195,109,49,34,68,103,50
134,211,115,49,34,69,112,60
137,208,119,57,35,68,126,60
106,197,110,57,32,65,122,60
121,221,113,56,28,58,119,73
114,223,116,58,27,68,110,111
105,207,112,63,31,65,111,108
104,191,94,68,40,61,110,147
105,219,120,75,44,58,112,159
108,222,125,84,46,64,116,153
120,230,126,86,48,57,119,127
121,258,137,90,45,63,139,125
121,274,138,82,37,63,123,71
121,267,120,79,37,69,118,50
105,246,107,68,39,61,117,55
120,242,98,65,37,60,118,59
123,231,81,51,36,54,87,68
122,220,92,50,37,54,87,77
129,238,86,49,35,46,82,71
139,257,93,49,31,45,88,82
113,265,104,50,32,43,84,89
99,244,102,47,31,48,81,123
99,243,96,54,35,48,85,135
104,218,104,50,37,46,83,135
88,187,97,51,38,55,87,125
103,179,90,53,38,66,110,121
106,183,89,55,37,64,106,84
98,192,91,61,37,63,111,52
93,188,79,61,36,61,122,53
102,200,77,59,35,52,108,71
87,233,74,60,34,40,78,76
90,228,83,61,36,47,88,83
122,222,77,48,32,47,82,83
129,226,94,52,31,44,76,85
130,219,97,55,31,47,77,93
138,192,104,51,32,62,79,86
138,200,100,53,33,59,67,78
119,227,101,56,32,62,62,76
129,219,98,55,31,69,47,75
120,222,98,53,30,71,60,53
119,244,97,59,29,57,74,58
120,242,102,60,27,59,87,58
113,218,97,59,31,63,89,54
98,213,83,56,32,59,90,52
108,211,96,56,33,60,91,48
99,199,103,60,33,58,79,45
91,206,117,59,35,62,77,44
94,220,133,57,35,63,81,45
98,224,133,55,34,59,78,42
100,231,122,58,33,64,74,39
104,214,112,51,35,64,81,36
108,244,100,53,34,57,67,31
113,234,89,53,30,50,61,31
99,227,85,54,30,54,64,30
81,242,94,52,31,52,56,34
74,243,95,52,30,51,44,33
72,213,97,53,30,54,42,37
58,203,92,52,37,53,36,43
47,213,93,51,38,49,47,47
48,182,92,48,38,43,46,43
97,182,111,48,37,47,98,47
118,195,103,52,35,49,104,44
120,198,106,55,33,52,111,40
141,204,106,56,34,52,106,34
146,210,101,60,36,62,107,33
122,200,79,68,38,72,67,28
119,200,75,59,40,80,59,30
126,196,69,55,38,79,47,30
117,202,81,60,36,80,45,32
116,198,85,56,35,73,66,33
114,198,82,50,39,72,77,33
104,207,87,52,36,70,82,29
128,212,84,52,35,72,85,29
122,220,78,51,38,72,87,30
119,218,82,52,37,74,71,29
128,227,100,47,31,69,61,28
125,201,95,45,31,62,69,28
94,202,104,47,30,64,70,26
123,200,111,45,29,62,71,23
136,224,118,50,31,59,88,33
132,215,103,50,32,61,103,33
135,211,105,53,33,58,93,38
134,216,101,52,34,52,94,49
124,197,97,49,34,52,92,56
127,189,88,50,32,53,74,53
139,184,89,48,29,45,48,54
136,226,98,56,33,68,79,60
132,227,92,65,41,70,74,53
120,268,95,71,43,78,91,47
101,264,86,68,43,76,91,45
94,276,91,66,44,76,90,44
114,252,81,58,43,57,65,28
140,247,86,47,34,55,73,26
133,219,87,61,36,47,54,27
133,207,98,66,36,45,66,26
132,200,104,68,36,41,66,28
117,196,103,70,34,54,73,50
96,207,110,72,36,54,63,89
114,192,101,56,31,51,62,110
122,203,99,56,30,50,48,118
118,228,88,57,30,57,47,137
112,229,86,55,30,49,34,141
109,223,84,53,30,53,36,135
114,221,91,54,32,54,34,122
116,222,119,63,33,54,33,115
112,185,119,60,33,49,31,96
113,185,120,61,34,58,61,79
129,176,114,65,39,60,62,53
128,187,109,68,39,58,62,42
122,193,89,61,39,58,62,42
121,212,89,62,39,59,62,34
118,210,90,59,39,50,35,34
94,217,85,54,35,50,50,31
80,214,84,46,34,53,51,32
78,245,77,43,36,57,51,44
101,235,76,45,34,54,52,60
101,241,77,48,37,54,54,74
109,239,81,47,38,56,44,79
104,229,84,48,39,56,54,77
110,187,70,43,39,52,54,71
94,196,73,49,43,52,53,57
120,206,72,55,43,46,50,39
144,200,80,58,41,37,45,31
153,201,80,59,43,33,31,33
150,236,96,68,40,34,31,33
194,238,97,69,42,35,31,39
185,237,104,74,46,37,34,40
166,245,97,74,47,44,36,41
154,246,94,75,44,47,38,41
159,225,76,67,43,51,40,39
112,226,77,64,39,51,40,33
122,209,76,55,35,49,36,31
121,201,87,50,34,44,33,27
123,199,105,51,39,53,34,29
112,188,113,48,39,54,31,30
103,173,121,42,35,54,31,32
78,189,115,45,34,54,30,34
70,191,105,52,32,57,32,36
68,193,89,52,27,57,28,33
92,199,84,53,29,53,28,32
106,194,69,55,31,53,28,37
108,185,71,52,29,53,29,33
113,181,86,49,34,50,39,30
128,193,83,49,37,42,38,33
113,186,84,47,34,41,38,32
118,213,91,53,34,43,38,23
124,209,100,56,37,43,37,26
134,216,100,60,39,56,34,30
118,212,106,60,36,53,34,27
116,208,119,61,42,55,35,30
92,192,121,55,40,53,35,30
99,210,117,58,40,53,35,31
85,197,107,52,35,39,31,31
86,193,99,49,37,43,33,31
132,200,101,51,33,42,33,30
138,194,95,55,36,44,34,31
155,193,90,47,37,46,36,33
158,202,88,47,37,41,32,29
162,203,101,48,36,59,32,31
171,195,80,45,37,61,34,30
173,212,88,45,36,61,34,29
155,187,92,45,34,60,31,79
151,210,94,49,33,62,36,90
147,211,84,53,37,45,34,97
102,211,93,58,35,45,31,99
125,233,96,62,37,44,36,100
118,238,97,66,40,44,36,69
126,241,101,64,49,43,34,54
135,250,103,60,48,41,34,39
129,247,92,55,48,44,37,40
94,216,84,56,50,44,32,37
127,277,90,52,55,43,34,35
119,287,98,56,51,41,34,34
105,286,102,57,51,38,33,35
105,291,105,56,53,40,58,32
116,290,95,46,49,40,88,30
97,238,86,49,43,40,90,29
96,210,81,46,40,41,91,29
111,202,91,49,40,43,94,31
125,227,94,51,38,35,81,31
124,246,96,51,42,44,102,40
127,258,96,51,41,45,104,40
134,264,95,51,41,43,103,40
128,300,94,60,42,41,103,37
143,281,95,61,42,39,134,40
137,265,102,64,41,38,122,34
140,256,99,63,43,46,128,37
134,249,101,63,39,46,134,38
136,200,88,55,42,47,138,41
108,209,85,57,41,48,113,38
139,201,80,57,38,46,90,37
125,200,101,60,35,51,88,36
124,193,107,57,36,51,81,34
125,199,116,60,30,54,73,32
134,212,123,60,31,56,65,31
106,234,145,68,34,58,62,35
115,229,140,72,36,54,77,34
116,229,137,70,36,56,92,34
121,227,128,65,36,54,94,32
115,218,119,69,35,55,95,36
113,207,94,61,31,55,98,39
113,222,86,53,30,51,93,40
124,234,80,64,31,51,87,41
123,258,93,68,31,60,95,45
117,244,93,62,35,58,97,48
133,248,90,66,36,54,97,47
132,238,94,65,36,51,88,46
121,234,95,56,36,49,83,45
125,230,82,52,36,35,80,41
131,229,81,49,33,47,93,34
109,212,81,42,31,48,93,34
118,216,78,42,32,52,88,31
125,227,80,46,30,54,82,31
112,194,83,45,30,54,73,30
119,194,84,53,34,44,53,34
120,198,87,60,41,48,68,34
103,195,80,59,40,46,66,36
112,193,69,58,41,43,66,37
121,223,72,61,40,44,68,38
113,252,73,55,37,43,64,34
114,253,76,45,27,44,54,28
112,246,77,47,29,43,59,26
96,234,108,58,36,50,82,27
87,206,110,55,37,49,84,26
103,183,108,57,38,48,86,37
121,184,100,56,37,38,92,38
119,192,106,57,37,38,90,38
114,212,96,48,31,32,73,41
114,207,96,50,31,33,70,41
103,210,102,47,29,32,69,39
82,201,103,47,30,33,67,34
92,213,115,48,32,34,76,38
104,211,129,54,33,36,76,35
97,240,130,51,32,36,75,35
97,223,127,51,32,37,75,27
95,223,128,52,33,38,58,28
87,211,123,53,29,37,39,26
75,192,116,50,36,36,44,25
130,159,107,49,35,40,63,31
129,200,106,51,36,43,69,32
131,212,117,56,38,40,68,32
137,204,108,59,37,47,76,34
137,209,83,57,33,44,79,37
90,231,86,59,34,39,66,37
80,205,93,56,34,36,63,37
143,267,87,52,33,38,63,40
142,296,90,50,36,40,56,38
142,298,104,52,32,44,40,37
143,283,103,56,35,46,61,31
156,308,103,58,34,48,59,34
141,254,97,58,33,55,64,31
134,218,119,55,34,55,124,32
139,242,143,55,45,56,131,32
148,244,146,54,44,57,126,32
140,216,144,56,46,56,131,31
118,216,148,58,47,55,131,38
130,227,134,66,45,50,93,38
156,224,101,68,38,46,82,38
155,218,109,67,39,53,96,49
164,219,108,67,41,73,95,51
157,212,112,64,40,78,100,48
164,200,111,68,45,78,87,47
144,167,113,79,45,81,98,45
134,166,103,84,46,86,103,36
121,162,98,84,46,74,107,35
146,159,83,83,47,68,106,37
145,183,92,78,46,71,115,44
149,204,94,67,45,69,113,47
149,206,99,60,47,58,93,48
171,211,100,63,47,63,89,46
154,242,115,71,48,75,112,46
142,239,115,72,48,84,105,40
133,219,112,66,47,85,103,42
139,219,119,73,43,83,112,40
157,209,119,69,45,80,119,47
148,187,109,65,42,82,102,45
149,186,97,60,43,74,102,48
159,193,97,66,46,74,110,46
179,195,83,56,46,76,101,47
152,193,82,61,43,72,89,38
154,185,76,58,46,59,105,37
160,181,73,53,44,58,109,35
156,169,65,47,45,60,100,36
126,175,73,50,44,61,99,36
117,208,73,50,48,60,99,37
119,218,76,49,47,56,77,38
114,205,74,48,43,74,88,38
131,221,112,60,42,81,97,45
151,213,114,63,42,80,98,45
155,186,120,60,40,80,105,46
149,176,134,67,39,79,98,45
168,210,147,67,38,70,100,43
158,200,119,53,34,66,104,39
143,217,120,51,33,75,125,42
136,236,122,49,33,76,119,42
140,251,106,43,37,75,119,44
127,238,89,43,40,64,104,42
115,238,88,54,43,66,92,37
110,242,99,54,43,60,91,34
152,229,94,52,40,62,98,42
173,226,106,51,39,68,102,45
169,233,120,58,38,67,100,48
168,233,128,51,39,64,110,52
174,223,113,50,40,64,94,52
139,216,122,53,40,65,99,44
106,216,115,58,36,60,94,39
130,204,105,64,41,64,97,36
138,208,96,64,37,63,95,36
141,223,95,65,41,76,90,38
151,228,80,68,41,79,82,37
171,230,81,69,41,80,101,41
145,227,77,59,38,74,103,43
147,235,71,59,38,78,88,39
142,210,73,54,33,69,92,38
159,228,90,56,34,75,100,39
141,213,106,48,33,76,99,39
144,206,116,52,36,80,97,36
176,192,121,53,35,76,95,35
189,199,118,55,33,78,107,35
172,173,107,50,31,68,99,36
176,190,88,65,35,76,88,38
175,200,85,64,34,76,105,43
131,206,85,66,36,80,113,42
123,212,86,65,38,79,106,39
147,206,84,68,39,89,104,46
147,207,87,54,38,85,111,47
146,203,99,56,36,90,107,42
180,193,98,54,35,91,120,45
177,209,114,59,36,92,115,51
167,223,118,60,36,86,116,48
190,214,116,63,37,97,127,44
307,236,104,70,44,98,133,51
302,255,107,77,58,102,118,48
303,238,100,84,60,108,127,51
326,254,107,86,64,109,135,54
320,253,111,87,67,102,136,58
277,240,114,87,75,110,130,55
349,251,182,103,73,105,157,70
376,272,193,100,80,105,160,66
377,259,201,97,79,104,159,60
382,260,203,96,85,99,145,57
349,247,201,95,85,97,146,59
274,260,162,79,90,104,125,50
346,264,155,79,85,110,122,51
326,281,150,81,92,110,117,51
318,276,159,84,86,113,133,55
315,281,154,82,76,108,133,50
318,239,135,72,63,112,132,61
230,223,154,70,65,96,129,60
220,221,145,76,54,95,146,64
230,233,133,75,52,120,144,63
222,256,158,85,64,120,159,65
221,274,159,92,65,105,154,52
213,280,134,93,66,107,157,55
257,275,130,90,67,142,161,53
251,267,132,87,67,121,151,51
267,270,112,72,61,120,144,59
263,250,116,72,62,125,142,56
232,233,119,68,56,128,146,55
267,242,126,74,65,100,124,55
262,243,122,73,66,108,144,56
246,219,119,76,64,107,134,48
253,228,110,72,61,118,140,52
280,259,123,77,77,131,129,48
207,263,116,78,71,128,135,46
215,273,119,79,69,134,121,46
272,281,132,87,69,140,114,46
263,286,135,81,68,126,116,50
297,249,114,75,49,111,129,52
298,283,129,74,53,103,129,58
313,288,142,80,62,83,120,56
262,300,147,75,63,93,137,62
268,291,146,77,70,100,151,53
196,312,162,87,76,101,146,53
186,259,157,96,75,112,150,47
178,250,148,93,67,120,150,48
188,220,157,96,77,114,151,37
181,259,159,96,80,116,152,54
191,245,151,93,89,124,158,57
233,300,213,113,85,135,154,60
214,294,219,120,90,135,155,61
203,294,207,115,84,141,166,66
203,259,206,119,91,142,161,63
209,270,212,120,82,136,150,59
164,219,181,100,91,114,146,54
174,260,178,105,91,117,148,51
202,259,173,112,99,109,120,46
204,269,171,110,86,106,100,37
196,260,170,106,83,104,114,36
201,293,154,113,80,106,110,38
181,272,185,102,75,100,107,40
156,281,192,98,64,119,121,49
145,276,188,105,84,115,118,47
178,292,177,108,85,112,121,53
175,264,167,92,78,111,131,51
187,249,116,87,84,109,133,51
183,249,100,79,80,84,114,47
182,268,117,68,57,86,117,50
152,251,122,64,57,88,100,47
144,246,131,64,60,87,82,47
124,262,138,76,52,81,80,46
120,249,135,75,50,84,116,41
119,229,124,71,54,81,116,39
120,238,127,65,54,82,120,33
122,242,137,64,50,87,120,51
122,232,132,50,48,90,119,52
135,254,135,54,56,77,84,52
143,310,145,54,61,82,82,51
134,306,152,57,60,78,76,52
141,303,145,69,67,76,77,38
150,327,172,77,70,72,79,42
150,313,173,74,63,72,96,41
142,251,163,76,56,75,97,41
146,269,156,87,60,79,102,43
135,269,140,79,60,78,100,39
127,236,116,74,60,84,95,34
131,279,124,81,63,110,112,35
152,285,122,81,63,106,106,40
159,284,133,69,63,104,101,41
160,273,143,72,54,101,101,42
181,272,160,71,55,101,105,42
167,248,173,63,81,124,104,61
153,240,177,66,81,126,105,58
142,218,164,64,78,126,104,60
211,291,167,73,89,129,103,66
206,303,157,85,87,126,99,67
206,311,149,91,77,115,118,53
209,317,155,91,80,118,127,56
249,374,195,103,85,122,133,61
208,337,201,93,80,119,134,57
203,337,202,85,81,119,133,56
201,315,192,79,71,91,93,52
202,308,185,82,77,96,103,53
154,244,144,69,72,97,100,43
159,218,121,79,75,98,104,43
158,196,97,77,77,101,107,40
156,197,94,82,77,123,105,41
164,198,88,79,71,123,84,38
163,192,84,74,72,120,77,37
148,224,91,69,60,118,70,37
136,236,98,70,59,118,66,39
138,298,123,71,58,96,56,39
178,312,125,71,54,86,55,41
167,309,120,70,48,86,56,43
171,283,123,66,52,87,52,40
210,280,151,69,50,86,51,44
227,224,143,63,48,87,59,44
188,214,153,61,47,83,51,39
192,218,175,67,47,83,50,41
211,226,183,70,60,93,55,45
195,221,163,64,60,94,55,42
177,202,172,70,65,99,63,44
187,223,169,70,69,96,66,53
189,209,156,74,74,105,70,49
167,230,147,72,65,97,70,46
152,222,150,80,65,95,70,44
160,225,137,78,58,73,49,43
150,199,136,77,58,73,52,35
139,208,132,74,53,58,56,35
166,174,117,71,50,55,52,35
177,186,108,62,47,49,52,36
182,215,130,82,51,52,59,37
174,222,127,84,48,74,56,33
186,224,121,80,47,72,49,33
175,224,117,80,44,71,56,32
153,226,117,84,45,72,58,39
144,213,84,60,41,69,52,36
142,219,86,71,42,50,51,35
129,229,91,74,43,59,70,37
126,222,89,77,44,59,66,40
129,211,90,70,44,64,65,34
137,231,99,77,47,70,67,44
146,262,104,71,47,64,68,49
161,242,114,78,46,65,49,51
138,246,145,87,51,76,62,51
139,261,151,89,54,72,61,50
129,250,144,89,50,66,58,43
140,234,144,87,45,66,57,43
137,251,155,83,51,68,65,52
146,265,136,76,56,62,93,55
144,254,134,77,53,62,93,55
148,234,131,69,52,61,94,54
123,208,127,68,54,68,94,53
132,184,117,65,52,61,88,44
139,214,135,73,43,59,46,39
165,217,141,73,42,88,62,38
185,225,149,79,46,106,112,41
188,225,146,78,44,108,124,42
185,241,133,78,43,107,126,39
176,195,115,62,47,104,127,36
175,198,98,62,48,79,119,42
160,211,84,54,48,54,76,39
170,201,93,50,48,67,60,37
156,202,101,49,46,68,71,36
172,212,87,51,47,70,68,36
147,208,86,48,46,72,66,30
128,240,94,50,47,71,65,30
118,252,113,54,49,59,63,36
147,237,106,49,51,61,49,38
128,231,115,54,47,57,54,39
138,220,112,57,47,58,55,40
145,184,119,65,44,60,56,44
158,176,105,62,43,53,49,38
159,189,108,68,39,49,46,38
160,182,104,63,34,51,39,37
159,195,122,61,33,50,37,39
166,187,116,54,36,60,43,52
161,203,120,57,35,55,48,56
147,225,122,55,36,55,47,64
138,222,120,55,47,57,50,67
126,223,119,54,51,59,52,65
136,218,114,49,48,50,46,51
141,203,102,46,49,58,41,46
132,181,121,46,50,57,43,32
136,200,126,46,51,63,39,36
151,217,116,50,49,66,56,42
150,217,112,47,50,65,56,43
135,249,127,53,51,56,56,45
160,250,111,64,52,62,54,45
163,240,105,64,47,58,55,38
154,232,105,62,48,64,52,36
134,234,114,68,47,69,60,36
135,216,93,62,47,73,68,40
115,215,87,55,45,72,71,43
118,210,95,54,40,67,69,42
117,204,100,61,44,57,73,40
118,200,97,59,45,55,68,40
110,179,129,65,45,52,62,33
119,163,127,67,48,46,74,34
140,164,125,68,49,46,81,38
139,186,119,61,46,46,70,41
143,191,124,60,43,43,68,42
162,201,91,56,40,38,67,42
146,201,92,49,35,39,52,38
142,208,89,49,31,42,46,34
142,196,90,56,29,47,45,32
156,207,78,56,29,47,45,27
149,206,80,60,30,49,46,29
155,217,76,64,32,50,41,35
141,209,70,65,31,48,36,34
154,199,65,63,34,38,29,34
143,193,72,66,38,46,36,37
149,184,68,60,37,46,37,36
140,170,74,57,35,46,37,30
131,187,73,55,36,52,37,30
122,202,88,63,42,54,43,29
118,203,88,59,41,50,37,27
96,213,86,57,41,51,34,26
95,220,79,55,40,49,36,26
130,205,80,58,41,44,36,35
137,176,70,42,33,42,29,34
130,183,85,49,32,37,26,35
130,167,90,52,34,36,25,34
132,193,109,53,35,46,30,35
103,219,112,52,34,47,31,30
92,231,113,52,33,50,32,32
94,226,98,49,34,52,34,35
119,229,103,54,36,52,36,39
114,198,87,53,40,46,31,39
113,192,88,50,41,48,30,44
116,191,89,55,41,47,32,62
114,197,93,53,40,44,31,63
84,200,85,45,39,45,31,61
114,205,83,47,33,46,32,82
114,191,91,46,32,40,33,109
118,202,90,43,30,43,30,104
117,179,87,39,29,42,32,102
129,187,89,45,29,42,37,108
110,181,97,48,31,41,40,95
117,199,93,62,32,41,40,62
104,196,90,67,36,38,40,54
107,203,95,70,38,43,37,55
122,200,110,69,37,47,37,45
145,224,109,68,38,43,36,50
142,210,104,55,37,46,37,47
145,193,106,49,36,46,37,47
160,202,107,60,41,48,44,48
143,216,133,66,47,50,58,48
125,206,140,86,48,54,66,41
158,212,150,99,58,61,102,43
292,274,153,103,60,98,106,58
341,301,175,101,57,120,126,66
354,295,155,99,61,143,131,73
357,303,182,92,75,176,137,79
345,297,188,82,73,180,123,79
275,252,198,83,74,164,121,70
207,219,194,79,76,149,100,61
185,208,191,74,74,131,91,53
173,191,157,65,63,97,81,49
227,207,144,66,59,85,75,47
207,219,133,67,57,86,73,47
204,210,108,70,54,84,74,46
205,213,101,71,45,78,70,45
259,247,115,68,41,80,105,39
215,251,115,65,38,87,100,38
200,231,114,56,39,91,103,37
205,245,126,64,43,91,118,42
210,241,132,68,45,93,116,45
137,216,115,67,46,79,99,60
148,206,111,66,45,71,100,83
187,240,110,85,49,73,101,87
185,261,122,85,56,81,115,89
191,280,135,86,59,98,122,90
199,267,141,86,57,95,109,83
189,270,142,87,58,98,107,61
163,261,155,71,54,91,113,55
158,230,149,64,46,85,81,46
144,232,148,62,41,78,103,44
136,256,150,63,45,82,108,40
139,258,158,63,46,87,119,38
123,259,144,62,44,88,113,39
120,282,132,66,43,92,114,39
119,280,116,63,43,75,85,35
113,288,122,61,40,72,73,32
100,288,115,59,37,72,71,31
117,283,113,64,39,73,89,30
113,263,104,55,38,68,95,31
129,247,101,57,38,71,95,38
125,214,79,58,44,74,96,45
125,197,71,58,41,65,85,68
106,192,64,52,42,65,63,70
116,191,65,51,41,62,51,75
108,193,66,49,44,58,51,77
108,181,75,50,37,53,45,75
126,192,77,58,44,60,48,57
117,184,71,60,41,59,56,53
111,209,74,62,45,63,76,45
94,229,79,61,42,68,76,35
128,271,85,69,46,74,80,33
119,267,86,60,43,66,77,44
120,260,93,64,42,66,69,48
116,251,91,60,42,93,58,49
118,232,85,67,45,90,57,54
95,186,73,58,42,87,53,59
123,196,84,62,42,89,56,52
124,229,116,53,46,88,70,51
124,211,119,53,45,53,75,50
135,218,121,44,42,53,83,45
134,223,126,40,40,47,82,37
100,231,119,49,40,41,80,31
96,231,92,54,37,39,69,35
123,236,96,57,39,43,69,36
128,254,110,58,41,49,68,41
123,265,105,60,40,50,68,43
