56,105,68,67,148,165,46,148
372,100,61,62,163,179,47,148
508,101,66,63,160,198,46,143
533,108,69,69,160,213,43,130
565,119,75,81,158,214,51,68
584,127,76,72,148,209,52,60
457,124,76,72,125,190,50,82
314,122,71,71,121,184,53,100
274,116,76,78,145,178,53,126
208,108,70,71,129,162,46,202
147,83,63,79,149,189,44,237
140,80,66,82,155,195,46,233
103,101,71,81,149,173,41,228
224,100,62,67,122,158,39,219
443,92,58,60,118,162,47,148
688,98,63,58,99,137,50,79
707,100,61,54,90,126,51,83
706,89,60,60,117,157,52,87
678,87,59,62,105,146,58,86
559,86,60,66,107,143,50,87
189,96,62,61,104,131,48,87
99,96,64,67,108,134,48,78
99,86,56,60,86,107,48,63
79,92,61,60,112,151,45,378
55,93,64,60,112,152,44,983
40,76,61,65,113,157,44,1203
47,72,55,59,129,170,43,1501
50,81,55,60,129,164,41,1668
346,73,49,56,116,153,47,1799
391,74,45,54,120,165,52,1563
404,75,48,58,131,185,53,1414
405,80,49,61,124,203,56,1110
411,71,51,60,129,207,56,852
231,87,57,64,133,205,58,383
144,92,60,65,159,225,54,354
105,92,53,65,163,207,56,300
98,89,59,77,174,199,51,231
68,94,60,78,177,215,52,175
62,83,64,78,174,214,46,123
67,84,65,78,154,188,44,82
68,103,75,72,144,215,45,56
67,124,79,61,126,196,49,36
73,131,82,60,128,186,53,38
80,147,81,60,141,180,48,37
461,150,84,62,137,185,48,35
883,141,77,64,171,223,64,40
916,130,69,64,184,222,62,45
999,125,73,71,185,215,60,44
1324,104,67,68,177,203,62,45
1272,108,68,73,181,211,67,45
1058,110,78,75,150,149,52,43
1053,107,85,79,127,148,51,219
987,104,81,75,118,158,51,273
475,115,91,79,112,168,56,342
401,116,89,75,99,154,53,358
307,116,83,74,99,154,52,359
212,124,81,69,110,179,56,287
138,136,82,70,127,195,54,237
137,140,80,70,129,193,49,121
212,136,81,74,128,201,49,62
218,138,88,71,122,193,48,59
334,128,90,80,131,204,56,54
351,120,87,83,116,198,62,52
352,115,88,84,126,201,67,45
306,129,93,82,132,193,64,37
324,136,91,85,139,205,69,34
239,134,84,77,135,217,60,34
312,135,95,76,144,225,54,33
333,144,99,74,136,224,49,29
332,127,94,80,155,241,53,29
314,117,97,80,155,238,48,29
292,122,99,81,150,203,50,30
210,135,90,79,149,190,53,31
475,121,84,84,168,198,54,31
512,120,80,76,185,175,54,45
836,116,75,72,183,176,55,73
871,114,77,70,179,188,51,88
927,92,74,79,185,195,53,90
1132,87,67,72,163,192,53,90
1247,93,78,85,141,202,50,85
1123,97,80,89,147,222,53,63
1181,91,75,90,150,223,55,41
1422,95,74,81,128,213,49,40
1227,90,75,80,125,210,49,45
1197,104,71,69,106,215,53,53
1155,105,78,71,86,183,49,52
1067,107,79,71,98,169,46,56
638,102,79,71,108,159,47,81
553,105,78,69,109,159,45,105
298,85,71,66,104,132,49,105
250,84,60,58,109,129,49,109
257,83,57,53,99,128,48,115
260,81,59,55,96,143,49,494
244,81,58,53,104,150,50,628
194,78,60,54,105,162,49,700
130,72,55,54,107,187,54,702
102,73,58,56,104,183,54,705
62,75,54,48,95,182,54,515
65,90,64,52,97,178,53,336
69,90,60,53,92,170,52,131
68,102,65,50,91,146,45,111
67,114,71,47,92,143,49,90
84,113,68,52,111,129,49,62
92,99,60,54,106,134,49,39
292,98,62,57,130,149,49,36
371,94,62,63,133,154,51,40
387,76,54,61,130,165,53,38
386,72,57,61,117,170,50,41
386,77,58,59,131,173,54,63
272,85,60,58,107,162,51,70
173,77,52,57,112,164,48,66
317,84,57,59,118,161,44,65
398,86,54,57,119,151,46,63
407,83,51,54,103,136,39,40
465,71,46,50,107,142,44,25
515,73,50,46,95,132,46,26
429,61,41,44,101,154,44,25
357,60,45,43,106,168,44,23
348,61,47,44,112,180,46,23
260,66,50,49,113,175,40,25
105,80,59,57,116,181,42,27
96,90,63,60,112,158,45,27
80,95,68,67,113,151,47,28
60,92,67,65,108,134,48,29
56,88,63,58,103,141,50,29
49,74,55,57,104,147,49,28
41,67,56,55,104,145,50,32
36,60,47,49,93,143,47,31
38,56,45,51,88,137,45,32
35,57,47,53,95,119,44,38
77,56,45,52,88,109,43,41
94,52,41,48,81,126,41,41
104,52,43,50,92,121,42,42
103,67,43,45,93,124,42,45
121,76,44,46,89,132,46,40
119,73,41,45,97,131,43,36
128,71,38,44,96,121,42,34
120,72,38,44,99,128,44,36
128,60,37,44,98,125,44,46
114,57,40,42,99,119,45,64
97,57,41,43,103,123,46,68
69,57,42,45,113,126,47,481
139,58,41,46,109,128,45,809
142,73,46,51,111,128,43,903
217,67,45,53,109,126,41,911
736,74,49,50,114,143,40,914
896,78,48,50,105,145,38,783
1003,74,47,48,100,146,38,439
1021,59,39,43,97,153,41,182
1010,56,36,40,93,157,38,141
725,43,28,39,72,136,36,142
513,41,31,39,79,124,38,136
216,46,34,38,78,115,38,123
77,46,39,45,77,109,38,113
686,47,38,44,99,108,39,99
1018,48,39,43,112,106,39,61
1053,47,38,46,115,110,42,38
1178,48,35,47,122,120,42,30
1287,51,35,41,127,125,40,29
1349,63,38,54,118,126,43,33
1324,63,39,55,117,131,48,37
1355,62,40,52,111,151,46,35
1327,67,46,51,100,153,48,36
1313,67,46,50,94,156,47,34
1136,56,47,41,98,156,46,29
941,57,46,40,92,172,44,25
885,61,45,42,92,165,43,27
784,55,39,41,95,160,40,26
631,55,37,48,94,155,41,29
451,56,37,53,95,154,42,30
336,67,36,57,133,136,39,34
254,69,35,57,133,127,39,34
173,69,36,56,134,143,45,37
123,69,37,57,155,185,44,40
99,69,36,51,151,199,40,46
75,57,37,48,122,207,50,51
65,50,34,45,126,222,52,61
51,52,33,47,127,210,51,61
50,65,36,42,108,183,57,103
58,67,35,42,112,175,59,112
56,65,35,45,110,172,52,118
54,66,40,51,119,175,52,114
65,60,40,53,140,196,51,113
414,52,38,52,139,195,48,75
517,51,38,53,129,188,47,58
594,50,39,52,135,175,47,33
710,48,34,43,133,164,41,28
712,69,36,40,115,149,46,29
591,62,33,39,116,141,43,32
535,66,37,37,127,148,42,74
462,71,41,36,126,156,43,109
278,78,42,38,123,148,43,131
280,62,40,39,122,145,39,165
267,61,42,39,124,157,43,208
195,57,38,38,117,170,43,229
164,53,33,37,117,162,41,216
110,46,31,37,113,160,42,204
82,47,32,35,116,186,39,177
68,50,28,32,111,174,38,124
67,53,31,33,118,175,39,36
61,52,31,36,110,186,41,35
91,47,30,34,112,202,40,34
98,47,30,34,102,179,43,30
96,48,31,37,130,189,43,29
95,44,30,39,133,188,45,32
135,45,29,38,131,196,44,30
133,51,29,38,128,172,44,31
140,56,28,39,138,177,44,31
166,52,27,37,116,171,41,31
166,53,27,37,121,180,40,30
136,53,28,33,120,170,40,50
119,48,27,32,118,174,42,58
107,42,29,33,110,169,40,64
59,43,29,34,108,162,42,74
63,41,28,33,90,136,40,89
60,40,28,33,115,156,43,99
69,54,28,34,115,156,43,99
69,56,26,36,117,165,42,96
69,57,28,35,120,172,45,92
61,57,29,32,116,170,43,148
71,57,31,31,92,150,39,195
69,46,31,31,96,156,38,207
67,45,30,29,123,179,40,206
67,46,29,28,117,178,35,205
72,51,28,34,125,179,35,162
62,55,28,39,127,180,34,78
82,56,29,41,123,177,33,30
113,60,32,43,96,139,36,31
119,62,33,49,113,142,38,28
122,56,33,48,107,150,43,29
135,51,31,45,117,164,45,34
120,49,30,43,115,157,43,35
94,51,27,40,115,158,43,35
94,52,27,35,101,153,41,36
86,51,28,37,118,162,36,34
67,57,30,38,116,159,39,32
76,66,31,40,121,159,41,30
74,62,33,41,116,164,40,29
65,59,32,41,113,164,41,27
70,65,34,37,107,153,41,28
69,63,34,36,108,156,36,27
56,54,34,35,114,173,37,28
53,51,32,37,127,171,35,29
52,51,32,38,135,183,33,28
54,50,30,37,123,177,32,29
54,47,26,35,111,162,35,32
54,49,25,35,109,147,36,34
54,47,23,33,106,164,36,33
57,47,26,32,106,151,42,36
52,57,31,32,110,159,44,37
49,59,31,31,115,159,42,34
95,62,35,31,121,169,40,31
167,64,37,30,113,156,45,31
318,64,36,32,105,151,44,31
366,48,31,35,140,177,46,30
389,46,34,33,137,170,48,30
382,41,31,33,124,158,49,32
358,56,39,36,123,151,45,31
237,57,41,38,128,158,46,28
156,61,43,41,94,110,43,27
91,63,42,43,92,114,42,27
106,73,45,46,100,136,40,28
100,64,39,43,115,157,43,32
94,68,40,47,134,155,39,31
89,66,38,45,136,181,40,32
122,66,37,46,146,186,42,31
130,56,37,45,156,188,44,53
131,61,37,46,148,171,42,140
131,57,36,41,140,185,42,270
134,73,46,58,141,173,50,433
122,92,53,59,133,169,47,538
112,100,75,79,158,193,54,742
117,105,81,91,174,212,54,923
126,114,89,104,187,208,58,1008
122,122,96,101,198,211,55,957
103,133,102,111,225,231,59,908
97,140,101,107,221,201,57,751
98,146,105,106,234,213,56,502
91,190,136,116,228,222,53,196
108,217,153,120,224,214,50,162
108,236,172,127,211,216,50,123
100,237,174,130,195,229,47,115
109,254,188,147,178,211,50,124
118,235,186,145,179,196,49,201
110,240,179,150,177,195,57,218
117,237,177,164,203,221,60,224
132,314,197,175,215,254,59,231
144,300,185,175,238,271,61,212
162,306,190,192,244,275,68,129
172,291,181,195,244,290,65,91
216,296,189,190,229,275,64,72
309,238,185,187,215,255,63,45
401,257,197,180,197,253,61,42
490,262,193,166,203,596,60,43
595,362,234,181,230,789,95,42
751,393,245,176,223,1029,113,43
724,404,256,186,224,1052,118,45
676,399,253,190,206,1051,117,44
610,408,264,188,195,900,114,41
514,357,265,174,169,747,93,47
197,335,255,180,169,342,70,47
177,363,244,178,163,383,60,43
165,365,244,173,174,490,68,46
163,365,229,164,163,530,70,47
137,401,240,179,159,511,66,43
124,407,245,180,198,515,69,41
133,383,252,175,215,428,77,46
132,399,260,181,213,285,74,44
177,390,258,185,213,210,76,47
214,329,217,162,209,211,75,46
230,323,211,152,176,190,70,48
229,294,184,137,175,201,68,48
235,261,167,130,185,206,63,50
203,243,159,123,186,217,61,44
481,243,158,126,196,208,58,43
788,200,138,115,198,228,57,47
859,295,217,154,198,213,53,42
910,306,220,155,181,204,55,42
913,310,222,160,191,207,59,48
814,292,218,162,185,209,57,47
528,302,217,165,169,183,56,41
405,232,153,134,180,185,56,41
268,228,152,128,183,194,55,39
256,236,155,123,176,175,47,34
174,238,158,118,167,173,52,36
129,219,156,114,158,170,51,76
125,195,151,109,137,157,49,84
137,190,146,107,160,161,56,88
139,175,151,124,160,165,56,123
134,182,154,126,159,164,51,211
131,190,153,131,163,181,56,285
112,198,161,139,186,187,57,287
110,207,164,146,182,189,51,286
114,215,155,129,170,174,53,275
128,208,142,123,165,170,51,216
130,213,148,120,164,152,44,73
127,219,151,122,140,140,43,54
119,208,147,112,137,155,44,51
120,199,137,108,145,157,41,39
112,202,141,113,162,166,43,37
170,182,130,107,163,186,46,33
185,152,106,106,155,187,47,33
180,130,89,103,151,170,45,31
177,122,94,103,146,180,50,35
175,113,104,111,137,176,51,34
117,115,111,120,143,159,49,35
85,116,104,101,147,158,46,35
89,127,112,102,148,159,47,35
84,130,116,107,160,170,48,33
73,120,104,96,159,186,50,32
72,113,94,86,160,185,51,31
79,114,95,88,165,198,52,29
72,112,89,80,149,188,52,28
69,101,75,71,137,167,51,29
73,101,74,69,143,158,49,31
86,130,94,89,141,178,51,33
78,132,99,91,131,174,51,37
106,136,99,90,134,182,49,36
191,179,125,106,136,183,55,39
292,239,170,126,151,185,58,42
295,265,183,125,151,170,60,49
301,285,188,127,146,187,62,52
297,293,197,133,146,178,63,53
253,306,205,130,167,188,61,53
128,274,179,116,157,178,56,50
124,258,176,114,159,176,56,45
118,264,187,127,181,160,57,46
111,262,186,129,189,171,57,49
107,252,178,125,172,166,57,48
211,243,172,127,158,167,60,51
454,227,165,128,154,164,56,50
600,199,154,118,128,154,55,46
613,203,149,119,127,152,57,42
614,164,140,130,131,145,51,40
590,165,138,125,144,173,51,37
438,150,121,120,170,183,51,37
207,149,112,115,173,192,55,38
170,138,110,109,173,183,52,37
178,151,112,98,167,176,54,39
166,153,112,102,176,154,53,38
171,209,136,107,170,167,51,37
162,205,133,109,193,187,48,37
294,199,131,107,184,190,49,39
428,187,120,107,193,208,48,37
809,186,119,102,187,201,51,37
819,138,96,94,176,202,49,38
834,136,109,101,166,174,46,38
825,136,113,102,175,173,45,34
764,170,124,97,163,159,45,34
341,215,166,113,170,166,49,40
302,214,170,115,170,149,52,40
308,233,190,135,173,168,56,40
516,236,192,143,166,185,56,42
612,223,189,149,164,184,59,50
619,185,158,140,167,196,51,47
619,187,157,139,162,185,54,48
597,193,144,123,145,178,51,50
378,194,142,117,157,160,61,56
181,207,149,109,156,165,60,51
185,291,200,128,168,171,59,51
204,301,216,139,218,182,56,51
200,283,202,128,217,173,59,52
182,302,220,137,220,179,49,44
182,304,222,144,231,183,48,44
168,243,179,127,213,161,49,43
159,217,151,107,158,157,51,47
186,227,159,113,171,161,48,46
442,215,137,105,161,152,51,51
564,228,140,110,166,147,58,48
559,233,145,117,176,147,62,49
575,286,194,137,203,149,65,45
605,363,260,190,226,148,70,48
473,364,273,203,234,163,72,47
355,353,275,205,240,169,67,48
402,367,290,208,236,173,64,49
385,335,266,207,217,161,62,49
321,254,213,161,195,192,58,44
296,247,204,149,180,199,56,40
248,242,199,144,177,240,68,39
157,217,175,146,174,234,67,41
267,237,197,153,176,244,65,43
450,230,185,151,177,224,62,44
596,249,201,152,188,241,63,45
757,267,207,152,182,202,50,50
778,255,204,143,180,208,50,49
929,227,178,133,172,204,50,52
1063,248,197,143,152,210,53,54
1283,224,176,142,139,172,47,52
1227,209,156,139,115,162,56,47
1220,217,168,140,107,154,56,46
1092,275,191,135,122,152,59,42
974,289,195,135,127,135,57,37
854,289,190,124,141,149,61,40
1099,308,224,144,165,165,53,46
1433,309,226,152,169,172,52,45
1490,294,232,171,176,166,50,43
1457,293,245,184,191,165,51,45
1337,291,241,181,190,152,45,43
1146,262,218,182,241,177,51,36
682,250,205,172,243,175,53,36
533,224,182,150,236,182,51,36
474,190,132,118,228,183,51,34
327,197,139,125,231,193,52,34
172,186,121,96,182,163,50,34
113,180,126,106,194,193,52,38
107,160,121,118,207,217,54,38
106,137,112,118,206,215,52,35
101,120,97,111,191,204,53,34
351,129,103,110,166,196,50,38
448,133,95,103,161,203,44,36
451,136,91,83,138,170,43,36
452,134,94,89,140,181,42,36
454,157,109,98,146,188,48,40
307,146,106,103,153,178,45,38
131,140,104,106,133,129,45,36
109,135,102,110,136,155,43,35
99,138,101,102,129,157,46,36
140,127,92,97,122,151,39,33
469,134,90,99,121,163,40,30
670,129,87,95,124,171,38,31
724,134,90,89,133,163,38,33
840,132,85,90,143,168,34,33
841,115,76,91,157,173,34,34
727,145,96,85,163,217,41,36
561,145,90,77,168,223,43,36
490,143,96,90,165,221,42,36
277,145,100,87,152,208,45,35
268,140,100,80,141,222,45,34
238,97,81,75,125,170,38,35
284,96,82,79,112,158,40,34
288,97,78,74,115,196,40,32
256,88,72,73,132,214,38,32
255,102,87,85,136,213,38,34
240,109,84,84,133,213,40,35
134,106,82,86,136,225,38,34
124,91,71,73,122,184,36,35
133,95,71,72,108,157,39,37
105,85,55,74,96,140,35,34
96,71,52,75,106,164,32,30
90,71,51,72,103,150,44,34
90,72,54,79,118,169,51,38
74,67,58,83,122,186,63,37
64,56,51,68,123,190,84,45
84,58,56,76,131,194,93,48
95,61,58,78,146,214,94,53
92,66,58,72,143,237,114,52
91,65,55,71,149,255,122,52
89,61,53,71,158,270,120,51
71,59,47,64,157,270,119,49
63,62,53,69,160,275,140,49
60,59,55,75,154,253,127,50
69,67,56,74,158,261,124,51
70,65,56,77,170,268,119,49
70,63,58,79,174,257,115,49
60,65,49,85,184,235,87,41
53,64,45,83,198,238,84,39
41,58,43,85,191,194,70,38
34,56,39,87,180,175,62,35
36,59,35,83,187,176,62,45
40,53,39,71,176,175,63,49
42,56,39,77,166,155,54,50
38,55,39,78,183,175,53,48
40,64,51,89,179,179,57,47
37,68,58,91,165,166,55,37
38,64,56,95,154,170,52,30
37,63,55,87,156,176,51,24
44,83,62,89,187,166,51,23
43,79,53,74,222,146,44,23
120,75,48,76,230,168,47,19
162,87,51,77,240,177,51,25
168,87,56,83,244,178,55,31
168,75,55,81,221,181,53,31
168,74,55,79,200,213,57,33
125,79,54,75,190,199,52,34
61,68,59,71,175,202,46,31
42,69,55,68,161,213,43,25
38,60,50,67,145,230,48,26
37,57,57,81,137,199,44,29
51,60,60,85,132,193,43,31
60,65,57,86,142,169,46,33
222,64,57,87,154,163,45,35
804,78,60,90,156,160,42,42
1182,86,53,76,178,202,46,39
1223,81,50,74,203,208,48,37
1230,82,54,84,212,218,44,36
1222,84,53,83,220,222,47,36
951,81,59,80,211,190,47,26
403,77,61,84,188,139,41,28
260,76,62,80,167,132,39,28
229,76,62,73,150,129,37,27
166,78,64,68,120,124,40,30
140,78,65,65,119,130,37,31
108,77,63,59,101,131,40,29
84,81,67,65,80,131,40,28
210,75,63,63,78,125,43,30
318,76,62,62,95,117,38,28
737,71,56,67,123,131,52,32
947,75,56,67,142,134,52,35
1013,70,49,63,161,158,53,37
1002,68,48,61,168,163,53,36
1079,65,57,66,167,161,53,35
1130,59,55,59,155,169,43,32
1040,55,54,61,146,216,42,38
1018,57,55,60,139,212,46,43
1063,61,66,64,133,209,48,47
1012,59,62,62,159,227,52,48
705,59,62,68,166,219,53,48
584,55,62,69,176,171,54,41
509,51,60,68,169,155,50,33
392,45,47,61,163,145,46,27
204,45,50,65,143,125,40,23
130,46,47,60,144,133,37,25
125,50,49,59,144,164,43,47
107,50,49,60,143,165,44,64
75,51,48,60,148,174,43,71
51,49,53,69,140,170,46,83
39,47,53,67,133,163,44,102
37,53,56,72,160,158,42,108
32,55,56,73,172,172,39,106
31,54,56,73,166,166,42,102
391,53,43,54,164,155,38,109
648,51,42,56,159,156,37,100
660,43,39,49,115,132,34,384
661,50,48,50,101,139,37,752
680,54,48,48,125,161,33,1059
571,54,48,49,131,184,31,1196
247,64,55,51,123,178,33,1222
214,65,53,49,124,193,35,1175
217,67,52,48,118,176,34,984
161,73,54,53,102,164,35,645
109,78,58,57,104,145,37,331
112,74,59,57,122,156,34,214
112,73,59,60,137,152,36,143
107,68,53,57,138,161,33,114
86,59,50,53,133,159,37,86
70,53,43,48,123,155,37,52
52,49,33,49,109,138,38,37
55,51,31,47,94,126,34,32
48,47,34,47,92,116,36,602
47,45,33,45,92,103,33,1101
42,39,31,43,89,97,33,1198
46,38,30,39,89,97,31,1247
40,33,30,37,87,100,34,1380
44,30,30,39,83,106,34,1394
48,30,29,41,87,135,33,1088
66,37,41,55,96,136,32,986
65,39,45,65,95,138,33,924
65,42,50,69,112,132,30,710
61,45,52,72,154,133,34,323
58,48,53,72,154,111,37,115
37,45,45,63,150,123,38,100
35,47,42,56,158,126,37,108
34,45,36,49,143,112,37,110
37,43,31,42,105,108,37,110
37,38,30,39,100,105,34,111
37,35,27,35,104,88,34,64
35,30,25,26,95,84,34,40
37,30,26,31,104,88,33,38
42,33,28,42,122,97,39,42
88,33,29,45,125,110,40,42
95,33,29,49,126,109,42,45
316,33,30,51,140,128,43,58
409,32,35,68,173,133,45,73
411,27,35,62,200,121,38,73
409,29,35,65,278,123,37,75
416,30,36,65,395,125,40,76
291,31,36,69,406,109,48,63
191,32,33,55,482,114,48,49
215,35,35,65,603,127,47,49
404,36,38,65,656,122,46,49
733,40,39,68,750,130,49,48
907,42,43,66,776,133,43,72
1157,41,41,70,728,145,43,75
1163,40,42,62,638,140,45,91
1148,39,41,65,594,154,52,91
978,34,43,67,425,159,46,110
828,38,50,73,387,164,48,96
398,38,51,70,384,145,46,91
489,39,49,69,362,147,46,80
768,50,48,62,291,157,43,88
977,50,47,56,217,171,47,75
1032,44,38,44,174,175,43,82
1037,44,37,41,195,195,47,86
985,42,35,44,384,213,53,128
733,30,35,48,615,193,51,643
391,38,33,50,694,188,50,1062
156,44,30,49,855,187,52,1401
82,44,28,48,903,168,48,1470
58,44,27,44,858,147,41,1471
25,41,24,37,733,146,41,1338
22,36,23,36,664,137,42,1045
68,31,29,40,436,145,42,509
122,35,32,41,330,145,42,253
126,37,35,45,316,149,42,227
392,38,39,53,291,160,45,158
972,34,39,50,282,149,43,96
1023,32,36,48,277,130,42,74
1186,31,37,49,247,129,44,81
1301,31,38,52,199,148,45,95
1302,32,36,45,153,130,42,95
975,33,34,46,151,130,45,92
925,34,33,46,142,131,44,91
698,31,29,44,145,134,41,75
451,31,26,38,125,102,39,52
260,29,26,38,109,116,43,46
148,29,25,37,105,124,42,45
100,28,27,39,104,125,46,45
92,28,29,40,115,146,47,41
76,33,30,40,134,155,50,39
47,33,34,49,140,154,47,31
50,34,36,54,144,152,47,28
51,37,40,55,149,183,44,26
45,36,37,53,135,168,47,30
39,35,39,58,128,158,48,36
38,35,38,52,123,155,46,37
32,33,37,50,121,159,47,37
32,32,32,48,113,120,46,38
33,32,33,48,116,124,40,42
31,29,30,44,109,123,38,48
32,31,28,38,108,124,38,51
33,30,26,33,100,108,37,51
32,28,26,31,103,108,42,51
28,32,28,34,110,131,54,47
28,34,27,33,122,147,54,37
24,32,27,39,131,158,55,32
25,36,33,48,161,167,56,36
28,36,35,57,255,181,53,54
30,33,35,59,362,165,46,83
32,33,39,72,370,187,46,98
35,35,38,72,440,190,43,97
37,34,35,68,472,192,43,96
35,38,34,62,460,176,39,92
34,39,35,60,493,178,32,82
31,36,31,46,567,137,28,861
29,35,33,41,532,122,27,1149
35,35,30,40,507,123,29,1460
36,33,29,40,513,126,29,1517
38,32,28,39,442,120,34,1521
109,34,27,36,339,121,38,1261
119,33,26,37,318,130,38,1013
164,31,29,36,304,129,37,476
166,29,31,39,244,141,42,243
167,31,32,38,175,149,41,216
135,31,32,39,178,165,41,182
128,32,37,41,178,173,48,134
58,32,36,43,194,179,54,97
54,36,33,43,240,184,68,79
48,36,32,46,326,184,68,79
57,37,30,45,326,180,69,68
73,39,23,41,333,174,65,76
102,41,25,37,384,167,61,66
185,36,23,32,505,152,41,62
203,38,27,31,555,149,41,63
427,37,32,31,584,140,38,86
513,34,32,32,578,127,38,133
677,33,33,33,541,116,36,137
914,51,37,38,433,124,36,142
1288,49,37,41,334,120,34,149
1355,48,34,38,277,122,33,133
1341,49,35,42,287,124,34,79
1295,49,36,46,285,129,40,80
1141,32,34,47,249,133,39,398
695,34,34,45,196,137,43,567
421,36,32,44,192,153,47,785
570,37,35,43,180,162,49,1060
943,52,36,52,227,232,52,1325
1261,51,37,59,296,281,79,1413
1278,53,35,62,342,289,80,1636
1305,61,43,69,341,299,78,1627
1239,65,45,70,339,302,82,1467
948,54,46,68,513,258,79,1250
418,57,47,69,680,235,56,1087
347,58,48,70,1116,241,54,586
200,49,45,66,1223,224,55,292
133,47,41,65,1227,215,49,280
98,46,37,60,1166,227,47,184
76,41,33,49,1077,191,43,149
86,38,32,41,618,177,40,128
170,38,29,47,402,202,42,122
201,32,25,43,405,199,43,131
198,31,29,45,380,178,48,129
200,40,32,45,344,173,48,129
196,43,34,44,298,174,54,124
143,46,35,37,245,133,52,94
104,52,41,47,215,129,50,44
114,55,40,47,208,133,46,47
114,51,40,53,180,146,48,43
107,50,40,56,158,141,48,41
82,45,38,55,292,157,47,39
62,38,33,49,446,181,51,38
40,30,30,54,503,180,53,37
82,29,29,50,599,180,57,44
145,26,26,45,652,180,50,346
224,28,26,48,644,165,56,618
225,28,24,46,626,147,54,861
227,27,22,35,636,138,50,874
215,26,19,31,558,134,45,877
179,29,20,32,495,123,44,813
51,30,27,38,453,126,36,743
49,30,30,41,378,127,33,568
36,31,33,42,299,131,34,569
32,31,34,45,296,122,33,566
559,32,36,49,308,119,34,558
709,31,31,45,286,119,34,398
880,31,30,43,240,114,34,172
908,30,28,47,213,150,38,86
910,31,29,47,209,150,40,83
726,28,26,44,267,149,41,77
587,29,26,45,299,156,39,73
275,31,27,45,310,156,39,67
165,31,28,43,358,131,36,48
164,32,26,42,378,127,37,42
124,34,26,39,337,130,35,35
103,32,25,32,315,111,33,35
91,29,23,32,313,101,32,36
88,30,23,32,267,99,31,39
65,31,24,31,213,103,27,47
63,29,26,35,198,96,26,43
44,39,28,39,195,93,33,57
41,41,29,39,181,112,34,72
34,42,31,41,175,96,34,73
35,44,33,42,182,101,36,68
34,45,35,44,191,111,41,245
35,38,35,44,179,119,38,314
36,39,35,43,164,106,38,421
35,37,34,45,148,115,37,425
34,34,34,49,143,112,35,428
34,34,33,46,129,113,37,359
28,32,30,45,130,112,37,300
25,30,29,46,124,110,35,96
25,31,30,42,114,99,35,72
28,31,29,35,111,100,37,57
27,30,25,34,111,95,34,39
27,30,26,32,98,87,33,30
27,28,27,32,117,88,34,27
28,28,24,29,127,88,33,27
28,28,26,33,143,113,42,26
29,29,29,35,138,105,40,28
251,31,30,34,145,117,42,26
310,31,28,31,132,115,43,31
584,32,29,32,116,119,43,35
992,33,26,30,87,93,35,33
1144,31,23,27,83,99,33,30
1343,36,27,33,77,88,32,33
1539,35,29,36,79,102,35,33
1468,32,29,42,91,122,36,31
1249,31,31,43,98,124,34,32
1230,34,33,50,102,124,36,33
1009,28,32,49,100,125,37,32
654,29,31,48,96,120,34,28
639,30,30,44,96,96,33,26
601,31,28,42,91,91,31,24
290,28,28,36,91,100,35,26
160,27,25,32,98,117,32,25
137,27,28,40,110,134,36,27
84,28,30,39,98,141,37,26
76,27,30,39,98,145,38,27
70,29,29,38,103,144,35,26
48,30,32,52,118,140,36,26
39,33,38,57,118,118,32,25
33,34,35,58,127,109,34,27
28,33,36,64,137,112,35,27
25,32,36,66,137,118,38,30
30,35,35,58,125,120,36,28
29,32,32,61,141,129,36,27
93,32,36,68,151,134,35,27
120,32,36,63,144,146,35,27
124,32,36,61,135,135,31,24
132,30,34,60,135,127,31,25
209,32,32,48,116,122,33,25
272,31,30,38,99,127,32,25
924,38,30,42,116,106,31,26
1073,42,31,42,127,112,33,31
1191,41,30,43,126,107,34,32
1201,38,26,40,128,134,35,33
1385,41,25,36,131,124,33,33
1272,35,26,38,117,129,33,47
1177,31,27,47,114,123,31,47
1135,36,33,59,120,132,35,62
1173,38,36,65,111,106,32,62
957,35,39,68,127,112,36,65
670,36,39,65,124,108,39,57
627,36,40,65,128,123,48,56
526,31,36,56,120,117,46,39
390,34,37,54,129,116,49,39
314,32,35,56,107,133,48,36
288,34,36,61,114,130,48,34
269,40,39,55,131,186,42,28
134,44,42,59,142,194,41,31
63,43,40,54,137,202,39,41
61,47,48,68,149,194,37,50
54,51,48,70,155,209,41,55
52,50,47,76,149,175,40,58
43,56,49,76,156,166,44,79
214,60,52,91,180,167,49,92
242,61,52,84,189,182,61,104
260,64,53,83,188,181,65,107
268,69,57,84,187,170,66,107
283,63,54,84,179,181,66,92
214,63,52,72,159,169,62,74
212,63,48,68,142,150,53,46
191,58,48,80,179,139,50,32
182,55,40,74,180,132,48,27
159,62,46,73,177,113,44,28
127,61,45,73,173,115,43,30
65,61,45,78,179,109,42,29
64,60,48,67,135,119,39,28
53,59,50,70,118,117,41,29
53,56,46,71,114,118,41,30
54,53,49,77,153,130,40,39
55,54,54,72,180,136,44,42
60,60,54,70,197,144,50,45
141,56,52,74,206,165,52,45
800,55,55,78,216,172,54,45
1178,56,53,79,192,169,59,46
1334,52,49,80,164,168,57,51
1392,44,43,82,162,154,52,50
1427,45,43,79,206,141,46,51
1277,42,41,70,219,131,49,54
992,45,44,70,250,134,46,53
1037,52,51,69,251,133,41,48
1164,56,50,66,240,130,41,49
1250,59,52,70,201,113,41,47
1438,60,55,79,177,132,35,41
1490,62,57,73,138,122,36,33
1350,73,71,92,181,124,45,34
1254,73,76,98,204,130,46,29
1448,72,75,94,199,131,50,32
1421,73,74,90,217,123,48,41
1408,72,72,93,213,145,48,63
1399,55,53,80,191,174,48,79
1366,56,49,76,186,176,49,88
1030,65,50,79,219,191,49,88
655,65,48,79,199,191,55,85
466,64,43,72,224,185,57,73
397,65,38,62,218,159,51,54
246,61,35,60,215,151,46,37
150,46,36,56,194,156,44,36
95,46,34,51,228,153,39,33
66,50,36,54,208,160,39,28
46,49,37,57,205,157,40,27
39,50,37,52,189,152,42,26
41,53,39,53,191,125,43,27
43,49,44,60,175,140,45,25
50,46,44,61,187,126,41,25
53,50,43,60,183,122,44,24
52,50,43,63,191,136,43,26
48,48,43,65,184,148,41,26
44,47,40,60,168,139,40,28
35,43,40,63,177,130,36,27
30,37,41,65,234,131,37,29
29,34,39,64,234,130,38,28
30,34,33,59,257,126,40,29
35,34,34,60,294,126,39,28
52,37,35,57,282,129,39,28
55,38,38,53,233,138,37,33
55,38,38,53,236,132,35,38
62,44,40,55,244,133,34,46
59,43,39,56,213,127,33,46
48,42,42,61,204,124,34,46
51,44,40,61,227,120,31,45
59,46,41,61,237,128,32,44
86,39,40,61,210,118,34,38
278,39,38,60,187,119,36,38
347,39,33,54,189,151,36,40
442,36,32,52,170,151,38,38
450,36,33,51,165,152,41,34
667,36,32,45,209,167,41,33
627,37,33,43,224,163,39,31
603,42,35,37,234,136,41,29
547,45,34,36,244,149,40,27
544,45,30,34,232,164,37,30
232,47,32,38,190,163,43,30
193,47,34,42,199,168,43,33
155,41,32,43,198,165,41,33
112,36,31,44,183,158,42,33
90,41,34,48,176,124,41,33
72,46,41,55,163,121,37,31
74,50,42,53,133,114,36,30
77,50,41,55,128,122,35,30
79,52,45,63,152,118,34,30
92,48,44,64,155,146,38,30
97,40,36,56,160,140,33,27
90,35,39,60,174,141,41,30
85,33,40,65,202,137,43,31
82,31,38,60,198,136,44,35
68,34,36,56,204,115,41,50
42,33,35,54,219,109,42,70
43,34,34,49,218,119,36,78
44,36,36,43,184,134,36,114
41,36,35,40,188,124,40,115
33,33,34,38,207,118,37,109
33,36,36,39,189,125,36,99
36,39,38,44,189,119,37,92
38,40,40,44,203,108,35,41
70,41,40,55,197,112,31,36
87,41,41,58,181,110,34,36
122,40,43,59,179,110,37,34
131,34,36,54,174,119,39,35
136,35,35,58,166,112,38,35
122,35,35,47,180,119,45,33
112,35,35,45,198,135,45,36
75,34,32,44,207,140,43,36
69,35,33,44,212,143,47,42
159,36,27,34,203,148,49,61
171,33,28,42,181,152,45,87
209,33,28,46,194,146,45,88
221,33,28,45,239,135,47,93
221,39,32,47,263,124,40,92
167,38,36,60,266,126,37,82
155,40,38,62,264,123,36,66
107,42,42,69,254,123,35,64
89,49,47,76,234,144,35,57
201,49,44,78,211,148,34,51
221,53,43,70,207,153,34,49
257,57,41,67,211,163,39,35
419,56,42,64,207,158,40,34
436,54,41,65,212,141,41,36
447,51,41,62,200,136,40,36
726,47,42,65,255,142,44,37
723,42,42,66,320,126,42,32
658,39,37,59,331,136,42,29
658,32,33,56,319,146,41,26
858,39,36,62,319,155,44,25
870,41,33,58,277,144,41,25
1036,41,33,58,204,141,37,24
1075,44,36,60,182,184,39,36
1078,53,40,57,188,174,41,40
914,48,37,51,200,179,50,44
692,45,38,54,198,186,54,44
404,44,37,48,192,209,59,45
248,44,35,51,207,168,59,41
205,35,34,52,207,179,58,39
155,39,38,68,202,172,51,36
592,42,36,67,239,167,47,38
846,43,35,67,318,158,44,37
860,44,35,64,351,159,40,34
865,55,38,65,359,165,39,32
871,62,40,58,356,162,38,34
663,62,41,58,343,173,38,31
312,70,44,59,275,158,41,34
284,69,45,59,203,156,39,34
273,65,46,59,163,145,39,34
267,60,41,49,193,188,43,35
309,61,41,50,211,171,47,34
248,49,37,49,224,205,47,35
267,46,38,55,224,211,76,35
264,42,29,47,219,210,111,35
247,50,30,46,210,186,112,33
174,51,34,47,180,201,113,34
161,51,34,46,208,177,116,30
93,54,36,39,293,182,104,29
332,52,36,48,332,186,105,28
505,42,37,50,321,178,120,27
560,39,33,47,316,160,143,25
563,40,38,57,293,164,147,25
569,63,53,75,219,163,149,27
470,68,55,75,175,163,125,30
275,75,59,78,184,153,109,28
126,76,60,86,198,173,73,28
114,77,61,85,192,156,59,29
77,64,51,71,178,141,45,28
54,62,48,65,157,134,45,28
71,59,45,63,151,137,41,30
64,57,49,56,156,128,39,29
173,55,46,50,171,134,43,33
206,50,41,49,202,141,58,37
210,50,40,56,235,162,61,50
208,43,38,54,231,172,62,71
209,45,30,51,230,158,63,73
135,45,33,58,272,154,65,72
76,45,33,56,385,165,54,70
77,43,37,49,428,147,66,63
85,45,35,49,433,133,68,39
89,44,39,50,427,147,65,32
101,43,37,46,399,182,64,33
102,66,58,71,286,170,65,36
97,73,64,88,226,169,52,33
96,72,67,97,226,168,48,33
92,74,68,98,230,177,50,36
80,77,68,96,226,146,47,35
78,58,54,80,229,169,46,33
74,56,47,63,200,171,44,32
55,57,47,52,205,178,49,37
92,68,46,48,282,167,47,36
705,80,48,49,536,176,49,40
891,94,48,56,574,159,45,41
1000,90,44,54,681,162,45,43
1020,88,39,53,828,155,39,40
1206,83,37,51,810,148,38,39
1237,71,29,46,672,155,40,34
1135,52,24,37,651,148,44,31
1117,53,27,39,548,151,48,28
1173,56,29,34,276,147,49,29
1008,48,30,36,263,146,50,28
687,45,33,50,286,129,47,34
652,47,34,54,272,136,43,36
512,45,34,55,266,128,46,40
315,41,37,61,278,145,46,40
199,43,39,63,280,146,51,41
130,39,37,52,252,134,53,41
100,39,38,51,254,136,56,38
107,39,38,50,286,128,51,35
110,44,34,44,295,116,51,36
118,44,33,41,298,109,49,35
223,44,32,40,325,125,43,30
287,43,30,39,367,123,37,28
296,42,33,41,371,129,32,25
328,36,32,38,402,140,29,21
339,43,31,47,425,150,29,22
428,52,40,50,398,153,44,22
448,51,41,52,353,147,45,24
450,55,42,58,345,181,46,28
432,56,48,63,308,174,46,31
421,51,53,65,294,181,53,30
269,43,50,66,294,184,63,32
152,45,51,65,276,181,63,33
121,44,48,57,229,152,63,29
79,43,44,54,243,151,65,29
77,43,38,46,228,147,59,29
101,45,33,44,232,131,56,31
108,47,33,54,232,149,75,30
103,45,33,54,251,141,83,30
107,44,31,52,312,141,82,27
105,43,33,55,416,125,86,27
85,38,33,57,464,136,92,22
81,41,35,47,466,123,79,20
85,51,38,56,461,119,71,23
80,53,39,61,422,122,73,24
95,54,37,57,329,122,67,24
100,61,39,56,254,130,42,25
107,57,43,60,279,142,42,32
164,55,41,57,294,141,39,31
184,55,40,52,277,145,37,32
222,58,42,53,269,147,36,33
218,56,38,53,288,134,38,33
212,56,32,49,274,144,36,29
170,47,28,45,257,185,40,30
147,47,29,51,248,182,40,32
139,45,26,56,258,187,42,36
146,46,35,56,260,186,47,38
192,49,34,54,274,163,51,39
250,55,39,55,310,117,56,37
320,59,39,54,309,137,57,34
444,70,45,52,297,131,57,31
451,71,41,50,291,131,52,27
452,75,44,53,269,135,44,25
436,73,41,49,263,136,38,26
389,70,42,47,277,133,43,34
206,56,40,47,273,140,45,33
186,52,39,44,258,135,48,35
135,43,36,42,273,128,51,38
87,37,36,46,257,146,49,37
81,36,34,44,234,179,46,31
69,41,29,41,226,208,45,31
69,40,30,41,221,207,44,32
63,42,31,45,261,210,41,30
46,42,31,43,338,206,42,29
56,49,33,44,365,163,36,28
53,47,37,54,370,138,38,27
61,46,41,65,369,143,36,26
63,48,45,64,326,141,37,22
67,52,45,71,227,128,35,22
608,50,47,74,202,125,41,25
727,46,44,68,200,127,39,28
775,47,42,61,207,133,70,28
1044,44,40,60,202,135,71,34
1092,36,39,50,180,137,72,34
917,32,35,41,169,138,68,32
842,31,35,43,221,129,68,31
806,32,32,40,220,123,35,30
422,31,28,39,243,118,34,26
323,31,27,39,286,125,33,27
428,31,27,40,293,124,34,27
564,30,26,39,276,121,30,25
588,25,24,38,294,113,30,25
906,34,29,42,284,143,27,25
983,34,30,43,235,133,33,33
958,38,31,45,227,135,34,49
874,39,32,48,216,125,34,49
857,42,34,53,200,148,33,49
501,35,31,51,197,140,40,52
278,36,30,52,204,145,40,52
181,33,31,52,185,138,43,48
164,36,30,47,176,148,42,48
121,37,29,45,193,139,44,97
82,39,29,43,195,125,42,139
66,38,28,42,190,118,38,146
70,37,24,39,197,129,35,145
68,35,24,39,201,124,35,145
495,33,26,40,225,119,33,119
817,37,27,40,256,121,27,64
834,34,30,39,265,127,30,36
842,37,33,46,255,114,32,32
845,40,34,48,242,114,34,32
691,39,31,42,199,117,35,28
245,34,33,44,165,113,34,28
182,36,34,45,163,111,33,30
139,32,32,39,188,120,41,33
119,31,32,38,195,111,43,34
97,32,32,37,193,104,44,35
66,33,32,38,190,112,48,36
56,32,30,38,175,114,47,34
89,35,30,38,166,115,40,31
95,33,29,45,171,117,36,29
337,36,31,51,160,123,35,28
350,42,30,49,173,112,33,25
480,46,31,50,220,112,32,24
506,48,31,53,232,131,30,22
527,47,30,47,231,153,36,21
421,48,32,46,243,154,37,21
413,43,31,47,249,189,41,23
301,39,33,49,240,195,41,23
250,48,36,44,222,186,44,28
214,75,45,48,217,170,45,29
213,76,48,52,220,171,45,30
213,83,49,53,230,168,40,30
136,90,51,49,246,163,46,32
124,89,53,67,263,180,46,32
99,70,47,70,290,187,48,33
74,75,53,68,339,183,48,33
55,69,53,68,358,163,50,32
43,66,57,78,387,171,48,30
36,60,54,69,442,170,53,26
339,60,55,68,428,171,48,24
623,53,47,66,400,191,52,28
945,64,55,84,396,187,52,36
1077,59,52,79,378,178,58,36
1178,60,52,77,310,170,66,37
1465,61,55,77,308,163,68,64
1407,57,56,78,284,156,64,84
1251,43,47,62,238,159,64,83
1186,46,41,58,180,155,60,84
1127,47,41,60,214,152,46,83
645,47,38,56,267,150,45,74
565,46,37,60,318,139,46,63
493,46,37,56,328,148,47,61
374,43,38,56,380,152,44,66
230,40,38,52,485,146,45,69
194,38,36,49,511,164,45,61
182,49,33,41,501,151,43,45
182,79,38,44,499,138,39,42
199,84,41,48,457,156,40,33
230,86,38,52,325,150,60,28
223,88,45,56,242,147,73,35
212,86,49,58,206,173,74,49
171,59,44,59,215,177,83,79
132,53,44,55,235,166,81,95
67,51,48,54,231,183,65,97
67,45,42,50,219,174,49,94
66,44,36,45,212,153,48,91
75,45,39,44,214,150,36,68
80,46,38,42,207,164,37,49
76,43,35,39,185,148,42,62
459,45,34,40,262,173,50,62
783,53,39,51,376,177,53,60
995,56,46,56,423,170,53,62
1045,62,49,64,425,178,59,56
1052,65,53,73,429,194,57,37
949,65,54,75,382,171,53,34
706,56,53,70,269,166,53,30
348,57,53,70,165,172,51,21
134,55,61,75,169,162,44,23
55,50,60,71,175,143,44,27
29,49,62,77,217,143,43,28
18,53,64,80,227,156,45,31
71,50,57,78,231,161,81,33
137,46,44,68,214,146,86,32
699,47,41,63,254,154,155,35
1012,47,38,57,293,169,211,33
1093,44,33,51,298,161,211,33
1270,41,32,49,390,161,204,33
1349,47,35,48,487,169,205,36
1202,48,34,47,497,174,158,33
974,52,36,50,461,157,67,34
886,51,37,51,452,153,62,32
604,51,37,49,366,146,50,30
380,46,35,48,231,146,43,34
223,48,41,55,178,131,45,61
109,43,39,50,190,126,51,71
65,44,38,50,203,132,52,72
46,45,41,50,216,158,55,72
37,45,44,60,207,159,53,70
35,44,39,53,186,158,63,48
36,44,36,54,202,178,62,32
41,40,36,52,253,180,60,34
51,40,33,54,283,161,57,34
50,38,34,51,307,181,60,33
52,37,34,50,386,178,50,119
50,37,35,44,424,157,45,185
47,38,35,45,409,143,43,200
39,43,41,56,405,136,44,200
37,41,35,51,390,87,30,200
33,45,39,60,306,89,29,164
33,46,40,68,243,115,25,82
27,46,42,71,225,128,25,29
44,41,39,60,198,134,25,23
55,41,42,61,197,133,27,24
55,35,39,57,202,133,31,25
54,35,39,53,190,125,45,33
57,38,37,49,174,121,49,37
44,36,33,47,174,123,51,38
26,37,30,45,196,125,53,38
28,36,27,41,209,139,55,37
28,34,25,35,199,127,51,31
28,33,26,33,234,128,52,28
33,32,26,36,317,117,52,32
35,30,25,36,360,112,51,31
36,35,28,37,369,86,47,29
36,37,32,57,379,101,45,29
40,46,38,70,359,101,41,28
35,49,42,76,282,109,42,23
40,52,44,77,211,139,45,23
47,51,44,77,178,145,47,31
48,52,45,67,157,138,47,39
43,41,42,56,151,132,48,39
46,41,40,52,169,144,46,41
42,39,41,56,181,120,43,41
47,37,39,55,204,116,40,41
74,34,36,53,225,138,39,40
128,37,34,52,221,143,37,44
172,32,31,47,211,143,37,45
173,31,28,40,208,146,39,45
179,31,30,39,213,153,42,41
175,34,31,42,237,137,44,34
150,39,33,40,281,141,44,28
103,40,33,40,281,125,44,24
101,42,36,47,268,122,43,23
85,43,35,48,251,145,40,24
164,42,32,44,228,155,38,25
157,35,30,45,196,156,41,35
178,38,34,52,195,164,45,38
210,37,33,47,208,171,50,49
313,41,33,47,197,144,71,58
287,41,35,47,170,142,82,59
369,43,36,52,140,136,81,53
380,40,33,45,123,133,78,53
397,40,34,47,95,132,76,44
410,36,34,48,93,137,66,32
426,34,32,46,100,131,51,40
373,34,31,42,120,166,53,42
352,34,30,42,130,167,54,40
314,32,27,39,132,168,51,39
187,31,28,36,142,170,43,38
123,32,27,37,148,172,41,28
65,31,27,34,130,135,48,28
56,31,27,39,116,124,60,28
55,32,26,42,119,130,72,28
49,32,28,41,114,136,97,28
43,31,29,43,106,129,102,29
37,35,30,46,130,144,102,32
29,33,31,42,139,154,95,33
28,36,37,48,145,148,122,33
30,37,35,51,141,140,112,37
32,35,35,50,135,139,108,46
34,32,34,46,116,124,104,46
42,34,35,50,116,108,104,51
42,31,31,47,144,105,63,53
39,29,32,47,151,118,41,51
40,30,32,47,160,113,41,43
35,30,32,49,168,111,35,37
27,29,31,53,175,131,47,30
31,34,29,50,139,124,41,27
33,34,28,49,136,109,42,26
32,35,28,47,140,106,52,28
32,37,26,45,146,119,65,31
30,35,25,35,134,114,60,30
25,30,26,33,140,115,76,27
21,30,29,38,145,112,106,28
20,29,28,39,134,115,109,29
24,28,28,38,119,105,103,28
26,31,28,37,113,86,101,28
77,32,28,39,102,88,91,28
329,33,27,31,88,96,54,28
465,33,30,32,88,98,44,26
468,33,29,30,77,97,43,23
471,31,30,31,81,106,40,22
469,29,29,26,80,110,38,24
344,26,27,26,88,124,39,24
332,27,29,29,105,130,34,24
374,26,28,30,113,129,35,27
675,30,27,32,112,124,35,27
1086,32,26,33,112,127,35,25
1126,33,28,35,118,134,36,26
1098,33,26,35,121,173,37,24
1091,32,28,36,119,179,39,25
943,31,27,33,115,178,38,25
407,31,28,34,118,176,39,25
279,31,28,32,102,160,36,24
201,31,27,30,86,108,32,25
158,32,26,28,84,100,29,24
91,30,26,31,84,109,32,23
69,28,27,35,81,99,29,24
64,28,24,37,78,92,28,24
59,27,23,36,65,98,29,24
58,28,23,35,64,104,33,23
59,31,26,40,61,99,31,22
45,33,26,36,64,120,33,25
38,34,28,39,67,124,38,27
37,34,29,42,87,123,37,27
115,33,32,43,107,114,38,29
372,31,32,38,134,138,40,31
516,29,33,38,134,129,39,29
607,28,32,33,141,133,37,28
668,28,31,30,133,143,42,28
923,32,31,33,120,148,40,28
1158,31,27,30,107,131,36,26
1129,31,26,30,122,126,40,26
1101,31,25,29,126,133,40,25
1090,31,26,31,137,124,35,24
971,30,24,26,135,119,34,23
667,30,25,27,124,111,34,23
620,31,26,29,117,104,35,23
592,32,27,32,108,93,38,28
548,30,25,29,95,127,42,29
359,26,25,30,97,131,42,29
219,26,26,32,100,134,44,30
257,28,27,31,107,150,43,30
350,27,26,29,115,148,43,26
583,29,29,32,118,139,39,25
596,31,29,33,123,162,41,25
584,32,29,32,119,167,39,25
827,29,29,31,112,163,36,24
803,29,28,29,103,162,30,25
713,28,27,27,109,155,30,25
760,26,26,26,118,129,30,23
752,24,26,26,120,126,28,23
516,28,27,30,113,116,29,23
870,29,27,35,111,121,30,25
1023,30,29,37,95,125,32,28
1037,29,29,37,70,127,30,30
1035,29,28,37,86,117,31,30
1011,26,25,35,139,125,32,29
719,27,25,32,163,125,32,29
384,27,24,35,184,122,30,26
188,42,24,37,223,148,31,22
272,44,24,37,218,157,37,30
285,44,25,37,201,152,37,33
299,45,25,36,182,154,37,30
303,43,22,32,173,163,42,30
675,34,26,34,142,173,41,30
895,39,27,35,140,168,36,30
1051,39,27,36,125,166,36,28
1082,37,29,41,140,164,37,41
1085,38,31,46,131,148,32,55
977,40,31,47,124,110,30,63
1154,37,30,48,125,117,36,64
1043,39,33,55,148,146,41,66
1054,42,37,61,151,153,39,58
1079,44,39,60,167,179,40,46
1059,41,40,60,155,181,43,36
628,39,42,63,159,182,39,30
677,37,41,59,141,162,34,33
728,35,37,54,133,148,38,34
765,32,33,51,165,173,48,36
811,33,29,47,181,186,48,84
785,37,26,44,234,181,52,111
688,41,24,40,245,186,52,113
547,44,24,36,244,189,51,113
432,44,26,39,219,154,46,113
252,41,31,48,211,144,44,83
325,40,32,45,167,161,40,40
723,40,35,57,166,175,47,26
1146,39,32,56,178,172,46,26
1228,40,31,54,190,156,39,32
1425,46,31,51,190,148,41,42
1524,46,36,61,172,134,43,43
1384,42,35,51,158,115,36,49
1061,41,42,58,162,153,35,56
966,40,43,59,151,161,37,54
613,33,42,60,168,168,36,46
310,31,36,51,170,164,35,49
399,33,39,59,172,165,35,52
527,31,34,52,152,136,40,53
803,31,34,49,142,142,41,106
1023,44,34,45,119,140,44,132
1264,49,38,46,140,176,44,180
1466,50,34,39,198,171,44,180
1494,50,34,43,233,167,40,179
1390,51,34,43,230,155,39,155
1283,43,34,46,239,158,34,133
1140,34,30,46,248,128,38,48
1154,49,32,48,213,131,41,39
1393,51,33,46,173,128,39,52
1406,49,32,48,168,127,37,53
1387,49,33,49,157,116,40,56
1328,54,39,50,129,117,38,64
1053,38,38,48,108,116,36,68
926,43,38,47,122,115,43,78
1113,45,38,45,163,118,44,118
1387,49,37,42,173,153,50,125
1491,52,31,39,176,160,50,124
1600,56,32,40,184,176,52,132
1664,52,30,40,177,187,50,138
1542,51,32,41,140,183,49,127
1315,50,29,38,162,149,43,130
1225,42,30,38,217,144,43,132
1109,38,26,33,236,132,38,137
1119,39,35,37,236,129,36,121
1298,43,35,36,239,130,39,97
1514,43,36,43,230,140,37,84
1689,42,36,44,173,130,37,77
1769,46,38,43,151,124,39,49
1540,46,32,45,160,112,39,42
1398,42,31,49,162,117,39,36
1152,40,33,46,149,111,43,36
804,39,34,47,150,111,41,51
571,34,36,50,162,118,41,77
612,32,38,52,168,123,41,97
525,29,39,53,182,134,43,109
429,30,37,51,176,138,39,132
367,31,36,49,168,142,41,160
332,32,34,46,144,142,44,152
168,31,30,38,140,149,45,141
88,33,27,30,170,173,54,136
112,33,28,36,200,167,56,117
115,42,35,41,230,173,55,63
177,46,36,50,233,185,53,51
178,48,37,56,236,185,53,50
208,47,38,61,202,153,40,54
196,48,37,58,168,152,37,54
196,40,31,55,134,142,36,59
149,38,31,50,137,128,37,60
194,37,35,46,137,126,38,61
180,36,34,40,168,123,41,47
382,35,35,40,204,135,43,38
605,36,36,42,212,135,48,32
969,32,35,39,214,128,45,32
1138,29,31,34,205,121,42,32
1334,30,30,35,178,122,41,32
1377,26,28,34,132,112,41,32
1497,28,26,31,108,118,39,29
1452,36,29,33,122,112,40,31
1419,40,30,38,144,114,37,32
1373,38,29,37,153,123,35,29
1563,42,29,37,158,122,35,28
1406,43,34,43,165,128,34,26
1298,40,32,48,147,127,36,21
1247,38,31,45,122,123,44,17
1114,39,34,44,117,109,55,18
674,36,36,54,127,110,57,20
598,36,38,49,123,107,64,26
507,33,39,46,120,104,66,28
346,33,39,48,121,116,62,28
270,36,41,52,146,128,53,29
266,35,39,43,148,128,51,29
257,32,33,47,158,129,40,25
118,32,30,42,181,142,35,22
72,31,30,42,189,131,38,24
67,28,27,37,164,124,38,110
713,35,33,44,155,127,39,160
958,42,34,51,154,141,43,164
1141,42,35,54,131,133,45,169
1174,44,36,58,122,139,51,170
1335,48,36,59,125,141,50,131
1371,45,33,54,126,134,50,62
1235,40,32,44,125,103,43,49
1152,41,32,45,126,103,40,35
1187,41,32,43,116,102,33,36
1036,37,33,43,114,106,36,37
709,37,37,44,122,115,41,40
670,34,36,43,109,116,43,40
546,33,35,39,103,124,52,37
700,34,34,36,121,141,60,38
866,34,32,35,120,140,65,37
854,33,27,30,130,145,62,35
855,36,29,38,146,145,62,35
837,36,29,42,155,142,54,32
591,43,34,46,152,129,44,26
149,49,42,58,154,127,49,23
112,51,43,59,137,117,56,22
81,49,43,55,121,123,57,22
51,48,42,55,110,114,66,22
37,41,38,51,106,103,67,34
31,33,33,38,103,100,69,55
27,29,33,41,118,107,75,90
27,32,36,38,148,102,84,92
107,32,35,39,182,106,84,93
115,32,35,39,183,113,85,89
124,33,30,38,196,115,78,79
125,35,27,39,198,132,71,35
125,30,24,39,176,133,59,33
88,31,24,36,137,141,53,42
108,30,24,34,135,138,52,42
627,25,24,33,165,139,45,42
958,33,25,33,169,131,46,63
1097,36,24,34,166,136,44,74
1213,34,25,36,177,145,40,69
1231,36,26,40,180,148,36,69
1066,40,27,41,149,148,36,69
784,33,26,39,137,140,27,56
754,33,25,39,142,136,30,43
1028,32,27,40,133,115,34,214
1041,32,30,36,120,135,40,281
1136,32,32,38,102,130,42,289
1233,34,35,38,97,131,42,290
1172,34,36,37,113,129,39,291
814,37,34,35,143,130,39,203
1173,53,33,37,147,116,41,95
1273,54,30,37,149,132,47,87
1341,58,27,35,223,127,57,94
1337,60,32,45,221,131,59,100
1323,60,35,50,219,134,58,96
980,48,36,53,231,139,56,101
985,50,47,74,246,156,51,99
1053,45,50,79,185,164,47,90
1062,46,53,79,187,192,56,103
1198,55,60,82,178,207,61,109
1278,57,63,87,183,202,63,101
1114,63,64,86,192,182,65,88
847,68,71,98,212,184,61,83
790,71,73,98,213,161,56,50
556,67,68,95,209,154,52,201
330,66,67,88,193,157,47,271
194,61,61,73,165,155,43,284
110,55,56,61,144,181,44,306
68,49,47,56,134,183,39,339
46,44,45,56,136,178,43,278
39,42,41,57,185,181,44,210
32,42,42,61,235,200,52,198
32,45,39,61,238,168,50,171
34,46,44,64,238,157,52,90
29,51,44,64,249,143,43,79
30,51,52,100,239,142,46,77
38,48,49,98,201,135,38,64
40,51,50,97,197,131,38,35
41,55,48,97,205,134,38,30
43,55,55,105,220,153,47,32
43,55,51,74,196,144,46,35
37,53,52,75,184,115,48,67
35,46,49,70,179,135,50,95
42,38,51,68,178,158,55,97
40,33,43,59,152,138,48,104
57,34,41,56,148,150,45,111
76,32,40,57,164,173,51,96
83,35,45,64,169,173,50,67
79,34,39,63,217,158,52,64
83,34,40,63,234,159,51,53
93,49,47,67,244,164,54,28
81,52,49,68,237,155,47,31
81,53,47,72,233,146,46,35
83,56,48,69,177,148,42,47
80,56,50,70,139,158,42,165
53,43,45,68,121,154,42,252
50,42,45,70,144,145,43,315
41,41,46,65,143,135,49,322
37,38,48,66,143,123,45,326
36,37,43,63,157,133,46,288
36,35,42,61,157,130,46,216
34,35,40,54,140,134,44,103
35,35,34,45,141,137,36,77
110,34,31,46,147,142,38,44
297,33,31,47,132,117,41,29
646,37,32,45,133,104,39,42
821,33,27,45,129,104,38,44
931,32,30,46,125,117,39,43
1104,35,33,45,139,115,40,44
1248,36,29,42,175,122,35,42
1113,35,32,45,167,126,33,30
1005,37,32,44,161,123,34,32
915,39,31,45,161,104,32,37
701,39,30,44,147,100,29,41
278,38,31,46,105,117,28,39
258,38,30,47,110,117,29,39
210,38,33,56,125,110,31,38
158,37,35,53,131,127,33,36
128,34,35,54,136,146,37,31
145,34,35,56,142,132,37,31
154,32,36,55,136,145,40,29
141,34,32,49,135,176,39,29
138,32,30,47,128,176,38,29
108,34,30,48,125,165,37,28
75,33,29,42,135,168,40,28
60,37,29,42,155,159,38,30
52,37,30,45,156,128,38,26
61,36,30,47,152,110,39,23
60,34,29,47,148,123,37,22
111,33,29,45,130,126,35,22
146,31,29,44,116,123,36,20
165,28,31,40,123,135,36,23
162,29,30,38,147,152,39,25
162,32,30,36,151,158,39,26
133,31,31,40,149,153,41,29
88,33,29,39,139,151,39,31
44,32,29,39,138,166,40,30
48,34,30,40,117,162,36,30
50,32,28,41,111,150,42,32
47,34,27,38,131,147,39,33
45,32,25,38,167,153,38,33
45,37,26,40,175,131,35,39
39,37,25,40,181,134,37,38
29,38,29,40,178,129,30,36
31,37,29,43,165,122,31,32
30,39,33,50,140,118,35,31
31,36,31,47,119,112,37,22
29,35,31,45,114,104,38,25
27,31,32,47,139,108,39,29
25,32,33,47,155,142,44,60
25,31,31,37,159,163,42,143
27,35,31,37,157,174,43,165
27,36,30,39,159,181,43,173
27,37,30,40,136,183,43,174
26,38,29,41,120,165,39,168
27,37,33,46,113,144,39,108
23,33,33,45,147,154,40,71
22,35,33,44,157,148,36,53
23,38,34,46,166,139,35,52
24,38,36,47,163,135,33,44
24,37,34,45,160,142,32,49
27,39,34,45,125,120,30,54
28,37,34,45,104,115,33,85
28,34,31,46,91,113,33,92
31,34,30,41,93,113,33,105
31,36,31,39,111,106,35,105
30,33,31,41,130,98,38,102
29,32,30,44,147,96,36,76
30,31,29,37,156,123,37,68
29,28,26,37,163,120,37,47
29,26,27,41,156,115,35,39
27,28,26,39,147,128,36,39
28,29,29,35,128,124,39,32
32,34,29,38,152,93,38,39
29,38,31,45,149,98,39,45
30,38,30,41,144,95,40,57
32,38,32,46,147,75,36,69
33,40,30,47,149,78,36,72
31,36,32,45,116,87,37,71
29,35,32,42,120,104,36,67
31,36,27,40,141,121,36,57
29,34,29,45,160,122,35,49
28,35,30,46,172,127,34,56
27,34,27,45,185,128,33,53
28,31,26,41,197,114,34,53
27,31,28,42,187,103,32,52
25,31,27,31,165,112,29,44
24,29,27,39,161,124,28,27
28,31,28,38,161,118,29,21
29,35,29,40,140,117,30,23
29,37,31,42,137,120,29,24
34,43,31,43,157,131,32,31
35,48,33,36,158,129,36,42
32,47,33,36,163,143,39,52
31,44,35,36,160,144,40,53
33,44,34,35,163,141,42,61
32,38,33,37,155,147,43,59
31,33,32,37,145,143,44,53
30,32,31,37,120,151,43,51
139,33,29,38,116,148,42,74
480,38,30,38,139,150,40,88
533,42,32,39,164,154,41,90
540,41,34,43,164,152,37,90
546,47,36,44,168,134,37,90
534,55,40,50,173,141,37,80
275,52,39,50,148,140,37,64
150,53,39,60,124,129,41,63
124,52,39,57,132,125,40,64
94,49,38,56,133,127,39,69
65,39,36,53,142,123,39,61
58,36,36,53,150,132,39,120
55,30,34,40,153,134,36,211
58,33,32,39,177,143,39,231
60,36,31,39,173,139,41,232
64,37,29,36,171,144,47,246
56,40,27,34,187,141,49,227
55,41,26,32,186,128,48,146
60,41,24,35,180,125,46,112
58,43,26,36,200,140,46,104
55,43,25,33,196,134,40,63
55,42,32,38,177,129,37,45
55,51,37,43,181,134,37,62
44,52,38,44,168,136,38,70
38,49,40,44,151,131,36,81
37,48,42,46,151,130,36,79
35,47,38,45,161,154,41,84
39,36,37,48,150,160,42,70
41,34,38,49,153,172,44,66
502,34,40,50,210,196,46,112
794,49,45,54,331,212,45,189
1207,51,45,56,343,202,43,198
1320,52,44,54,394,190,46,221
1327,60,44,50,479,174,46,240
1233,68,49,65,486,147,45,284
1078,61,47,68,421,168,50,247
608,67,48,68,444,195,51,270
318,71,47,64,417,203,49,382
297,70,49,65,311,205,51,734
283,67,49,63,303,204,51,723
242,67,46,59,326,167,48,763
163,65,52,64,300,149,50,762
102,67,53,70,288,151,46,708
76,64,52,73,285,150,39,323
58,59,47,64,240,150,38,313
57,59,48,63,193,170,39,191
42,50,43,63,151,143,36,165
45,42,41,56,129,134,37,159
40,39,42,57,140,133,38,146
72,40,41,55,156,143,39,103
86,37,38,59,150,124,36,99
91,41,37,50,150,126,35,62
89,41,36,49,148,120,37,47
90,39,33,46,142,112,37,46
67,39,33,47,137,111,35,39
48,40,34,43,148,131,36,61
43,35,32,42,158,133,37,58
38,35,32,42,164,147,34,69
46,37,31,44,155,152,35,89
60,36,30,44,151,156,41,388
74,38,32,47,138,154,41,914
76,37,32,46,118,158,39,1208
82,38,32,48,99,147,39,1219
81,36,35,44,115,156,39,1227
76,38,37,46,109,141,33,1177
63,38,37,43,106,137,33,844
60,37,37,43,109,129,34,312
52,37,37,41,108,136,38,266
45,37,35,41,100,121,41,222
36,37,31,34,117,117,41,165
38,32,29,35,123,114,42,114
43,32,29,35,125,120,42,69
43,31,28,37,128,121,40,52
279,30,27,36,125,126,36,38
607,33,27,35,110,137,37,36
778,35,26,36,111,126,37,39
928,34,25,37,111,124,34,39
935,34,25,41,117,129,34,39
898,34,25,40,115,128,32,38
974,30,28,43,112,124,30,30
1146,34,29,42,108,129,34,42
1378,34,29,42,102,136,36,55
1523,34,27,37,91,124,34,63
1528,33,27,41,96,130,34,69
1406,33,28,40,142,125,38,69
1193,30,28,43,163,118,38,60
768,30,28,40,167,110,38,50
421,34,29,39,193,104,39,50
395,35,29,34,205,93,39,44
285,33,27,32,174,100,36,43
188,31,27,31,160,99,30,41
197,31,25,33,157,102,28,41
143,31,26,32,123,99,29,29
140,32,26,33,93,96,28,29
137,34,27,36,100,87,28,29
125,34,26,37,114,94,31,29
60,35,27,38,129,100,34,32
45,34,28,39,136,113,35,29
34,35,28,40,139,111,37,29
32,33,27,36,134,128,38,42
33,33,30,37,131,132,36,66
53,32,30,38,142,133,34,149
56,29,28,39,171,146,35,184
69,30,28,41,172,150,33,185
71,29,27,40,214,133,31,206
69,30,25,34,218,124,31,206
54,33,24,30,200,110,30,183
53,33,24,27,187,77,29,156
36,32,23,21,194,76,29,157
33,32,21,20,145,78,28,127
33,31,20,31,127,84,26,116
35,30,22,38,135,91,26,64
35,29,22,40,126,96,29,42
40,29,24,42,116,97,29,29
38,31,27,44,134,114,35,25
37,29,28,38,142,128,39,25
35,30,29,33,144,146,45,157
33,30,33,37,140,148,45,421
27,28,31,36,136,150,48,642
30,25,29,36,120,151,45,683
30,27,28,35,106,148,44,693
42,26,27,34,92,127,35,680
58,26,24,28,79,123,34,558
128,26,24,25,98,123,33,281
173,32,25,26,134,109,32,156
175,32,25,26,138,93,29,125
174,34,27,33,138,90,30,100
171,37,27,34,147,88,29,93
129,38,28,37,140,89,28,87
99,33,29,37,109,85,28,85
317,33,30,38,109,93,31,52
388,30,28,33,116,109,35,45
596,28,29,40,124,124,37,35
830,45,30,40,122,132,37,31
965,45,30,40,120,143,37,35
1263,49,27,39,124,147,37,96
1301,50,27,39,113,139,34,121
1237,51,24,32,88,128,34,123
1158,37,22,31,85,125,30,123
1069,39,21,35,88,115,29,122
651,33,23,36,87,108,29,81
537,35,24,36,89,110,27,34
500,33,24,35,92,123,27,27
328,35,26,35,105,117,28,25
237,36,27,29,108,123,30,21
144,34,29,33,111,130,29,105
88,33,29,32,114,137,34,243
55,32,27,34,113,127,38,356
36,31,26,32,102,137,41,363
31,29,25,32,91,128,41,365
31,30,23,28,74,119,40,350
30,29,24,28,68,111,38,274
28,32,25,26,71,116,35,88
27,30,25,26,84,108,31,47
23,29,25,26,90,109,29,39
391,29,25,25,99,124,32,35
895,32,25,29,103,129,30,52
1034,30,27,34,104,124,29,79
1043,30,27,34,95,138,29,90
1055,31,27,35,89,135,33,92
988,32,27,37,87,120,32,92
574,29,27,34,84,112,30,82
291,30,24,27,80,117,29,55
260,28,27,32,80,94,31,35
230,29,27,31,80,96,29,25
244,27,24,30,78,104,30,25
280,26,24,29,76,103,33,24
238,27,26,32,75,95,35,25
267,29,21,28,67,87,33,28
264,29,23,29,67,93,32,36
352,29,27,38,60,81,29,45
699,32,27,38,61,78,30,48
913,30,24,36,58,80,29,48
1070,31,27,35,67,93,28,45
1349,37,27,36,65,90,28,40
1591,37,25,27,66,96,29,28
1574,33,23,27,74,103,29,33
1470,33,24,30,77,105,34,42
1379,35,22,32,71,96,36,51
1119,28,21,30,67,91,38,59
705,29,22,30,62,87,39,63
406,30,25,29,55,78,38,57
371,31,29,32,70,83,35,50
266,27,30,35,69,80,32,43
197,26,32,38,73,79,28,41
498,24,31,42,74,81,25,43
702,25,30,43,88,111,30,44
713,22,27,40,77,107,29,44
716,24,29,42,90,119,29,43
718,24,28,39,89,120,29,35
521,24,29,35,96,119,30,24
160,24,29,36,88,107,26,23
100,28,28,36,97,111,27,23
77,27,25,31,86,97,28,22
69,26,27,36,91,99,29,20
79,25,28,36,84,95,30,24
220,26,29,34,77,78,33,23
256,22,31,37,68,93,40,31
258,23,31,35,75,99,43,33
263,24,26,30,72,106,43,37
260,27,27,29,71,108,42,42
159,28,27,33,74,107,45,46
88,30,26,31,67,83,40,42
83,30,27,30,64,85,37,43
43,30,29,34,69,82,38,41
36,28,26,34,69,81,39,33
33,27,25,35,70,85,32,442
31,27,28,33,71,92,31,790
33,26,31,39,77,101,33,941
91,36,33,39,70,139,32,1195
98,39,35,38,71,144,33,1372
98,38,34,35,66,144,31,1576
134,37,32,42,72,139,32,1473
157,37,29,37,66,126,32,1405
567,26,28,36,69,94,34,1231
730,27,27,36,70,98,34,1062
909,27,28,38,71,102,37,603
914,27,27,29,65,105,36,509
919,28,26,29,61,107,36,440
742,29,28,36,67,116,35,333
586,27,30,38,83,118,33,213
224,29,30,35,86,119,33,123
182,29,30,36,92,136,33,66
142,30,30,37,93,137,31,51
93,29,27,33,89,120,31,25
66,29,24,34,88,116,29,22
70,28,23,37,95,124,29,21
122,27,23,37,90,113,31,24
147,25,24,38,94,118,32,22
183,28,21,34,92,116,32,24
185,27,23,32,84,111,33,26
182,28,24,30,72,99,33,28
153,30,23,32,73,91,31,27
124,30,22,30,66,85,30,26
62,29,25,35,65,95,29,26
55,28,25,36,59,97,28,26
49,27,26,35,58,97,29,151
38,27,26,37,67,120,30,352
33,30,27,36,82,136,31,412
27,30,26,33,89,135,31,414
25,34,24,39,96,137,31,415
30,34,29,43,102,139,30,388
32,32,30,40,96,125,36,225
28,29,29,42,89,107,37,80
28,27,30,41,82,101,37,525
37,25,30,34,73,95,37,769
34,24,24,27,69,90,38,781
32,25,25,32,69,82,34,782
32,27,25,29,70,77,33,784
33,30,26,30,74,85,38,590
22,28,26,30,74,93,39,179
20,29,27,33,70,112,42,110
21,28,25,29,85,116,41,98
21,27,25,31,80,119,40,76
27,25,24,34,81,144,37,43
28,28,25,34,82,142,35,32
27,26,25,32,80,128,32,30
29,29,24,32,66,137,31,31
516,29,25,32,68,139,31,36
939,33,25,28,70,116,29,43
1210,30,24,27,68,117,33,44
1218,31,24,26,70,117,32,44
1227,31,24,30,91,111,32,49
1119,31,24,29,91,111,33,48
800,29,24,29,91,104,35,58
242,31,25,30,96,107,32,66
204,29,25,32,104,123,32,67
140,28,26,29,86,115,33,66
87,27,26,31,86,114,35,89
54,27,25,30,78,110,33,120
40,26,24,29,81,121,34,180
36,29,24,28,75,112,34,191
37,27,24,25,71,112,32,193
36,28,25,22,71,116,29,187
36,29,25,27,69,115,29,165
39,29,26,29,75,109,31,111
44,29,28,28,73,104,36,136
44,32,28,29,74,111,38,169
167,33,27,29,73,108,39,333
200,33,27,25,71,110,40,417
271,33,28,22,59,104,39,441
360,33,25,23,59,108,35,460
401,32,25,25,57,98,37,562
411,28,26,25,59,92,41,525
415,28,24,28,65,103,40,520
421,29,23,28,61,93,39,875
350,28,24,29,58,100,39,952
359,30,24,28,63,102,37,938
313,32,23,27,61,107,34,984
297,31,23,26,54,102,34,1103
223,29,24,25,60,107,37,841
218,28,24,27,62,101,36,754
106,26,23,28,55,101,34,707
94,26,23,29,75,115,35,613
60,26,24,31,76,108,38,277
55,28,24,31,82,115,38,258
55,28,23,28,81,116,39,197
57,29,24,28,86,118,41,145
52,30,23,25,70,110,39,137
52,29,22,23,74,122,36,114
63,27,23,23,74,119,35,129
90,26,22,25,74,118,35,147
85,26,21,24,75,129,33,183
89,24,23,24,85,155,33,199
132,24,23,24,84,149,32,197
152,26,22,26,78,150,33,194
152,28,22,24,75,146,30,192
154,28,21,26,72,137,29,172
187,28,20,26,63,97,29,195
211,28,19,26,74,110,30,843
257,31,20,24,84,110,31,903
270,29,20,24,90,112,35,944
269,30,20,22,88,112,41,953
249,30,23,22,84,112,40,956
208,31,25,24,83,100,39,568
127,28,27,25,78,111,41,510
95,29,26,27,77,121,43,432
119,27,27,28,84,128,38,408
249,31,26,29,92,133,39,382
314,31,27,33,86,131,47,255
312,32,26,36,92,127,49,139
309,32,29,37,88,121,47,127
301,32,29,36,84,108,49,150
204,32,28,35,85,104,52,138
69,31,25,35,92,131,46,135
65,29,24,31,82,124,40,139
54,28,21,29,84,138,38,121
46,27,22,32,89,144,35,91
37,24,23,32,94,148,31,103
31,23,23,27,86,129,30,105
25,23,24,28,85,129,31,113
22,24,23,29,85,113,32,122
20,25,22,28,85,118,33,113
20,26,21,28,75,116,32,106
21,27,21,28,74,108,32,102
22,27,22,26,69,104,36,91
24,28,23,25,66,101,34,78
24,28,25,26,60,91,35,72
23,28,23,25,59,109,36,65
25,30,25,23,65,119,36,109
27,30,25,24,69,122,35,380
27,28,26,25,80,129,36,423
26,27,24,23,79,136,36,541
31,29,25,25,80,118,38,961
29,26,23,28,88,133,37,1273
31,29,23,29,90,131,36,1425
31,28,21,28,86,129,36,1433
31,28,23,29,89,126,34,1402
28,28,24,29,88,126,32,1212
30,27,25,28,75,102,35,955
30,27,26,28,72,104,33,610
29,30,26,27,71,103,33,564
30,30,26,27,65,91,35,542
29,31,26,28,63,102,38,402
29,34,24,27,66,100,36,116
23,33,22,28,74,115,37,105
64,31,24,27,68,112,35,92
73,30,23,28,78,119,37,83
73,29,24,26,86,114,36,72
74,24,24,27,86,117,36,68
77,23,25,26,79,102,39,62
50,23,24,27,79,108,39,100
41,27,24,25,75,111,36,102
44,27,24,26,68,103,31,117
42,28,22,25,66,101,31,207
40,27,24,23,67,104,28,290
39,28,26,23,72,98,28,355
134,27,27,22,66,87,28,360
208,29,26,21,62,87,30,695
218,29,27,22,69,95,28,942
220,34,26,25,78,116,31,925
222,34,24,26,76,118,33,914
182,34,23,27,95,140,33,922
137,33,22,26,97,147,32,708
134,33,22,28,94,147,34,264
142,32,23,27,88,129,30,243
151,33,24,27,89,136,28,175
150,33,23,29,67,119,28,102
118,32,25,31,67,121,27,53
106,31,25,29,64,116,26,36
109,28,25,30,69,145,35,41
119,25,25,32,66,135,37,42
133,26,26,29,65,132,39,44
128,27,25,29,62,122,41,44
129,28,27,32,73,118,41,46
114,27,27,29,68,88,35,39
91,28,26,27,68,91,34,40
68,26,27,27,69,94,31,49
56,25,26,26,71,93,29,76
47,27,22,24,73,109,29,74
47,29,22,25,69,104,29,74
36,28,21,25,72,118,30,91
33,29,20,24,73,119,33,104
440,28,23,26,72,117,33,90
703,30,26,25,61,109,34,90
829,30,30,28,70,106,34,90
1006,36,31,27,64,95,32,216
1084,39,31,31,72,110,29,351
1222,41,29,29,80,120,29,365
1297,39,29,29,77,118,30,601
1468,47,29,29,69,125,29,644
1597,42,28,29,74,122,29,620
1574,39,27,27,66,109,30,580
1468,40,27,28,54,99,31,572
1363,40,28,28,61,103,28,316
1131,29,25,29,67,100,29,217
761,31,24,27,61,103,29,188
703,33,25,26,64,104,33,58
555,31,25,27,77,120,33,98
339,30,26,27,81,114,33,105
165,29,23,25,78,105,33,104
106,27,25,26,79,104,38,103
220,26,27,27,78,99,35,106
251,27,28,25,66,80,37,68
272,29,26,25,55,90,38,58
281,28,27,23,51,101,36,60
414,27,25,24,51,95,32,245
398,26,21,22,46,93,31,251
391,26,20,22,75,117,35,253
386,25,20,24,84,125,37,253
387,24,19,27,86,116,39,254
256,27,20,28,86,124,40,90
191,29,23,31,87,124,42,74
160,28,23,32,74,118,38,70
135,29,23,30,67,115,34,75
109,30,25,29,64,117,34,79
60,30,24,28,61,113,32,81
40,30,23,26,61,120,32,78
37,30,26,25,50,108,31,73
31,29,25,25,46,97,33,65
28,28,23,23,48,97,32,55
25,26,24,23,59,102,33,135
24,26,25,26,69,105,30,174
27,26,22,24,71,102,32,183
205,26,23,24,71,103,31,195
447,26,25,24,71,110,37,203
497,28,23,25,68,111,39,164
634,27,22,25,62,115,47,149
804,30,22,27,72,125,46,148
806,29,22,29,74,123,50,133
702,30,23,30,76,131,46,122
674,30,24,31,84,139,45,123
557,34,23,30,82,130,37,102
274,35,26,32,81,145,42,99
187,40,34,45,103,157,39,124
194,41,36,50,110,164,41,129
214,48,40,53,106,156,42,124
188,52,44,54,123,193,44,114
166,55,48,64,129,188,45,101
434,54,47,66,137,176,46,75
574,60,53,70,139,172,44,71
823,61,58,77,148,184,51,68
884,59,58,78,139,167,55,71
885,63,57,71,132,824,51,76
791,63,60,70,122,1058,57,72
772,64,58,66,134,1241,60,110
704,64,52,55,127,1273,55,127
725,64,53,58,135,1273,54,148
725,65,64,83,169,983,69,145
725,64,64,81,177,924,70,142
647,62,60,80,167,1132,68,109
398,60,61,82,164,1188,65,89
166,59,57,81,159,1309,69,38
163,55,49,59,124,1572,57,37
141,56,45,53,101,1537,47,43
110,50,44,54,100,1238,46,45
94,49,43,53,95,1148,48,92
73,48,43,50,86,1003,39,104
76,44,35,52,90,504,52,105
136,51,42,59,89,226,52,102
169,54,41,59,84,198,55,101
207,49,41,59,92,197,56,64
215,54,41,58,89,199,57,41
215,54,42,51,91,184,44,43
183,44,38,41,92,139,46,49
153,41,39,46,92,101,52,49
93,46,41,50,95,128,52,49
71,44,41,49,97,135,50,53
57,43,39,49,93,137,50,51
42,44,39,51,91,134,51,48
32,45,41,51,100,154,44,48
31,41,36,46,100,155,42,56
29,38,34,46,103,159,44,79
30,37,36,51,101,162,43,94
31,39,31,47,95,170,43,96
31,36,27,39,88,153,40,97
31,41,29,39,82,135,46,92
31,41,30,38,81,132,46,69
46,41,32,42,89,135,46,45
52,44,34,46,93,126,42,35
56,50,34,44,87,119,42,32
140,49,34,45,99,119,37,30
688,56,37,48,101,113,41,37
1150,58,35,39,96,129,41,36
1264,55,34,38,98,144,41,43
1276,50,33,42,101,155,39,48
1291,50,31,47,120,160,46,51
1116,43,30,46,122,167,43,45
638,38,30,46,121,144,42,47
369,38,31,46,123,125,42,41
324,41,35,43,127,128,45,67
224,40,37,38,108,151,37,96
136,37,34,39,100,147,35,100
85,39,35,39,97,149,35,125
52,39,34,38,95,156,34,415
43,34,30,41,91,156,33,650
35,36,28,42,84,143,34,840
35,37,29,39,98,158,33,1240
36,36,26,40,110,167,32,1273
36,34,29,42,117,172,34,1227
34,40,30,45,119,161,33,1137
30,37,38,56,115,143,32,1025
25,36,39,57,106,123,33,470
36,36,41,57,98,127,37,824
47,41,41,58,89,147,37,1146
52,40,40,52,79,153,39,1428
52,39,32,41,93,170,39,1447
52,39,31,40,92,168,45,1455
45,40,34,44,99,156,44,1270
34,35,31,38,96,123,45,982
25,29,30,38,104,133,44,460
30,33,30,35,88,124,44,334
29,33,31,35,85,121,38,295
28,30,28,37,101,140,34,208
30,32,30,38,102,141,34,129
29,33,31,39,95,132,33,60
25,32,30,39,97,123,32,102
28,31,29,40,99,126,31,122
27,37,28,31,74,116,30,123
27,36,26,35,88,147,30,135
31,38,28,41,90,149,29,143
31,36,28,43,89,157,29,112
32,38,28,43,89,158,33,83
32,33,28,44,89,146,32,80
34,33,29,43,74,111,33,57
30,32,28,34,81,98,34,50
30,33,29,37,84,81,39,71
30,32,28,39,80,75,38,75
32,37,29,38,73,88,39,76
30,37,28,38,79,104,40,76
33,37,28,38,71,119,41,67
34,37,30,37,79,137,36,38
33,37,30,34,85,140,37,33
31,31,31,37,83,134,38,32
31,33,32,37,82,131,37,31
29,33,34,39,99,141,36,32
31,32,30,38,103,130,37,38
355,33,29,41,104,131,36,40
515,34,28,41,109,130,38,39
523,33,28,38,104,126,37,40
526,32,26,38,94,110,37,89
528,32,27,37,82,107,35,96
393,31,28,32,77,103,35,100
137,35,31,30,77,113,33,119
144,33,31,33,80,106,32,125
160,32,31,31,69,99,30,106
173,31,31,32,70,104,31,104
182,32,28,32,65,98,29,104
188,30,27,35,67,100,30,413
196,30,23,31,68,110,29,539
188,31,23,31,68,110,27,558
176,34,23,34,63,100,29,560
285,32,25,34,66,104,30,562
316,34,25,33,70,91,28,392
574,35,26,38,74,100,31,190
602,35,26,38,74,94,35,114
602,34,27,34,76,95,35,99
567,34,27,36,82,107,34,83
549,29,25,35,80,119,35,71
260,28,27,30,80,115,34,74
172,28,27,29,81,118,29,82
171,27,25,31,79,118,28,86
126,27,27,30,79,112,30,107
105,30,29,31,82,113,32,149
53,30,26,33,77,121,34,233
52,31,26,33,80,121,35,268
62,30,26,32,78,122,36,269
75,30,25,29,75,118,37,264
80,28,25,29,65,106,34,253
82,29,25,32,69,97,33,177
93,27,25,32,67,95,33,114
78,27,26,34,69,103,34,106
69,26,24,34,70,124,33,136
73,29,23,34,71,125,35,144
70,28,25,30,69,127,35,144
53,30,24,29,65,133,36,145
86,29,25,29,64,127,39,145
90,30,25,30,74,115,38,148
87,31,29,33,73,113,39,128
86,30,28,35,75,103,39,117
89,32,29,37,82,92,37,119
56,34,30,39,108,99,35,121
47,33,30,45,125,106,37,97
36,31,27,46,135,115,34,121
37,31,26,45,132,114,33,164
34,30,27,43,130,114,33,176
35,30,25,43,117,120,34,178
34,32,27,40,90,113,34,170
35,32,26,34,72,116,36,148
248,33,28,35,79,120,38,96
320,32,27,36,79,118,39,89
320,30,27,32,73,114,38,93
323,29,25,29,74,106,38,92
326,28,27,37,78,102,38,90
216,30,27,37,78,91,37,91
74,29,26,37,88,94,37,72
74,32,28,38,90,81,38,108
63,31,27,38,89,76,37,146
48,34,26,35,97,67,37,149
40,33,26,34,99,72,34,151
129,35,26,36,90,80,34,163
254,33,25,37,85,87,32,137
313,33,27,35,82,95,31,102
316,31,26,32,76,99,31,113
320,32,27,33,80,115,32,147
297,33,29,32,78,118,33,145
207,32,27,29,81,134,33,144
103,34,25,32,85,136,32,135
98,31,25,36,90,129,30,125
97,30,24,37,84,127,29,80
91,27,23,36,97,138,31,57
76,28,26,38,105,125,34,51
68,27,26,36,113,119,35,58
58,28,27,34,111,121,40,58
36,30,26,31,111,109,41,170
35,30,26,31,112,114,41,210
33,33,25,31,112,115,42,213
31,34,25,33,112,128,42,251
31,35,24,34,106,137,42,336
32,32,25,36,106,142,42,409
33,33,25,36,95,125,39,393
33,30,27,36,99,131,37,393
32,31,27,36,88,134,38,370
31,31,26,35,89,127,34,296
36,30,26,33,91,122,34,83
42,32,28,34,91,126,36,66
50,32,25,33,82,126,36,56
82,31,26,33,79,113,34,45
86,32,26,32,82,118,35,43
83,32,26,32,81,125,35,49
85,30,23,29,78,127,33,52
78,28,24,30,69,112,32,112
50,29,23,28,71,108,33,200
46,29,22,26,69,111,32,278
45,28,23,28,68,111,33,278
39,27,23,28,67,98,31,279
42,29,23,29,71,106,32,263
35,26,24,31,84,125,33,205
32,28,24,33,90,134,40,66
33,29,26,33,86,126,39,59
29,29,25,35,99,124,39,101
24,28,25,33,98,120,39,123
26,28,23,31,86,112,41,128
27,26,26,28,81,96,36,143
27,23,24,28,83,114,37,143
27,23,25,26,74,140,38,121
26,23,24,28,77,139,37,184
23,24,25,29,76,133,35,265
23,27,24,29,81,144,32,482
23,29,25,28,81,131,30,529
22,30,25,28,88,125,27,532
24,29,26,28,91,134,28,513
27,33,25,29,94,133,26,479
33,29,23,30,87,122,29,261
52,29,23,32,90,125,29,179
63,27,22,32,78,112,31,168
182,30,23,32,93,129,29,154
276,25,24,32,92,131,31,140
289,32,25,32,98,127,27,124
298,35,24,31,96,138,31,99
303,36,26,33,98,136,32,97
264,35,26,33,88,110,33,96
169,34,25,33,95,112,34,100
154,30,24,32,90,112,34,102
138,27,26,30,89,106,35,93
122,26,28,25,89,114,36,111
88,28,28,25,87,113,37,116
74,29,28,25,83,105,36,118
56,26,30,26,78,102,36,114
46,27,30,27,78,95,32,93
324,29,27,28,86,95,30,73
537,28,27,28,79,103,28,61
583,27,26,27,73,102,27,47
597,30,28,28,82,113,27,50
602,30,26,27,80,110,26,56
510,30,26,28,74,102,26,56
282,29,25,28,80,102,30,55
425,30,25,28,90,121,34,61
504,26,21,29,90,121,36,65
509,27,23,32,99,139,37,64
590,24,22,33,123,139,37,61
812,32,24,31,118,140,33,68
974,32,24,34,110,131,31,65
939,32,25,32,105,129,29,57
965,31,24,32,109,119,32,50
945,33,25,30,78,114,34,48
777,25,24,32,82,109,35,34
408,30,26,30,83,116,35,27
384,31,24,31,83,110,35,26
292,33,26,29,74,95,32,71
206,50,48,40,124,251,36,618
157,78,54,45,140,349,35,953
179,83,62,45,154,383,36,1056
180,83,62,45,153,388,38,1073
176,82,61,45,152,392,39,1388
150,71,46,36,114,321,35,1421
126,40,39,29,92,210,39,1240
56,26,28,30,66,133,38,1210
34,29,30,32,81,117,37,1275
34,30,31,33,85,101,36,975
33,30,29,34,88,88,36,709
30,31,30,32,89,89,34,688
211,29,26,29,88,87,33,589
279,26,25,27,76,96,34,436
368,27,24,27,68,99,32,327
370,27,25,26,67,105,33,299
374,27,23,28,65,110,31,291
468,25,23,28,76,110,33,332
777,42,25,27,78,132,35,274
1175,44,25,27,86,145,36,240
1306,43,26,29,87,147,37,233
1329,43,28,27,87,146,43,204
1296,43,29,27,89,147,42,118
1126,27,26,28,88,130,41,96
671,26,25,27,79,114,40,84
385,31,26,24,74,100,41,110
316,33,27,23,79,108,36,113
308,34,26,22,67,108,35,115
542,35,27,22,76,111,34,107
576,33,30,26,84,124,35,131
559,30,27,30,86,129,32,112
549,29,26,33,83,132,33,437
520,30,29,36,84,143,36,942
258,32,30,40,86,153,37,1055
111,33,29,39,78,151,38,1055
93,32,30,38,75,148,37,1073
69,31,30,37,71,145,38,997
83,31,29,37,74,133,37,544
86,28,27,34,82,125,37,266
84,29,30,38,86,120,36,316
85,41,34,37,89,121,40,406
85,47,36,46,119,144,37,461
56,45,36,49,125,152,36,483
36,50,37,46,115,144,34,492
34,50,35,47,130,144,35,460
33,44,36,54,133,156,32,324
32,39,37,51,127,145,33,195
33,42,38,48,126,147,35,130
33,40,40,51,133,144,37,91
33,45,45,53,121,154,41,79
30,41,47,61,147,150,44,96
29,43,51,64,133,139,43,102
29,45,52,70,125,128,41,95
40,48,53,70,117,132,42,104
42,44,50,68,127,139,41,98
67,46,44,60,98,141,36,102
209,46,40,56,103,143,37,97
294,42,37,49,108,148,40,97
298,38,36,48,115,145,40,88
310,34,34,50,107,130,40,81
751,38,35,46,102,132,40,49
1075,38,32,44,102,127,41,49
1079,36,30,44,104,136,39,54
1084,36,32,47,103,138,37,51
1091,40,33,41,97,134,33,49
849,38,31,42,107,133,31,47
316,37,33,42,108,134,30,38
241,41,36,41,101,120,31,34
232,40,32,35,91,111,29,33
184,37,33,37,98,116,29,32
182,35,32,33,103,119,32,31
154,34,31,39,99,118,32,32
116,31,28,37,104,116,32,43
91,30,30,39,108,116,33,69
93,31,33,43,106,112,33,118
117,31,36,46,93,111,32,125
295,30,34,41,94,100,30,126
398,33,36,43,89,104,29,124
553,36,36,41,87,118,29,118
576,33,32,35,83,126,28,74
577,35,30,38,81,107,30,106
515,36,33,41,80,102,31,148
600,34,31,41,79,98,31,148
554,34,31,43,71,87,31,157
528,36,32,42,67,89,31,162
525,36,31,34,65,96,30,152
523,33,28,33,68,104,29,117
329,34,27,37,72,106,27,115
322,33,29,39,93,136,29,100
687,35,28,42,101,135,32,88
970,32,28,44,105,148,31,78
995,34,30,43,102,143,31,75
1003,36,32,40,108,143,31,77
961,35,32,38,96,115,31,81
746,33,32,36,91,129,28,80
295,35,33,38,88,116,28,64
183,36,31,37,97,128,32,71
130,37,31,36,109,138,43,67
81,37,30,34,107,142,43,57
51,40,29,35,108,128,47,56
36,39,28,33,102,125,48,54
32,37,27,34,114,127,46,32
26,33,28,38,107,114,36,55
46,34,28,40,112,130,37,84
65,36,31,39,108,122,35,112
65,37,30,38,110,121,33,117
65,39,31,35,88,116,34,138
67,39,31,35,81,122,37,131
54,37,29,34,80,99,38,118
28,31,31,32,77,102,43,102
28,31,31,34,84,103,44,98
28,29,31,34,81,96,44,66
23,29,30,33,72,84,40,65
26,29,30,34,71,107,39,59
24,34,28,37,86,109,32,40
23,34,29,39,81,110,31,31
22,35,30,40,90,113,32,30
28,34,30,39,94,128,34,28
28,36,29,36,91,107,34,23
33,32,28,33,82,114,34,23
39,31,30,29,83,121,33,24
40,31,30,27,73,111,32,24
37,32,31,36,75,111,34,25
42,33,31,35,76,114,32,27
49,31,30,36,82,113,31,27
46,32,26,36,80,109,31,29
48,34,31,36,84,117,31,29
51,35,31,26,78,103,29,34
47,34,31,30,77,99,30,47
36,35,31,31,71,87,32,51
34,36,33,32,78,87,32,52
37,34,29,36,80,86,30,53
33,33,28,36,85,91,34,63
32,33,28,37,84,98,35,72
33,33,28,35,85,109,35,78
33,32,28,33,74,113,35,80
43,31,25,28,70,109,37,80
56,32,25,28,70,118,33,70
68,31,25,29,74,131,32,52
73,31,25,29,75,128,33,49
74,32,26,30,78,121,34,53
129,31,25,31,81,120,31,53
187,30,25,30,82,124,33,53
275,31,25,27,80,106,31,53
277,32,25,31,73,101,30,41
281,32,25,34,86,108,30,28
260,34,26,33,86,116,34,36
219,35,27,33,79,102,37,36
81,36,28,35,77,109,38,35
201,36,29,31,77,109,37,35
276,36,28,29,71,100,37,36
274,35,28,30,67,94,35,38
277,33,28,30,67,95,32,41
277,31,27,26,68,91,30,41
204,33,25,26,72,95,30,45
69,34,27,29,62,100,30,46
67,33,30,30,67,100,28,38
65,37,28,29,67,95,28,36
61,38,28,31,74,93,29,35
55,34,29,32,71,114,30,32
55,33,27,35,76,124,33,32
63,37,26,34,75,133,34,47
53,32,26,37,88,137,34,59
56,34,26,43,101,153,39,61
56,40,27,43,109,148,47,61
52,40,31,43,111,156,49,89
40,39,32,44,113,148,50,138
38,41,36,44,103,150,52,209
35,42,41,43,100,145,51,211
32,39,40,50,98,137,46,232
31,48,42,53,99,120,46,231
30,51,46,57,109,132,49,207
49,53,45,59,116,137,51,132
63,53,45,62,126,148,52,129
76,55,47,62,129,160,54,84
88,52,45,63,131,180,55,59
88,53,46,65,122,175,55,43
87,61,54,71,122,171,54,40
80,69,53,68,114,170,54,41
67,70,55,67,114,170,52,42
50,70,62,70,121,164,52,43
53,71,59,72,162,177,59,47
49,70,56,66,162,179,58,45
48,64,59,75,162,177,57,45
55,71,70,86,183,181,60,47
167,73,67,92,193,176,58,44
252,73,71,95,166,159,48,39
260,75,75,103,169,160,58,49
263,86,77,101,183,160,66,49
263,81,69,98,166,148,70,54
211,79,65,89,145,137,71,56
95,78,65,94,139,154,76,69
62,73,61,89,138,147,70,62
83,69,60,86,134,135,59,59
107,65,57,78,124,125,50,52
111,63,59,81,129,143,53,52
111,63,59,72,137,134,47,32
111,60,55,68,134,134,45,31
89,50,53,69,125,133,52,34
53,49,53,70,129,140,50,35
39,51,54,67,129,116,45,31
35,52,51,73,131,140,47,31
33,55,56,74,134,148,47,32
33,53,53,73,122,145,45,35
35,55,54,79,125,156,46,40
37,68,61,88,126,179,44,43
39,69,61,79,109,157,43,43
38,65,55,80,111,151,43,43
37,68,56,76,114,157,39,40
32,68,57,75,122,140,39,35
30,56,48,65,118,117,38,32
31,54,43,63,118,141,38,35
36,56,44,60,117,151,39,34
38,52,42,63,124,147,37,31
38,49,38,53,115,147,37,29
37,50,41,51,116,152,37,30
36,49,42,58,130,148,37,29
32,46,46,58,125,138,37,37
30,44,45,57,117,132,37,53
30,51,44,56,109,133,37,55
30,47,40,55,102,130,37,54
30,46,43,57,84,104,33,53
29,48,42,56,87,111,31,47
30,51,44,56,76,114,36,29
34,45,42,56,78,114,41,26
35,45,41,55,86,116,41,30
32,41,42,52,99,125,44,36
32,42,38,52,93,127,44,38
31,42,37,49,103,132,41,41
25,40,39,53,101,128,36,41
29,51,51,58,98,112,40,42
30,48,47,53,90,132,41,36
28,49,51,57,99,137,43,35
29,52,57,61,105,149,47,35
31,52,56,63,101,154,49,35
47,46,49,65,99,177,47,32
50,47,50,66,113,180,50,36
65,48,55,72,114,182,51,40
140,48,53,72,106,173,49,36
155,53,55,67,114,170,48,58
186,60,56,66,114,156,49,101
218,60,56,68,101,144,43,146
215,61,51,59,96,145,47,144
178,59,47,56,98,136,48,147
166,55,47,58,101,154,51,141
128,48,44,55,113,170,51,116
57,47,42,53,110,163,50,46
52,45,40,52,113,166,44,46
44,46,42,60,118,175,44,37
39,47,42,63,109,161,42,31
30,46,42,63,94,139,41,29
29,47,42,63,95,137,43,26
31,47,43,65,92,132,42,27
31,44,43,58,93,134,38,27
30,45,41,59,113,150,41,29
28,43,39,60,120,159,41,30
26,43,40,56,122,167,40,30
26,41,36,55,117,157,45,31
26,40,34,53,118,158,48,33
27,40,33,46,102,140,44,30
30,41,35,43,96,139,41,29
33,44,37,42,88,124,40,32
29,47,41,41,88,123,33,32
27,52,49,61,75,105,32,30
27,52,48,60,81,113,35,30
43,53,47,65,88,119,41,29
51,54,48,66,99,127,46,28
60,55,51,67,111,150,51,30
64,52,47,56,109,164,51,30
65,53,52,69,133,175,53,30
299,54,55,70,136,168,50,33
386,53,54,70,135,164,48,33
387,53,51,72,134,158,43,32
387,54,48,69,145,161,40,32
393,56,50,65,137,161,38,34
262,63,51,65,135,157,41,81
93,64,52,68,149,167,40,104
97,65,57,72,142,154,43,108
99,65,59,73,133,163,44,110
107,61,57,66,117,153,45,110
135,54,55,63,116,154,43,82
134,63,56,65,96,149,44,50
129,58,50,59,105,172,44,42
127,61,53,62,106,147,43,36
100,63,51,63,101,137,43,36
53,66,54,64,123,162,43,35
49,59,54,61,125,159,41,39
43,59,55,64,116,133,39,39
36,55,52,58,128,153,40,42
32,56,51,61,145,186,44,43
28,52,49,64,124,167,41,42
27,48,45,64,133,173,40,35
25,50,41,61,144,180,41,36
25,50,38,64,137,169,40,35
27,47,39,66,128,142,32,34
27,52,40,61,128,180,33,32
28,52,42,62,119,172,41,38
29,49,41,60,105,175,40,36
32,63,53,66,105,171,39,32
30,66,56,66,95,179,41,40
34,65,59,77,118,166,42,43
44,70,65,79,114,172,36,41
48,75,71,87,121,169,37,40
50,73,67,87,118,169,40,45
53,81,77,105,142,186,45,41
54,80,74,108,147,184,48,43
49,93,75,112,169,179,53,45
43,91,73,108,172,171,55,48
46,84,71,101,174,177,54,68
45,75,58,85,159,150,53,76
42,72,55,68,136,130,53,77
43,57,56,62,120,156,51,79
43,58,58,64,112,168,49,79
39,69,70,84,128,192,49,68
43,72,75,82,133,192,44,57
49,72,76,83,136,214,42,57
53,75,73,89,148,198,39,65
55,79,73,86,153,194,41,71
57,79,69,70,136,170,42,83
68,78,66,73,130,166,47,94
66,79,67,74,130,129,49,117
66,75,71,70,136,177,48,110
66,72,69,71,130,178,47,113
68,71,68,77,141,183,49,105
60,75,69,76,151,200,47,195
61,86,68,77,159,206,47,317
57,85,63,88,146,195,48,397
60,84,68,95,160,191,51,411
56,78,62,89,154,190,53,411
51,73,61,91,152,176,54,383
49,60,62,97,150,176,50,292
47,59,64,99,167,188,62,176
41,60,58,94,165,207,66,141
46,61,66,95,171,215,69,138
49,60,66,92,177,233,79,114
50,63,72,92,174,239,81,82
55,60,68,72,148,212,73,128
58,59,68,70,148,206,70,162
55,54,59,69,140,190,67,160
53,64,68,68,125,190,53,161
51,63,60,55,128,184,55,163
47,66,61,58,131,184,54,123
43,66,62,55,115,186,47,63
47,67,62,54,110,204,41,60
46,55,53,62,177,209,53,57
43,55,54,69,193,219,53,54
47,55,53,70,202,232,54,53
56,62,57,74,237,235,58,51
53,67,63,84,260,239,60,54
51,68,60,82,228,224,48,51
54,85,75,89,223,257,53,66
53,86,82,93,223,252,57,84
44,88,88,105,204,262,57,96
52,88,89,113,219,278,66,103
53,92,95,113,219,269,68,106
58,77,84,110,242,243,63,98
79,92,95,124,235,264,61,87
445,92,89,116,226,256,62,81
892,91,83,101,215,226,58,80
1038,100,82,105,249,234,55,76
1045,106,85,112,230,224,58,85
1051,108,71,101,240,216,58,182
964,105,70,103,251,215,55,337
578,105,76,112,234,226,61,342
235,95,81,114,205,237,67,343
206,89,81,108,210,239,66,342
165,72,83,111,204,232,66,301
115,68,84,113,200,222,66,98
110,74,86,114,228,215,55,182
104,72,82,109,227,207,51,473
92,73,80,109,220,204,47,904
87,82,80,107,233,220,57,1204
78,85,82,110,221,218,60,1232
73,79,81,111,203,212,59,1231
69,77,77,114,193,208,60,1156
67,76,87,126,199,207,65,955
60,64,79,122,180,179,61,824
65,64,78,114,184,197,59,1005
101,73,79,110,169,296,61,1151
154,101,81,111,199,345,66,1235
156,103,73,116,237,374,65,1388
164,102,77,129,240,381,62,1482
162,109,80,137,250,370,64,1351
144,103,78,144,257,304,63,1265
99,94,86,149,249,248,57,1241
103,94,86,135,214,208,56,1033
93,95,82,125,244,202,58,661
92,90,78,122,246,211,53,646
87,91,79,115,232,220,53,552
76,84,72,103,227,224,54,389
69,90,82,129,261,214,51,233
71,90,86,130,235,244,48,117
73,97,94,137,255,258,52,82
64,92,90,132,278,277,53,81
64,90,91,129,273,281,53,88
66,82,80,105,230,292,56,92
63,80,78,102,225,254,56,91
58,70,70,84,200,231,56,82
70,78,66,84,181,228,62,91
66,83,66,85,171,226,59,370
61,81,65,84,193,239,57,826
62,83,67,104,198,244,56,1154
60,78,63,103,194,276,56,1373
53,69,62,103,184,249,47,1602
53,53,58,99,191,236,47,1595
53,54,63,96,177,221,44,1420
50,51,61,84,187,239,48,1180
75,55,65,90,172,219,47,926
72,62,71,92,169,218,44,423
95,61,66,96,172,225,47,266
94,60,61,93,153,218,52,352
94,60,53,77,125,191,53,408
80,61,56,80,139,183,56,525
85,60,49,76,137,167,59,547
60,65,49,75,126,168,57,548
62,63,47,77,129,154,51,480
91,63,55,73,137,160,46,401
170,60,49,65,118,129,39,186
351,51,50,73,118,142,36,169
390,47,53,67,135,145,40,225
395,48,54,67,164,188,62,243
619,57,60,79,161,197,65,417
691,58,60,75,165,207,67,511
823,57,57,66,176,219,67,494
908,61,58,75,173,225,68,471
1090,63,58,75,152,209,49,467
1020,54,48,68,163,212,46,332
974,56,67,69,169,222,50,155
823,59,71,75,169,219,51,141
720,53,66,61,157,201,47,136
403,53,67,58,155,202,47,102
397,52,69,55,140,186,45,57
483,49,50,54,123,166,36,72
465,45,48,45,107,150,35,187
484,47,56,48,119,162,38,264
754,46,60,60,132,195,37,334
1129,44,54,59,140,208,43,342
1256,43,53,62,143,222,48,349
1287,43,50,63,143,223,45,307
1334,40,42,65,145,216,43,244
1206,41,36,54,134,184,43,135
890,41,38,54,127,166,38,109
702,44,41,65,137,159,37,63
652,46,48,74,139,172,39,49
517,57,55,76,139,170,39,60
502,56,58,85,136,161,44,65
375,58,58,88,157,212,44,66
434,58,56,84,158,208,41,66
493,63,57,81,165,197,44,71
493,56,60,83,157,205,45,74
495,52,55,76,159,214,43,77
487,49,52,70,133,158,44,85
294,49,50,64,123,168,44,85
193,42,46,55,115,184,39,88
218,37,32,49,127,191,37,78
202,56,37,51,127,172,35,77
193,58,40,57,139,189,34,84
191,58,43,61,142,203,36,149
126,65,45,66,136,187,38,181
62,66,47,67,122,173,41,181
56,52,44,62,131,200,43,180
57,58,47,62,136,202,44,174
54,59,46,65,137,178,47,126
166,54,43,61,158,192,49,233
496,56,41,58,165,200,46,318
715,54,40,59,146,170,41,351
1099,48,37,56,136,149,37,352
1388,45,36,48,139,147,32,352
1474,41,37,50,123,145,28,276
1453,40,39,56,116,137,31,172
1382,44,38,58,120,139,32,85
1126,47,36,53,111,157,34,74
754,47,35,54,97,161,34,71
552,48,33,51,91,151,32,276
387,50,36,53,86,147,31,513
293,47,36,51,89,144,33,549
179,44,39,53,122,194,32,649
115,44,39,53,120,191,33,734
80,56,48,67,135,199,35,1004
66,60,47,60,140,207,35,1243
61,58,51,64,146,214,33,1348
47,58,54,67,160,188,33,1417
41,61,55,68,167,193,37,1407
36,49,47,57,156,183,37,1209
39,48,43,56,150,184,42,897
39,51,41,55,148,179,42,706
550,54,36,49,112,154,43,439
797,52,35,50,112,185,40,323
1201,54,33,44,104,202,41,285
1304,50,35,48,103,198,36,131
1326,47,33,46,96,199,37,113
1218,40,31,45,92,195,34,98
1098,36,30,47,106,171,35,191
663,39,29,45,111,159,31,316
437,45,37,47,114,149,31,317
371,45,37,46,123,150,29,316
337,49,38,50,121,158,30,322
240,49,37,46,123,190,33,276
132,46,38,49,122,181,39,101
83,46,29,43,117,175,40,344
63,55,41,52,139,203,41,810
51,56,42,51,155,211,42,1092
112,57,44,51,144,166,38,1099
127,61,45,49,147,173,36,1108
150,57,46,54,150,176,35,1066
186,59,44,46,129,147,37,776
190,58,46,62,112,142,40,249
161,55,45,63,104,147,40,216
151,54,45,64,99,142,37,167
126,58,45,62,140,187,38,91
151,50,46,72,144,187,43,61
258,49,42,57,146,188,41,47
340,55,49,63,152,198,43,40
341,54,51,68,160,198,45,40
343,51,51,69,125,155,44,54
323,52,45,60,130,166,35,60
248,53,46,60,123,162,31,60
121,47,39,54,147,166,32,62
118,55,39,50,152,181,34,61
114,59,41,50,157,181,37,47
87,57,41,48,143,159,41,34
75,57,39,50,147,158,45,34
81,58,39,49,116,139,42,31
91,54,39,47,107,122,39,29
99,46,35,44,101,123,38,31
112,48,34,43,106,133,36,33
129,48,37,49,115,121,34,38
117,46,37,51,117,124,37,38
109,42,37,51,114,129,39,37
104,46,40,57,119,130,41,36
100,47,44,63,132,137,42,34
183,50,46,64,131,161,44,27
208,50,45,64,129,171,41,26
218,55,46,63,123,167,45,27
227,53,43,58,119,168,45,27
223,50,40,50,104,162,43,28
147,48,36,44,105,145,39,29
110,58,41,43,106,127,41,31
88,58,42,47,113,131,40,32
57,56,43,46,115,138,36,31
48,57,46,53,114,148,36,33
41,55,42,50,110,169,40,33
43,45,37,49,104,166,40,36
37,40,34,46,98,168,35,35
35,40,36,49,111,173,37,35
32,43,32,46,108,164,38,31
33,44,34,45,100,135,34,31
31,42,34,45,109,138,34,27
29,42,34,47,118,128,37,25
29,43,37,46,107,118,35,26
32,49,41,45,109,127,35,29
30,46,41,49,114,127,37,28
31,49,43,49,116,137,38,30
31,49,46,53,119,143,36,32
35,55,44,51,119,145,36,32
390,47,41,51,117,131,35,31
576,49,42,51,117,135,33,32
579,46,40,50,112,121,29,32
581,45,37,46,114,128,29,30
583,40,34,49,122,117,28,29
436,45,33,49,120,130,31,30
110,45,31,44,112,123,32,29
95,49,32,43,104,126,36,27
83,51,32,43,96,119,38,27
69,53,30,39,109,142,40,30
56,49,32,43,110,131,39,29
43,48,33,44,124,142,37,28
42,46,37,52,135,142,36,29
36,46,37,52,135,146,34,31
32,47,38,51,119,147,33,29
26,45,35,47,122,154,32,29
43,48,35,44,113,147,35,30
75,45,34,40,103,152,37,31
97,44,32,42,105,142,37,32
103,38,31,43,118,125,41,34
106,37,34,42,113,114,39,33
109,37,37,50,115,133,47,33
165,42,37,54,122,132,47,34
517,42,39,59,139,136,49,34
860,45,40,60,135,152,48,34
868,48,40,62,143,154,52,36
873,44,37,59,137,144,46,36
867,39,37,55,133,144,45,33
716,40,36,52,114,161,45,32
201,40,36,51,106,149,46,33
163,38,35,52,116,167,42,31
130,41,33,49,120,168,44,31
87,55,38,57,142,175,44,33
59,57,40,59,168,179,43,32
105,61,47,69,168,183,47,30
126,71,47,71,190,184,49,30
126,69,51,73,189,175,48,31
125,63,48,70,171,176,50,32
125,72,54,71,140,170,52,33
84,70,52,62,148,172,45,34
47,62,52,67,103,165,47,34
46,68,56,73,106,177,52,36
460,66,55,76,113,178,51,34
588,64,55,80,123,182,53,35
975,70,57,84,112,174,55,36
1043,72,63,82,116,185,53,37
1052,70,60,78,122,185,48,35
966,70,61,73,136,198,45,35
899,62,67,72,134,194,42,32
478,60,65,71,136,219,44,35
348,56,58,65,140,205,43,33
385,59,58,61,130,193,42,35
370,59,61,61,117,183,40,37
361,61,53,59,119,171,43,37
361,59,51,56,122,130,39,32
323,61,54,56,112,124,37,33
247,56,55,61,140,153,35,35
191,54,51,66,148,153,39,34
188,48,50,66,160,164,35,34
102,47,48,66,157,197,39,37
78,50,56,74,154,199,43,35
62,50,56,75,144,197,50,32
54,54,58,72,133,198,49,33
46,65,62,69,109,207,49,35
41,69,68,86,121,186,46,32
262,66,61,81,145,187,50,34
299,69,67,79,140,188,46,32
308,70,73,93,157,183,44,31
358,62,68,92,161,161,47,34
392,61,66,76,149,162,52,37
306,69,66,80,140,156,46,38
812,73,61,86,144,138,48,41
1171,72,54,68,119,134,49,42
1311,75,57,72,117,141,45,39
1413,74,57,74,133,155,43,42
1653,68,62,71,126,170,42,41
1517,59,62,60,113,167,35,40
1275,59,59,60,112,159,37,38
1158,53,58,62,116,156,38,37
1065,45,54,63,91,144,37,30
653,42,46,58,81,141,37,29
529,45,42,60,93,179,39,29
559,46,45,60,102,181,36,30
506,47,44,56,110,191,36,32
402,53,43,50,114,180,31,30
357,54,43,50,129,173,39,31
346,56,53,55,135,163,40,30
209,55,51,56,136,173,40,31
78,57,51,55,143,175,42,29
76,59,50,62,144,179,43,30
73,57,49,59,134,173,37,27
69,57,43,58,124,152,37,27
63,56,41,56,122,139,37,27
222,53,42,51,101,119,34,27
348,46,42,44,97,113,33,25
495,46,41,53,103,129,32,27
644,39,33,48,98,123,33,27
895,43,34,51,113,152,33,31
886,40,29,50,106,148,35,40
877,40,32,57,112,151,35,42
811,41,36,53,111,142,39,42
707,47,39,53,116,144,38,42
347,41,42,49,105,141,42,39
346,41,45,52,113,141,40,32
396,41,49,42,110,133,41,64
437,41,47,39,120,147,38,100
426,37,44,42,133,157,37,119
427,37,42,46,126,130,33,120
390,38,40,41,124,141,34,121
244,37,36,45,123,151,36,107
107,37,35,45,111,151,35,76
96,36,35,43,85,141,35,39
54,40,35,45,103,152,38,38
44,44,38,59,105,139,38,74
43,44,35,58,105,139,35,91
42,42,37,57,106,122,34,91
31,43,42,57,115,123,35,92
32,41,47,53,102,118,31,94
29,36,43,37,99,121,34,69
29,37,43,37,96,120,41,45
28,37,41,35,89,121,41,41
27,33,39,39,81,117,42,40
25,30,31,38,75,107,43,35
25,37,38,43,80,117,41,34
64,36,39,43,76,115,37,32
377,38,44,50,79,135,36,33
536,41,42,52,80,144,33,30
538,42,43,55,78,150,32,35
540,36,37,53,73,139,31,85
540,37,37,51,78,134,30,98
394,35,32,48,78,111,35,105
106,31,30,42,83,107,36,107
96,32,30,40,98,132,38,106
82,37,32,42,107,142,40,72
61,39,32,50,104,148,39,54
38,37,33,50,100,151,34,40
38,39,34,51,98,156,31,35
38,41,37,48,90,156,29,33
36,36,35,47,75,148,28,33
35,33,33,41,77,143,28,35
39,33,31,38,81,141,31,36
783,38,30,38,75,121,35,34
964,50,39,48,75,118,39,39
1100,50,38,46,77,121,40,37
1129,50,40,48,72,130,39,35
1355,56,43,55,84,185,41,37
1361,59,45,56,94,195,39,40
1428,48,35,50,93,182,35,34
1375,51,37,51,101,180,36,34
1418,54,38,50,101,175,41,35
1272,51,40,47,88,123,40,36
1015,44,38,43,89,128,42,33
734,42,38,44,87,135,43,34
640,45,42,51,78,149,41,35
473,41,39,50,78,147,38,34
236,39,35,47,83,146,38,28
136,37,33,49,76,137,35,28
87,40,32,47,76,135,36,26
59,34,29,44,80,120,35,26
43,37,30,43,84,129,33,26
34,36,30,41,81,126,33,25
30,36,29,37,83,112,33,26
22,32,39,36,82,105,30,27
20,32,41,29,84,118,31,26
21,32,40,28,86,114,32,26
24,32,43,35,93,122,31,27
26,34,44,40,102,130,30,28
32,34,36,40,99,132,32,30
37,33,30,41,95,133,30,31
36,32,31,42,93,136,31,31
40,32,27,38,84,129,34,31
40,31,27,33,69,125,33,30
43,30,26,33,69,119,31,28
45,29,32,35,69,105,33,27
46,29,38,38,89,107,29,29
42,28,38,37,87,106,25,27
41,27,39,36,80,109,25,28
36,27,40,37,82,109,25,27
33,32,36,36,103,128,26,28
31,30,30,33,84,118,26,26
35,31,29,32,85,116,26,27
35,31,29,36,87,109,26,29
31,30,28,35,89,112,26,78
27,25,28,39,61,90,27,95
29,27,27,38,64,99,27,179
25,28,31,40,80,113,28,184
25,31,29,38,80,121,28,190
25,32,28,39,75,116,29,177
40,34,25,31,80,121,30,169
65,34,26,33,97,135,31,74
89,34,23,32,91,124,30,61
119,31,26,31,89,119,37,41
127,33,27,33,99,149,38,35
125,31,29,31,97,143,35,33
119,29,31,31,77,121,35,38
108,29,29,35,79,126,37,38
82,30,31,39,88,135,31,57
126,32,33,39,79,121,31,80
158,34,31,40,76,123,30,81
155,35,30,39,75,124,32,87
152,34,29,36,67,116,31,88
155,37,31,34,64,111,32,76
120,36,30,34,70,95,31,53
75,35,31,33,73,106,33,55
79,34,32,37,75,113,31,56
217,33,32,36,76,112,32,64
286,33,31,37,76,110,34,64
398,30,32,34,83,121,37,65
680,40,35,38,82,114,36,61
718,42,36,41,81,107,38,57
705,44,38,41,80,117,39,49
684,44,36,40,83,126,36,48
648,49,37,45,80,118,34,62
793,49,38,46,92,117,35,65
921,53,38,44,99,131,40,61
1009,53,40,45,109,134,40,62
1082,62,40,51,111,144,42,62
1386,62,39,48,108,146,43,65
1192,59,37,47,102,156,45,80
1122,58,38,50,95,147,41,81
1135,58,40,50,93,157,41,80
1197,51,41,45,87,137,45,83
839,49,42,47,88,143,46,70
885,52,42,50,85,143,45,63
847,50,45,54,107,161,46,73
732,49,40,57,130,162,45,75
487,53,41,58,161,165,39,96
439,54,42,58,166,161,38,104
321,51,44,54,168,162,36,102
258,49,40,49,170,152,37,97
179,48,42,46,152,150,36,98
160,41,39,40,114,150,37,73
143,41,39,41,107,144,36,71
128,39,34,43,106,152,37,72
85,40,33,37,78,146,33,68
53,42,33,41,83,132,35,66
50,42,32,44,91,143,34,69
46,35,28,41,86,151,33,61
44,33,28,38,83,128,34,49
36,32,27,40,82,130,34,49
39,32,26,33,66,123,31,46
38,31,44,31,61,112,31,43
38,33,49,32,62,96,31,38
57,34,49,33,61,97,35,39
61,32,48,33,67,92,35,66
72,32,48,32,68,88,33,77
75,32,35,32,65,83,32,82
224,31,29,32,77,107,33,110
270,28,31,31,82,108,28,118
288,27,35,31,78,116,31,105
288,26,37,34,83,119,35,98
298,24,35,35,79,115,35,92
214,26,36,34,63,101,33,52
148,25,35,35,56,99,34,28
108,25,31,36,51,90,31,39
101,26,29,34,60,93,29,80
65,26,29,33,68,104,32,154
56,26,28,32,70,103,31,191
53,27,46,33,76,113,30,193
51,27,45,29,79,108,33,195
48,26,44,30,74,105,32,183
37,28,44,38,84,110,31,127
25,26,43,40,84,109,35,65
27,29,19,39,84,110,36,58
28,31,24,40,91,124,35,62
35,31,27,40,97,136,37,73
37,31,29,32,89,131,37,79
43,32,33,31,86,126,36,78
49,31,35,31,86,117,37,84
48,31,36,36,97,127,37,76
47,35,36,38,96,160,39,66
45,36,36,40,112,156,41,68
38,35,32,42,118,169,40,67
28,36,30,41,113,181,42,63
33,38,33,43,98,164,42,62
28,33,30,42,99,121,40,94
33,33,33,44,94,141,43,127
65,37,36,43,106,145,48,141
100,35,38,45,125,155,47,164
119,33,32,41,127,167,45,175
147,35,34,39,120,175,46,159
162,34,33,36,109,162,40,130
154,31,29,37,96,156,34,116
155,31,27,36,72,132,31,84
165,31,27,35,69,120,33,77
143,31,26,34,75,132,35,96
255,29,25,34,76,139,33,188
370,31,28,39,89,142,34,194
514,30,29,39,94,171,36,193
510,30,32,41,96,174,36,187
515,29,34,43,99,165,33,177
471,30,34,42,102,165,33,72
403,27,32,36,94,165,32,46
190,30,32,34,91,143,33,35
192,30,30,31,90,143,33,33
283,30,27,28,81,136,34,26
343,29,25,26,75,136,36,35
324,29,24,27,67,125,36,37
318,28,25,31,68,121,36,37
314,27,24,30,65,116,33,37
223,27,26,32,68,133,34,39
85,26,27,35,83,125,39,31
78,28,35,35,85,142,39,29
56,25,33,31,82,135,38,30
40,26,41,33,92,136,39,34
35,28,42,34,123,154,37,33
32,27,44,30,116,159,31,52
27,26,39,29,116,149,29,61
27,30,41,27,116,159,32,60
26,29,35,29,117,181,35,98
28,26,76,28,84,154,36,109
27,27,83,31,79,151,35,114
32,26,87,29,71,143,34,115
49,25,86,31,74,133,35,120
56,27,86,27,66,111,33,101
56,26,51,27,60,112,32,89
57,25,35,27,71,111,32,77
55,26,23,28,76,115,34,69
40,26,31,26,72,137,30,75
30,25,41,28,66,127,30,76
28,26,48,27,69,121,27,103
27,27,55,24,58,114,24,105
24,27,59,26,54,114,25,124
23,24,56,25,49,82,26,117
21,24,51,29,56,84,25,109
21,27,44,30,62,86,32,117
26,27,36,32,66,96,33,124
34,28,51,34,69,101,31,108
33,30,63,36,74,103,31,107
33,30,76,33,81,123,33,106
33,27,93,32,75,120,29,69
30,26,94,32,73,114,32,42
23,29,107,31,74,109,34,41
23,28,101,31,80,118,35,50
24,28,92,29,70,104,34,83
24,27,78,34,71,107,35,110
23,28,78,36,76,118,35,113
24,25,40,36,80,119,34,112
25,24,37,39,91,148,36,110
23,25,39,41,95,148,40,88
25,30,33,41,101,156,40,52
25,33,39,46,104,154,41,48
25,35,40,45,109,166,44,47
26,36,52,45,95,160,45,52
27,36,59,44,99,170,42,54
38,34,58,44,101,175,43,57
43,33,57,39,95,172,41,51
42,32,59,44,91,163,40,52
44,32,57,44,90,143,43,46
45,34,49,47,85,125,43,47
39,33,49,46,73,104,40,41
34,30,46,47,76,106,41,41
33,29,44,45,70,106,44,38
32,30,41,42,76,103,38,35
30,30,43,42,69,99,37,30
25,31,44,42,80,116,37,29
29,30,42,41,84,121,38,29
31,33,40,40,90,119,31,25
182,34,33,39,89,117,30,25
245,32,33,38,93,130,32,23
258,31,30,34,89,135,33,25
814,35,33,35,81,125,32,25
1130,34,32,34,69,125,32,27
1268,32,32,33,68,128,33,27
1266,31,33,29,72,123,34,29
1273,32,40,34,69,103,34,42
1026,28,38,35,79,114,33,59
681,27,38,36,80,110,34,101
330,27,40,38,82,112,33,153
332,26,41,39,80,121,32,155
323,26,36,36,82,124,31,158
290,26,38,35,78,126,31,158
260,25,41,31,76,123,29,138
243,25,39,28,75,116,30,78
293,24,33,29,75,104,30,163
410,25,32,29,69,97,33,247
442,25,33,29,65,90,32,250
438,26,33,29,68,98,36,249
438,26,32,30,61,106,36,249
378,27,32,30,53,113,40,203
214,26,37,30,54,120,39,69
131,28,34,30,48,112,39,36
154,26,33,30,52,107,39,30
151,27,32,29,68,108,43,27
151,28,33,32,67,114,39,27
165,28,31,34,68,117,36,28
162,26,34,32,81,125,37,28
145,27,33,32,77,126,32,28
261,27,33,34,68,121,30,28
306,27,34,31,72,113,32,31
414,27,45,29,74,106,33,31
525,28,51,30,62,105,32,30
617,25,51,33,75,136,34,33
621,24,51,30,80,140,32,31
625,23,49,31,88,140,34,27
567,24,36,34,89,139,35,26
640,26,22,34,91,144,38,28
933,29,23,31,81,125,38,27
1164,31,24,34,86,153,38,30
1209,32,25,34,81,161,37,30
1215,32,24,33,91,170,37,30
1141,31,27,38,88,162,38,33
862,38,37,55,89,161,39,33
458,41,50,53,85,131,39,31
267,41,62,53,83,128,40,31
211,41,65,52,69,118,42,31
200,46,68,57,74,119,41,27
185,40,67,48,77,115,40,26
204,38,62,51,78,134,40,28
364,40,51,54,79,123,38,26
466,41,49,54,82,118,37,30
464,36,43,49,82,120,37,31
475,38,42,44,88,122,38,30
475,44,45,56,92,118,37,27
468,42,43,53,95,129,37,107
502,43,43,52,95,140,38,227
494,44,44,52,97,158,39,289
723,43,42,54,116,186,35,292
864,57,63,44,108,190,38,298
944,61,69,54,115,185,40,280
1176,65,71,63,121,192,39,196
1361,68,72,65,121,175,38,84
1453,75,73,72,101,187,40,96
1411,71,55,71,103,171,40,87
1374,74,50,69,101,184,38,90
1459,75,48,64,93,185,39,89
1364,80,70,63,108,199,41,87
1258,75,76,59,107,158,47,67
1425,79,84,68,111,202,50,57
1617,77,88,71,110,196,51,62
1408,73,89,71,144,204,52,62
1384,67,74,70,131,198,51,62
1306,70,82,79,146,193,43,59
1092,61,77,75,158,148,39,59
700,60,72,70,171,135,39,61
525,62,73,70,153,103,35,83
359,60,79,75,165,111,41,94
254,56,76,71,165,130,49,92
120,51,74,69,153,129,53,108
84,51,77,69,137,143,52,111
68,47,77,68,144,164,59,95
45,45,71,69,135,167,55,86
36,43,61,62,123,169,52,96
33,44,62,60,118,172,48,106
36,40,56,55,116,169,48,102
55,43,62,55,97,152,40,102
61,41,74,45,108,166,44,101
61,45,75,52,120,200,48,93
62,49,72,60,135,204,51,54
61,48,75,65,144,199,50,39
63,47,68,68,141,195,56,42
91,55,59,70,141,171,52,42
93,52,54,66,134,142,50,45
96,45,58,57,130,160,49,50
96,46,60,51,120,155,51,49
86,45,65,53,121,150,43,47
52,35,66,52,107,147,45,48
46,32,62,47,96,125,40,46
38,33,58,49,88,90,41,40
31,31,57,51,93,98,42,39
28,35,60,49,92,106,44,39
24,39,53,44,96,109,42,32
24,38,53,43,100,127,42,27
27,39,57,41,95,130,37,26
42,39,85,41,86,141,37,27
53,37,91,36,85,137,33,27
54,35,91,38,86,142,36,28
56,35,93,42,113,147,35,30
316,36,94,52,112,154,35,30
498,35,69,51,112,157,33,29
515,35,53,54,115,159,36,30
522,33,50,54,114,154,33,27
717,33,48,54,87,145,35,25
986,39,41,47,91,147,36,30
1252,39,36,49,93,128,37,29
1269,39,38,45,93,127,36,29
1282,43,38,44,90,135,36,32
1199,42,38,52,83,112,37,31
945,33,44,51,75,91,36,26
391,37,68,66,105,111,40,33
303,39,83,87,129,120,43,32
228,35,85,92,136,122,49,37
131,37,114,98,134,131,47,38
77,39,113,98,138,139,46,39
53,35,101,88,117,130,42,35
46,34,89,70,90,140,39,35
38,32,89,65,93,139,35,30
30,32,62,53,97,134,38,29
24,31,72,52,93,132,39,27
33,34,77,55,92,131,38,28
34,31,78,51,87,114,37,28
33,32,76,51,79,107,35,29
33,31,63,45,74,99,34,36
34,29,49,50,76,99,34,36
24,28,53,47,87,122,35,34
24,28,58,51,95,120,35,34
23,28,58,56,90,119,34,34
25,28,60,54,86,127,31,26
22,27,58,51,88,139,31,25
22,28,45,48,90,137,30,29
20,29,35,47,90,153,31,29
20,27,33,44,89,159,30,26
18,28,30,45,98,164,33,31
19,28,31,46,98,155,36,31
18,28,30,48,84,142,37,30
18,28,32,47,80,127,37,29
19,30,38,48,76,122,39,30
20,30,38,47,68,106,37,28
20,31,42,47,64,108,34,29
20,30,68,49,77,109,35,28
21,31,69,44,75,111,38,29
20,28,73,40,82,117,36,29
20,28,76,49,84,131,36,32
22,28,80,47,85,121,38,35
22,29,68,51,79,121,39,34
21,28,64,50,73,115,37,32
20,29,57,51,67,103,37,32
21,30,54,48,71,96,37,28
19,29,46,50,68,97,35,23
20,29,31,42,62,87,34,24
20,30,36,44,63,89,32,27
20,31,34,42,65,99,32,26
20,30,33,36,59,91,31,25
21,29,33,33,56,92,31,26
21,27,35,36,68,101,30,25
22,25,40,36,70,105,33,26
22,24,38,36,71,105,34,27
21,23,37,33,82,124,35,27
24,24,35,38,89,137,35,29
24,25,32,35,82,143,34,30
24,25,19,34,87,148,33,28
23,25,20,35,86,143,32,28
23,27,24,39,76,139,33,29
30,28,25,34,76,135,34,29
36,28,31,35,70,119,34,27
79,28,43,35,63,110,34,33
84,28,49,34,63,109,36,33
86,27,60,35,64,104,34,35
86,30,63,36,58,96,34,34
85,30,61,35,60,105,34,35
48,29,55,35,69,112,31,30
41,30,53,34,77,131,33,35
37,28,40,31,73,141,33,69
30,27,40,32,74,152,31,91
25,26,38,31,76,149,32,92
24,26,35,29,68,139,34,94
22,26,31,28,60,123,33,94
24,27,33,33,61,108,35,71
23,24,27,38,69,101,35,40
25,26,28,39,80,116,35,50
26,27,28,41,94,120,34,60
25,28,34,49,105,139,36,59
22,27,32,45,107,144,35,61
25,29,32,39,99,137,35,61
35,29,33,39,92,127,34,50
38,29,33,45,83,127,35,36
38,29,32,49,75,109,33,35
38,29,31,49,71,100,32,74
39,30,30,51,70,101,33,151
33,29,32,51,67,102,32,307
44,30,31,45,58,104,33,487
49,27,27,32,48,95,32,491
60,29,29,36,56,101,33,488
61,27,28,34,59,99,30,471
60,27,27,36,63,104,31,392
50,25,29,37,65,96,28,109
46,27,27,40,66,97,32,107
35,27,28,38,75,108,33,144
44,28,27,39,75,109,33,142
45,30,44,37,75,97,35,129
56,30,46,41,79,96,35,128
116,29,46,37,80,96,32,112
179,28,45,35,69,87,30,39
218,29,75,36,72,86,34,47
245,28,70,41,90,110,33,48
254,28,73,36,90,114,34,48
298,28,74,37,86,122,33,49
279,29,78,34,98,134,34,63
254,27,77,31,104,132,32,67
230,29,74,25,92,126,34,67
218,29,74,25,91,128,33,91
117,28,77,25,91,123,33,118
77,29,92,33,77,96,34,124
55,30,77,36,73,104,34,121
46,28,116,40,75,113,31,131
41,28,119,40,74,111,31,125
35,29,123,41,75,108,33,101
31,27,114,36,84,124,32,85
28,27,113,33,77,123,31,85
26,29,74,29,65,105,32,75
24,31,71,30,67,110,34,69
25,32,59,32,81,113,30,70
64,32,52,33,72,98,29,71
100,30,45,35,76,122,30,69
111,31,45,38,77,121,28,57
112,29,33,38,78,123,26,45
150,29,32,42,75,128,27,41
156,29,31,43,72,127,26,42
247,30,31,42,68,101,25,40
421,29,28,43,70,102,30,50
497,29,27,42,66,99,32,53
495,27,25,38,55,87,32,51
491,28,26,38,57,99,35,50
447,28,25,39,67,114,38,51
286,28,28,35,72,126,39,46
592,31,67,42,83,130,39,46
793,53,102,40,88,158,37,64
922,53,111,45,95,169,39,89
949,52,114,46,91,161,40,103
952,51,114,49,92,153,35,109
754,49,99,45,90,152,37,111
533,23,62,48,97,130,43,103
247,26,52,44,97,120,45,82
98,33,52,42,99,128,43,63
501,32,57,49,103,134,44,47
1049,33,56,48,100,128,42,35
1141,32,58,50,95,130,42,30
1344,35,53,49,94,121,37,25
1498,34,55,56,87,116,33,25
1475,39,50,52,79,105,32,26
1175,39,48,52,71,105,34,27
1093,41,45,49,67,110,33,416
832,40,284,48,66,109,36,538
506,38,378,46,74,103,36,540
279,35,412,50,79,119,37,543
143,36,412,49,80,131,37,546
77,35,413,53,89,131,32,357
44,33,305,55,85,129,29,108
27,29,180,51,80,136,33,96
25,32,137,44,82,131,40,78
27,30,154,45,87,127,40,55
29,30,169,45,88,121,41,44
35,30,169,42,91,130,42,39
34,32,164,42,94,146,41,36
32,29,121,47,91,137,35,36
29,31,95,48,87,133,35,35
28,30,66,43,77,130,34,28
18,30,78,45,71,124,32,30
17,31,71,44,75,118,34,30
16,32,63,35,70,125,34,29
16,30,63,34,74,118,34,29
14,29,58,32,78,126,34,30
14,30,30,32,90,137,35,29
14,28,30,30,87,119,31,27
18,28,31,33,85,118,28,24
20,28,33,34,87,126,30,24
20,28,33,38,83,120,32,25
21,30,32,41,78,117,31,28
21,27,31,42,78,122,31,27
19,27,30,41,82,125,31,27
17,28,29,41,75,120,29,26
18,28,30,38,72,116,29,25
18,27,29,35,79,126,29,23
17,29,29,33,74,124,30,25
16,30,33,33,75,117,32,26
16,32,35,31,77,122,31,26
15,32,32,32,95,130,33,26
17,31,32,32,84,106,32,28
18,29,31,36,86,97,32,26
19,30,34,37,79,102,30,26
22,26,37,36,78,96,30,26
23,25,37,37,62,91,29,27
27,24,36,37,59,96,30,24
29,26,37,36,63,109,30,25
28,25,30,35,71,120,29,25
25,26,26,35,69,119,30,25
25,26,27,34,60,115,30,24
23,29,29,32,58,109,30,26
23,28,40,29,63,111,31,27
25,29,54,29,64,106,31,25
26,28,58,31,72,108,33,24
31,27,58,32,78,105,30,24
29,26,58,33,83,114,30,22
28,27,52,33,72,98,28,22
27,29,40,36,67,99,29,27
27,28,36,34,61,100,25,29
20,29,34,32,64,100,26,101
20,27,33,36,62,95,25,124
19,25,31,35,63,111,25,125
19,25,28,33,66,97,25,125
20,26,25,38,63,91,28,126
19,26,27,36,58,96,28,80
22,28,28,33,54,94,29,37
22,29,29,34,71,82,29,34
22,27,27,37,74,88,30,33
21,27,26,32,75,92,28,29
21,29,25,32,75,88,28,29
21,27,42,33,80,87,30,30
20,29,42,32,68,100,29,27
20,28,46,28,60,98,28,24
19,27,45,28,57,93,29,23
18,27,45,29,60,99,32,25
17,26,33,31,61,119,33,27
27,25,32,30,74,113,34,26
195,27,27,33,78,133,35,249
271,27,31,34,80,144,34,609
272,26,33,35,84,145,33,824
273,27,30,33,85,130,31,920
277,27,31,38,77,125,35,924
202,26,35,38,85,125,38,1164
78,30,33,37,91,141,39,1382
78,30,31,35,87,140,39,1379
72,30,30,35,79,137,40,1324
53,30,29,30,76,138,35,1338
39,29,25,31,84,130,32,1122
37,25,24,32,80,115,35,636
37,27,35,32,78,112,34,324
53,27,35,32,83,116,32,296
63,25,34,30,82,123,31,208
64,28,34,27,70,116,31,117
60,27,35,26,77,127,27,67
58,25,28,30,81,126,31,46
44,26,26,27,75,127,31,24
30,28,26,29,76,121,32,26
25,25,24,31,72,118,30,26
36,26,23,32,63,93,31,28
46,26,19,30,62,95,29,28
104,24,23,33,65,92,30,27
296,24,24,33,65,93,32,26
511,23,26,31,65,100,37,25
537,21,23,30,64,102,37,25
627,27,25,31,67,122,47,25
644,29,25,30,67,133,52,27
741,31,25,31,65,129,55,32
828,32,26,29,63,131,59,32
814,34,28,31,67,143,62,34
755,32,28,29,64,142,56,34
741,30,24,28,67,150,54,32
585,28,27,31,78,161,49,27
182,30,27,33,82,169,42,28
169,29,26,35,83,184,44,25
128,28,25,38,92,175,44,27
89,31,27,40,95,163,43,26
57,32,26,37,87,155,43,26
41,29,27,36,82,137,40,27
41,33,29,36,80,111,46,28
33,33,32,33,71,120,47,26
30,30,38,31,63,118,48,28
29,30,39,30,60,123,47,30
28,28,37,29,61,120,50,29
22,24,36,23,57,109,40,28
21,24,36,23,51,100,35,28
22,24,28,21,68,103,35,28
21,23,27,23,73,108,35,26
21,23,29,25,74,116,33,25
22,25,29,26,75,118,32,26
22,24,28,27,78,117,34,27
21,25,28,27,64,112,32,26
20,27,30,28,62,113,32,26
21,29,32,28,65,121,33,29
31,30,32,31,69,117,31,29
45,31,29,33,78,112,29,28
49,30,28,32,81,112,27,28
52,28,22,30,81,99,29,27
53,30,19,30,101,118,27,25
47,29,19,28,100,123,33,26
36,27,21,26,92,123,33,27
31,27,24,27,92,129,34,27
32,27,29,28,96,136,34,28
30,23,28,29,82,111,35,28
30,23,27,28,83,111,31,27
28,24,27,28,86,108,31,27
29,24,28,29,84,102,32,28
22,24,28,26,78,92,34,28
23,26,31,30,80,102,32,28
93,29,33,33,76,109,33,28
120,31,31,33,72,108,34,27
155,32,29,31,72,103,32,25
167,31,28,33,74,104,31,23
183,31,28,35,108,166,32,23
167,27,27,31,108,160,33,23
152,24,27,34,109,165,32,23
120,26,27,35,113,172,34,24
103,27,26,34,116,180,35,24
70,28,24,31,81,122,34,24
65,28,26,31,80,118,30,22
56,29,29,31,83,112,32,23
51,27,33,32,79,104,32,24
263,26,36,32,73,100,31,24
345,25,33,29,70,109,33,26
344,26,33,33,85,119,36,25
347,26,31,29,80,123,38,28
350,26,29,28,82,129,40,28
239,31,25,29,85,126,42,31
89,32,26,30,81,112,42,30
87,30,24,26,66,109,40,30
71,30,27,29,71,102,39,27
55,31,26,30,70,93,35,27
42,28,24,30,67,114,32,25
37,26,24,35,67,111,30,27
28,26,25,36,64,107,31,30
29,25,22,38,66,113,30,29
30,26,23,39,74,145,32,28
26,25,23,37,76,132,34,28
23,28,28,34,72,135,32,26
91,31,30,35,73,140,30,22
97,31,33,32,72,137,28,24
137,30,33,32,61,123,30,23
140,31,37,36,63,118,28,23
143,30,33,37,70,124,29,24
116,30,30,38,70,121,32,27
114,31,30,38,71,128,36,26
76,31,33,36,77,130,37,26
78,30,29,31,79,129,36,26
73,30,36,32,75,120,39,26
67,29,39,30,78,126,39,23
64,27,38,28,74,120,36,22
45,27,34,29,67,103,32,24
32,27,34,35,77,112,34,24
35,26,29,35,75,115,33,25
34,26,29,37,69,103,30,26
31,26,29,36,66,103,30,29
29,24,31,39,75,103,35,31
27,25,33,37,66,89,35,30
42,25,32,35,67,101,34,29
45,24,31,35,86,113,36,29
52,23,30,38,91,114,35,27
52,23,28,34,92,113,30,23
55,23,25,31,86,113,28,24
44,24,26,32,94,115,30,26
44,24,25,28,80,112,30,25
41,24,23,25,78,115,30,27
52,28,27,30,94,135,31,29
53,30,28,31,95,150,34,28
71,29,27,30,89,157,33,28
72,29,26,33,87,155,35,29
73,31,30,41,88,153,35,29
69,28,27,36,63,134,36,29
151,26,29,38,62,119,37,30
658,27,27,40,70,118,34,29
918,36,27,38,74,118,34,32
1103,34,24,30,72,117,34,32
1232,33,22,30,69,115,33,30
1477,32,24,28,70,135,31,29
1464,31,26,29,58,112,35,28
1487,28,27,28,53,115,33,27
1429,30,26,29,57,121,33,26
1353,31,29,29,61,133,33,26
1120,33,25,27,64,118,32,28
953,34,24,23,70,122,33,29
697,27,24,25,80,128,33,28
534,26,24,26,79,134,34,27
447,28,22,26,76,126,35,28
312,24,23,29,76,120,34,28
270,24,23,29,86,131,30,28
164,24,23,29,77,118,30,29
150,25,23,28,74,107,30,30
140,26,24,29,72,104,28,30
131,26,23,28,69,112,30,30
122,26,23,26,64,117,30,28
79,28,25,33,62,119,30,27
57,27,24,34,70,117,29,25
66,26,27,35,78,117,29,26
66,27,26,35,79,114,30,28
64,28,25,35,70,89,30,27
54,26,23,30,72,97,28,25
45,28,25,29,66,104,28,28
27,28,24,31,65,106,28,28
25,27,23,33,65,103,28,28
22,27,26,35,69,117,31,28
22,27,25,33,73,120,30,29
23,26,25,32,83,124,30,27
25,27,24,29,76,120,30,25
32,27,26,29,82,121,29,24
31,27,26,30,83,121,27,24
31,27,25,33,82,128,29,24
32,27,28,35,70,115,29,22
30,25,29,34,73,114,29,21
29,26,28,36,68,111,32,21
29,27,26,33,60,104,32,23
30,28,27,28,57,82,30,23
43,26,23,30,60,98,29,24
47,27,23,33,62,109,29,24
44,26,24,30,58,106,26,26
45,24,23,30,58,95,29,25
45,24,26,31,55,87,28,24
32,27,26,29,51,74,29,25
27,26,29,26,49,62,30,26
28,27,32,28,52,84,32,26
26,28,33,30,71,115,32,26
26,28,31,31,80,122,34,27
27,27,31,29,88,149,34,29
24,29,28,31,88,155,34,30
23,28,25,29,94,158,38,30
24,29,26,29,85,149,39,30
24,29,28,32,83,154,38,29
27,27,29,34,75,132,40,30
29,26,28,32,74,131,42,29
29,27,29,35,70,120,37,28
29,26,30,36,68,108,37,28
30,26,30,39,70,110,38,30
30,29,29,38,75,112,38,27
28,30,28,38,74,102,35,28
27,31,28,36,70,95,35,27
28,32,26,36,79,102,34,26
31,33,26,28,77,117,32,25
39,33,27,32,78,117,32,27
133,32,29,39,85,131,34,28
207,30,28,38,86,136,33,28
210,32,28,39,75,131,32,28
212,32,25,42,67,107,31,29
215,30,25,42,65,100,29,28
176,30,24,37,65,92,30,29
79,32,24,35,67,90,30,29
70,31,25,34,77,107,33,29
63,29,26,30,77,103,32,28
44,30,30,26,85,110,33,27
36,30,28,27,87,103,29,23
33,29,27,29,84,110,31,27
35,27,26,29,74,103,30,28
37,28,27,31,86,118,32,28
35,27,22,29,73,109,32,27
31,28,26,28,65,114,35,28
28,26,26,28,70,103,35,27
27,27,28,28,75,112,33,29
28,28,28,31,70,105,32,30
33,29,28,32,72,108,31,32
35,28,25,34,73,101,28,32
36,31,25,32,73,107,28,30
36,31,23,32,69,88,31,27
36,30,22,28,62,75,33,31
58,30,24,27,66,83,33,29
127,30,25,24,76,95,36,29
150,30,27,26,77,102,35,28
152,29,27,24,79,103,33,28
152,30,27,25,79,113,31,25
146,30,26,25,80,121,30,26
93,30,26,25,68,114,30,26
50,28,25,26,65,109,29,27
43,27,27,28,71,118,30,27
42,29,28,32,70,109,28,26
39,30,27,32,65,94,30,25
36,31,27,34,69,100,29,27
35,32,26,33,71,105,27,28
32,32,25,33,81,105,30,26
33,31,24,31,88,114,30,26
27,30,24,30,88,133,29,38
28,30,24,32,88,127,28,38
50,28,24,32,88,123,30,37
76,31,23,30,71,115,28,39
127,29,22,28,64,110,28,38
143,27,21,28,65,93,30,89
146,27,20,24,75,105,31,130
140,27,21,23,70,98,32,131
129,25,21,22,69,104,34,131
82,25,20,25,71,105,37,131
57,25,21,25,75,98,34,112
51,26,22,28,64,90,35,83
52,28,23,29,61,98,37,83
49,26,26,30,62,88,33,93
49,27,29,30,63,90,32,105
39,30,31,32,67,99,36,93
34,31,32,33,80,108,35,73
33,30,30,33,83,101,34,71
101,31,30,32,92,105,39,60
150,30,26,31,91,102,38,32
173,28,23,29,83,91,37,33
176,27,23,27,72,89,37,33
183,27,24,29,70,90,37,33
162,27,25,31,58,85,32,28
120,30,27,33,63,92,32,28
83,29,28,31,66,94,31,25
80,27,28,30,67,96,31,28
69,27,27,26,62,104,27,28
59,28,27,27,76,128,30,30
55,25,26,25,71,124,30,30
55,26,26,29,74,129,30,31
53,28,26,29,69,120,28,30
50,30,26,31,74,112,29,28
43,27,22,28,64,85,31,25
63,27,26,29,75,91,31,24
226,28,25,31,74,81,35,25
805,28,27,31,76,78,39,24
1009,34,27,29,83,90,85,28
1328,38,30,29,85,109,123,29
1503,42,29,30,81,104,147,29
1611,44,29,24,79,103,185,26
1441,42,29,27,86,112,289,25
1325,38,31,29,83,117,350,22
1043,34,27,28,75,106,343,21
787,30,27,27,72,104,339,23
494,27,25,26,70,106,334,23
410,28,27,29,74,104,251,25
351,27,26,40,85,104,150,24
229,26,26,40,91,106,143,24
155,26,25,41,93,108,132,26
134,28,26,43,95,109,90,27
141,26,22,39,86,104,89,29
119,25,23,25,71,109,97,29
106,27,23,27,69,111,102,30
93,28,24,29,79,113,102,27
84,27,24,27,75,109,103,25
53,30,28,37,79,116,96,23
47,31,26,37,79,106,66,25
36,29,27,40,87,115,57,27
36,28,28,39,74,120,53,34
44,29,30,42,82,139,54,36
51,27,27,36,77,137,56,36
49,27,29,40,88,147,58,34
49,32,35,47,88,161,50,32
49,32,36,49,96,167,50,31
38,31,35,47,89,159,45,33
23,31,36,48,91,158,43,32
38,31,36,47,88,151,42,41
81,29,32,41,78,125,42,64
92,29,32,41,69,120,45,95
94,30,34,46,72,110,47,95
96,32,35,47,79,119,48,102
92,32,35,46,73,106,45,104
57,29,33,45,83,106,44,92
43,30,31,44,87,117,37,55
65,30,28,39,84,117,38,55
77,33,24,36,76,104,37,40
77,34,25,38,74,134,34,28
79,36,27,40,77,142,33,28
76,37,30,43,76,127,31,28
56,37,32,43,82,135,31,27
34,35,35,44,95,146,35,31
37,35,38,47,94,127,41,28
33,34,36,45,85,119,42,27
29,32,33,44,84,118,41,28
28,33,34,45,84,120,41,29
204,30,30,45,77,114,36,30
235,27,27,40,76,101,30,78
238,26,29,40,82,110,34,331
241,28,28,37,82,135,35,525
245,28,29,40,81,139,37,530
146,27,29,38,72,139,40,531
90,29,28,36,72,147,40,527
84,29,26,37,83,156,35,418
75,30,29,37,77,153,35,92
63,28,28,34,71,142,33,60
43,30,28,39,87,185,32,51
35,31,29,39,95,195,32,42
33,30,28,36,79,191,33,37
32,26,24,36,77,177,31,33
30,26,24,37,84,182,29,32
26,25,23,33,69,136,25,31
25,21,22,34,63,112,26,30
25,23,23,35,65,98,31,26
24,27,28,37,74,120,33,26
24,27,28,37,72,117,35,33
25,28,28,34,71,113,34,32
26,31,28,36,64,117,34,33
22,30,30,40,63,118,31,32
20,27,30,40,55,104,30,35
21,27,29,37,51,99,32,30
20,26,31,39,59,105,35,30
19,26,32,38,65,100,36,30
21,26,28,34,75,98,36,31
25,29,27,33,77,85,37,28
26,31,26,33,75,83,34,28
27,31,25,33,69,91,32,30
27,30,25,32,63,90,32,30
26,30,29,31,52,84,32,30
23,28,28,29,54,99,36,30
21,26,29,31,53,104,37,31
21,27,29,30,54,101,38,31
25,26,27,30,55,105,37,39
25,26,23,28,48,108,38,48
23,26,25,29,45,95,31,47
24,24,25,26,46,90,28,52
24,24,25,26,48,91,27,71
22,28,26,27,66,104,28,99
23,27,25,27,70,101,28,95
26,27,25,28,71,106,28,95
27,27,25,29,72,118,30,105
27,29,27,28,71,126,28,98
27,27,27,30,63,114,30,67
25,29,29,31,66,132,33,66
22,30,27,30,92,156,34,141
21,30,28,31,91,150,36,201
20,29,30,32,90,142,36,204
22,28,29,30,89,145,37,204
21,28,29,31,88,132,34,205
21,26,29,29,58,104,32,163
21,25,27,29,57,108,31,74
21,26,24,27,61,102,32,61
17,27,24,26,67,119,32,67
19,26,25,27,78,136,33,82
19,28,26,26,78,131,34,141
20,29,26,25,77,121,36,152
37,31,28,27,78,135,34,159
262,30,28,25,69,116,33,157
660,32,30,24,70,100,31,150
743,29,28,25,72,101,30,100
749,29,28,25,85,129,33,77
753,26,25,24,82,118,34,61
710,27,27,25,81,121,32,69
375,23,26,24,66,116,33,85
155,23,25,25,82,141,35,92
127,23,25,25,72,120,32,106
94,22,24,25,74,126,32,167
63,19,22,24,76,127,33,183
41,21,22,23,76,124,32,179
36,23,24,26,57,97,32,176
34,24,24,27,60,97,31,167
33,24,26,29,58,91,33,108
30,26,27,29,56,86,32,73
28,26,27,30,61,95,34,65
380,26,26,26,60,89,33,62
653,27,26,24,53,89,34,54
1000,28,25,23,55,90,31,54
1291,27,26,27,59,97,32,66
1452,26,25,27,57,98,31,92
1427,25,25,28,66,111,30,99
1335,24,25,29,72,120,31,102
1122,24,25,32,75,134,32,98
815,25,24,30,77,125,29,338
512,30,24,30,77,123,26,651
669,32,25,29,69,118,26,923
876,33,27,30,72,126,23,1010
1184,31,27,27,69,110,24,1024
1167,32,29,26,69,115,25,988
1204,29,29,27,73,117,26,814
1119,25,29,29,75,116,27,486
969,27,26,28,69,111,30,285
512,28,26,28,71,118,31,271
481,29,25,26,67,117,31,238
488,30,26,29,64,116,33,284
529,30,31,25,64,114,33,319
498,27,33,26,66,113,31,302
496,27,33,28,62,105,30,272
497,26,33,29,68,125,30,243
339,27,35,25,72,121,28,183
107,27,30,26,73,125,27,95
94,28,30,26,74,115,26,83
67,26,28,24,70,122,27,59
55,26,26,23,66,102,30,40
34,27,22,25,62,110,31,39
24,25,21,26,57,104,32,36
23,26,20,25,48,106,30,37
23,27,20,26,58,99,32,37
29,26,22,26,59,101,29,39
50,25,23,24,59,96,31,60
125,26,26,22,59,112,31,77
173,26,30,21,59,104,32,78
283,27,31,23,49,104,31,79
514,27,32,23,43,103,30,79
526,28,32,24,48,129,30,63
708,27,29,25,52,116,33,41
805,29,24,26,58,131,32,35
821,27,23,25,61,131,33,32
706,27,21,24,63,128,33,40
702,25,21,23,56,98,30,56
517,104,79,42,153,404,30,522
341,135,100,50,183,559,33,824
219,136,101,49,186,564,34,1212
204,137,102,49,189,564,34,1421
180,138,104,50,192,571,34,1429
144,96,71,37,126,427,34,1370
103,40,36,28,80,175,32,1256
46,39,36,29,75,159,29,915
26,37,35,29,66,160,30,549
671,40,28,29,59,150,31,531
896,34,28,27,66,122,28,422
910,33,26,25,60,125,26,268
926,32,25,24,53,122,28,142
933,32,24,25,58,121,27,75
652,25,26,23,76,110,26,43
272,27,23,25,74,102,25,30
222,27,23,24,74,99,27,22
140,28,23,25,82,118,26,27
86,26,22,24,79,126,29,30
55,26,22,28,68,120,32,30
43,24,23,27,70,123,37,33
37,27,24,28,70,123,37,36
33,29,24,27,64,107,39,32
29,30,25,26,62,102,39,32
24,30,24,22,64,102,36,32
23,30,24,20,62,106,33,35
22,30,26,21,62,107,31,93
20,27,25,22,66,115,32,134
18,26,26,22,75,121,30,140
16,25,27,22,69,126,33,146
18,26,28,22,68,118,31,149
109,21,27,21,66,113,31,124
166,23,27,21,65,104,29,78
183,25,27,21,59,97,32,73
190,25,27,19,62,92,31,60
191,24,26,19,62,100,32,51
158,25,24,20,63,96,32,41
98,25,25,21,64,110,34,40
570,28,23,23,68,125,30,30
923,44,25,27,76,152,29,34
1243,47,25,27,79,148,30,40
1264,47,25,26,80,152,29,49
1293,47,24,27,78,145,26,64
1186,45,24,23,73,126,27,91
946,29,23,19,63,86,28,90
453,27,21,22,53,87,28,86
393,28,26,24,76,100,28,83
284,29,92,26,78,102,29,72
161,31,114,27,82,111,28,37
89,30,116,27,87,118,29,34
55,30,117,25,94,116,26,35
39,29,118,27,77,104,32,35
40,27,80,26,80,96,33,39
41,25,42,27,83,99,33,44
42,27,37,28,79,101,33,50
40,27,35,30,85,121,36,72
41,27,30,28,86,122,34,91
31,26,26,27,85,125,30,146
24,25,28,25,77,116,30,171
24,22,25,25,74,104,27,170
23,24,24,24,68,89,25,163
22,26,24,22,64,92,22,153
23,27,23,23,61,98,27,101
23,27,22,24,63,98,27,85
22,28,48,22,65,105,28,103
25,28,55,23,60,115,30,138
24,25,58,24,60,108,34,240
24,27,59,23,62,115,34,314
26,26,58,23,64,122,35,306
26,26,41,23,63,119,36,303
24,25,30,23,66,105,36,293
26,26,24,24,70,110,33,219
27,25,26,25,65,97,33,88
24,25,25,25,60,86,32,82
25,26,27,28,61,88,33,71
26,27,27,26,75,107,31,51
26,28,27,26,82,120,34,38
25,26,28,27,83,122,32,77
25,27,28,26,83,124,33,86
20,25,28,25,84,130,32,86
22,24,29,25,65,119,36,88
21,25,27,26,55,98,34,87
21,26,24,24,56,95,33,51
21,25,24,24,57,98,34,34
24,25,23,25,59,110,32,32
22,26,22,27,64,104,28,29
21,28,22,25,61,107,27,30
20,29,24,24,59,107,30,28
22,29,23,25,57,106,30,23
20,31,27,28,74,95,32,24
21,31,27,27,81,95,31,25
23,27,29,27,89,101,31,128
23,26,29,28,91,102,31,173
22,28,28,29,91,102,32,182
23,39,26,24,74,89,31,184
21,46,26,24,65,93,32,186
89,47,25,24,56,85,33,138
105,48,24,23,54,90,33,88
112,47,24,25,60,93,32,72
114,35,23,25,61,95,31,66
117,24,23,25,62,102,29,57
82,24,23,25,62,106,30,57
85,24,23,25,68,116,29,33
144,25,23,23,67,122,29,21
636,28,23,24,70,121,30,22
894,60,22,29,77,146,34,31
1099,65,29,33,85,166,38,38
1145,70,31,36,79,175,40,45
1145,76,31,35,82,191,41,46
1060,82,35,34,89,224,44,50
1238,64,35,34,94,218,41,55
1116,63,29,31,88,203,41,58
1267,69,28,31,91,207,39,59
1404,72,33,32,88,216,39,77
1604,71,29,35,99,184,36,82
1390,70,29,31,88,165,36,77
1450,67,29,29,85,170,31,137
1351,56,29,26,82,154,34,183
1234,44,25,26,84,121,33,180
865,32,26,25,63,128,32,186
768,31,29,27,86,134,34,187
546,35,30,29,116,140,32,157
330,39,30,29,128,127,32,98
172,39,29,27,129,128,34,95
271,40,28,27,137,132,35,77
753,59,26,28,134,150,34,82
1128,63,32,27,113,180,35,62
1347,66,30,28,102,185,34,65
1560,66,30,30,101,176,32,56
1564,66,29,28,87,166,31,54
1478,51,28,26,68,143,32,44
1268,42,22,26,61,82,31,35
1053,31,24,25,58,76,35,24
708,33,23,27,48,75,35,23
654,32,26,26,57,94,37,25
436,29,28,28,73,111,40,26
246,28,27,27,73,114,41,28
137,26,26,27,72,115,38,27
86,25,28,27,76,120,37,28
67,24,26,29,76,114,37,38
53,24,28,31,71,132,32,45
30,24,28,31,69,133,32,46
22,25,30,31,70,138,34,50
21,26,34,32,72,147,36,49
21,25,38,29,77,156,39,87
22,26,38,28,70,134,41,528
35,26,43,28,73,140,40,628
49,27,43,29,72,134,38,638
50,26,39,27,69,118,38,642
97,28,34,29,59,98,33,640
111,26,32,26,69,108,32,373
113,31,29,25,76,151,35,381
114,41,39,32,78,197,37,909
122,42,39,32,80,201,36,1125
89,41,40,31,85,202,36,1136
71,43,41,30,83,220,39,1152
63,40,38,32,77,192,36,1111
50,30,24,24,85,171,36,744
25,30,25,24,81,166,35,334
24,35,25,24,75,164,36,291
19,34,28,25,72,128,31,212
21,32,27,26,69,123,31,134
24,30,28,26,56,80,28,73
30,29,27,25,54,79,31,49
33,23,28,26,51,86,33,44
103,24,25,26,49,107,37,39
113,25,26,24,51,117,41,31
338,27,27,26,51,118,44,33
600,26,27,27,60,131,44,32
900,37,25,26,68,141,45,32
992,47,23,26,68,131,45,36
1059,49,29,28,77,156,43,43
1199,69,29,24,84,172,40,45
1351,70,29,24,80,169,42,46
1207,68,29,25,82,165,38,44
1224,61,31,26,82,175,37,44
1251,62,27,28,75,154,37,38
1099,37,27,31,71,149,38,35
769,37,29,32,72,147,38,36
719,33,31,31,63,143,39,38
541,33,27,28,61,123,36,34
295,30,25,26,58,110,33,32
167,29,24,24,52,94,34,30
93,28,25,24,52,94,30,29
84,27,24,23,56,96,31,30
89,26,24,23,55,96,32,28
88,25,25,21,54,103,31,28
85,27,27,21,58,110,33,35
83,28,26,20,55,104,35,39
56,27,27,22,56,96,33,63
24,30,27,24,59,115,33,67
23,29,27,26,68,107,33,68
23,29,26,28,68,103,31,67
24,29,24,26,67,104,30,97
26,31,23,26,63,107,31,116
27,28,24,24,66,105,32,116
33,30,23,23,68,106,56,116
44,29,22,21,66,99,79,116
50,26,24,23,68,101,86,90
49,25,25,23,73,96,87,40
49,26,26,24,65,76,95,31
46,26,29,25,61,91,87,32
34,26,31,25,66,95,67,88
25,26,29,27,66,101,58,111
24,27,28,27,61,105,56,119
34,27,29,27,60,106,42,120
58,27,26,28,50,105,35,120
71,27,24,26,52,108,37,87
73,28,25,24,48,101,37,55
73,27,24,24,54,114,45,35
71,27,23,24,59,125,51,29
57,27,23,23,69,122,60,107
50,27,23,24,64,120,79,146
48,26,22,24,74,123,94,147
55,27,24,25,74,109,92,153
52,27,27,26,82,105,95,155
48,27,27,27,75,105,90,118
40,28,27,30,79,105,73,62
38,28,27,30,73,114,51,648
39,27,28,34,79,120,51,973
40,32,28,34,71,133,38,1294
47,36,41,32,74,156,41,1526
50,35,42,33,77,160,44,1729
49,34,43,33,83,155,58,1615
41,34,41,30,76,151,57,1478
40,29,41,30,77,148,56,1247
32,24,29,31,73,117,54,976
22,23,27,30,85,116,54,554
23,24,30,30,90,143,50,526
24,25,31,30,91,157,51,412
28,25,30,30,89,153,52,271
28,27,28,31,89,157,52,145
29,27,27,30,79,154,48,75
32,27,26,30,69,132,40,47
33,29,27,32,82,149,42,49
60,67,58,42,133,337,51,559
93,79,68,46,151,406,83,1046
200,102,86,50,181,493,113,1153
220,106,87,51,191,509,165,1483
503,107,88,51,188,519,167,1635
828,91,74,44,171,430,167,1554
832,82,67,41,165,370,154,1329
976,51,42,37,139,270,133,1281
1071,45,39,36,137,246,60,898
976,40,37,33,133,211,54,586
731,34,32,32,118,195,43,543
727,32,28,30,109,184,39,403
498,32,30,31,102,151,48,227
213,34,32,34,92,147,49,127
191,37,32,33,102,163,46,73
139,36,30,34,110,184,46,47
185,34,30,38,111,198,53,38
176,35,29,37,113,208,55,37
172,32,28,35,118,216,57,37
175,30,29,37,111,213,58,35
177,32,32,37,102,190,58,38
119,30,33,35,108,199,55,38
100,29,32,33,112,192,64,144
214,129,108,57,230,624,61,632
348,174,148,71,266,832,66,987
458,197,166,77,299,1005,87,1084
459,199,169,79,300,1014,89,1100
457,200,170,80,302,1021,78,1358
419,156,135,65,220,829,79,1489
319,103,88,50,183,622,75,1381
139,44,45,39,118,264,54,1592
129,33,32,32,107,207,51,1698
127,30,28,34,89,155,50,1511
118,30,26,33,91,148,54,1240
100,27,28,33,74,125,60,1130
52,28,29,30,71,113,66,667
135,30,29,31,84,152,68,252
157,31,31,32,88,166,78,119
158,31,29,35,85,158,77,163
168,30,26,34,86,157,72,166
363,31,27,35,89,159,62,166
422,30,28,34,94,173,62,167
499,27,25,30,99,178,59,147
556,27,24,25,101,179,54,60
781,34,30,27,106,212,58,44
875,69,35,31,105,231,59,60
922,80,44,32,97,238,55,72
1106,92,43,32,92,233,46,73
1339,93,44,34,95,238,50,70
1252,93,42,35,91,209,44,77
1252,71,38,32,98,194,54,70
1270,61,27,29,91,137,56,56
1106,42,29,31,93,121,56,63
782,41,29,34,90,123,57,104
733,35,29,33,92,141,60,100
531,33,28,31,84,130,52,96
297,30,29,31,82,135,48,96
163,28,28,32,79,143,48,89
93,29,30,31,82,135,44,34
64,27,27,28,85,129,45,35
33,27,29,30,88,153,48,36
33,27,28,32,90,154,47,35
20,27,28,30,94,149,48,37
19,27,28,29,89,146,45,35
17,28,31,32,78,125,40,32
20,29,31,30,75,102,35,31
22,28,30,28,74,95,36,34
22,30,29,28,63,109,41,31
575,35,30,30,71,128,50,32
1025,45,31,28,75,150,58,37
1231,47,35,29,78,170,77,38
1354,78,45,31,90,219,86,56
1633,88,45,31,94,225,82,58
1588,86,45,29,81,216,79,59
1387,81,43,31,90,213,74,56
1274,81,40,29,87,197,53,55
1174,54,29,26,84,149,36,35
754,33,29,26,76,135,36,34
622,32,28,27,79,136,37,36
515,31,29,26,80,121,35,37
325,27,27,28,96,148,38,37
173,26,29,28,90,141,38,35
97,25,29,30,95,143,39,38
61,26,27,28,95,148,41,90
44,25,25,26,96,162,45,102
40,26,27,27,79,136,46,127
75,24,26,26,75,136,43,128
73,25,26,24,71,134,45,129
131,25,27,25,69,131,41,100
135,28,28,26,56,118,37,90
156,29,26,27,56,129,37,52
144,29,25,27,62,128,39,55
144,30,24,27,61,116,36,50
94,32,25,29,57,110,38,47
90,30,24,27,51,94,58,42
53,28,25,26,61,93,73,36
53,31,25,27,62,99,100,30
97,30,24,26,61,117,109,34
116,27,21,24,71,137,111,34
116,29,22,28,76,143,112,32
112,28,25,26,66,133,107,38
109,27,27,25,60,123,238,42
198,26,28,29,99,159,340,41
367,27,29,29,97,139,348,41
582,24,29,27,96,144,347,44
584,24,25,29,98,147,347,65
590,23,23,30,103,152,268,65
571,24,24,28,75,112,110,63
480,23,25,28,69,114,73,64
163,25,26,28,69,112,67,66
158,25,27,28,70,124,57,42
132,25,30,28,68,130,48,37
96,23,29,26,64,125,41,40
111,24,27,25,66,134,48,42
274,24,26,26,63,127,48,37
737,27,26,25,58,112,54,36
898,27,23,26,74,106,56,53
1003,26,22,27,73,98,56,132
1012,26,22,29,77,97,52,151
1036,28,24,30,82,125,49,152
816,28,24,32,89,141,44,154
639,30,27,30,83,144,39,152
455,33,26,30,84,149,38,91
429,46,28,30,83,143,37,52
275,56,29,29,83,120,38,51
122,68,29,29,81,105,34,50
97,68,27,28,70,98,35,51
95,68,27,28,71,100,35,73
84,65,26,28,73,113,34,81
56,57,24,27,69,112,37,156
40,44,26,25,66,112,40,204
33,44,25,26,75,120,44,283
30,43,26,25,78,118,67,414
54,71,56,27,103,319,90,759
81,75,75,38,118,416,87,936
88,76,75,39,121,418,87,1298
88,76,76,39,117,419,87,1453
88,93,77,39,119,425,77,1457
73,76,58,37,93,304,54,1415
43,70,30,25,98,171,57,1367
22,68,30,25,98,163,64,1093
24,66,29,26,105,170,64,967
26,40,29,27,102,156,67,935
26,31,28,30,104,148,94,773
25,31,28,29,84,129,110,673
24,31,26,30,76,130,113,575
23,30,24,30,68,109,121,438
41,28,24,29,60,99,118,495
46,27,24,27,63,99,96,530
47,49,25,26,55,82,79,504
49,69,26,27,58,84,75,477
50,70,30,33,72,101,68,414
34,70,30,32,75,102,67,313
30,69,32,30,70,99,66,262
63,56,31,32,77,100,73,312
150,27,34,32,77,98,68,332
167,27,34,27,62,106,61,315
168,26,33,28,60,113,60,279
170,28,33,31,60,114,68,245
162,28,33,29,61,125,76,163
118,72,68,39,113,386,90,109
137,102,91,45,157,532,89,97
143,103,91,45,157,537,112,575
141,103,91,45,158,546,130,1023
138,102,90,47,161,555,124,1063
112,77,67,37,129,418,115,1119
50,25,29,29,69,189,117,1289
19,23,27,28,69,176,93,1316
18,24,28,29,73,148,68,1029
17,24,29,26,62,107,66,1001
20,22,28,28,67,111,81,976
31,25,24,27,72,116,86,782
33,27,23,28,76,117,88,475
34,24,24,26,75,126,159,533
35,27,23,28,75,129,191,524
33,28,24,26,68,119,186,504
25,25,24,26,66,113,182,436
25,23,24,28,79,125,183,434
23,25,23,29,76,114,122,307
22,24,26,26,75,108,50,271
23,24,25,27,75,112,48,138
22,26,26,26,77,123,44,120
20,28,27,25,61,103,39,107
21,29,27,24,62,107,37,68
19,29,26,28,69,113,40,68
19,30,28,27,71,113,40,71
19,29,26,27,70,107,43,81
20,27,26,25,71,121,46,99
21,26,25,23,71,121,50,98
21,23,27,21,66,116,67,93
