62,205,164,199,158,46,24,22
70,251,177,208,158,48,25,25
66,249,174,179,140,47,24,26
75,235,177,190,135,51,25,28
70,221,200,177,118,46,23,27
70,197,185,165,120,45,24,27
62,138,180,171,121,43,22,26
64,147,206,165,124,47,24,26
60,168,230,167,121,45,24,24
63,191,213,166,122,48,23,24
74,199,223,192,117,52,24,24
77,193,219,206,125,52,25,27
76,185,227,200,116,49,24,27
77,179,199,200,127,51,25,33
74,149,188,194,126,46,26,33
59,146,198,172,122,40,25,31
59,170,224,155,115,38,23,27
63,212,246,178,118,45,25,31
61,227,251,177,115,44,26,26
58,231,287,178,121,49,27,28
61,232,269,180,119,49,27,29
57,224,253,172,128,52,30,30
71,198,209,169,128,52,30,30
66,173,250,154,120,50,27,29
70,178,214,160,109,47,27,28
66,166,202,148,118,46,26,27
65,174,206,148,110,43,25,26
50,168,214,155,118,37,24,23
54,155,154,183,125,35,23,23
50,193,154,184,145,36,22,19
71,222,167,203,143,37,22,21
73,218,170,206,144,39,20,23
73,218,153,229,152,45,22,30
70,218,189,211,149,58,25,32
73,200,189,209,129,58,26,35
58,193,183,214,139,60,24,34
61,212,174,221,149,67,28,35
62,216,199,185,137,66,26,30
65,220,164,189,138,55,26,27
64,201,169,191,144,52,25,24
59,184,174,164,120,51,26,24
63,165,205,163,114,61,26,23
64,147,193,174,130,67,26,22
63,145,203,174,157,66,25,26
65,148,212,198,175,67,26,25
63,151,218,207,183,70,25,26
61,140,196,207,178,69,23,25
58,169,203,198,166,61,23,25
52,166,211,187,134,66,24,24
46,164,191,202,113,66,24,24
59,179,217,205,116,65,26,24
61,190,243,192,116,48,26,25
62,170,226,196,114,48,26,26
65,172,216,204,123,45,26,25
68,169,215,154,131,45,25,25
63,170,211,192,134,45,25,26
56,163,174,204,130,47,26,24
58,199,174,199,132,48,24,24
66,241,186,211,158,48,26,28
65,248,201,240,171,51,27,27
70,240,166,218,174,51,26,26
68,239,150,208,179,49,25,24
73,230,152,201,174,48,26,27
64,207,155,204,160,44,24,22
65,219,199,189,147,39,22,22
55,212,204,197,164,46,23,23
55,203,213,216,184,49,25,25
62,200,258,218,184,49,25,23
65,177,248,209,171,53,26,23
65,150,204,206,170,60,26,24
64,144,208,187,146,57,25,23
74,151,208,164,111,53,23,24
61,149,177,164,107,52,22,22
61,148,180,169,124,48,19,25
64,154,185,176,108,44,19,23
67,165,192,210,152,43,18,24
56,176,201,208,159,41,20,22
66,151,199,215,166,42,19,23
63,172,273,245,178,46,22,22
62,198,308,231,183,47,26,24
59,203,307,201,148,46,27,23
61,195,311,209,144,46,28,23
49,199,314,223,165,47,29,25
54,202,267,206,151,52,28,24
49,173,235,205,145,48,26,23
55,173,241,191,143,51,26,26
57,191,236,196,142,53,23,26
59,199,229,174,114,55,24,24
60,182,232,134,109,51,24,24
67,184,241,134,136,56,26,24
64,181,234,149,137,51,24,23
59,152,220,155,151,54,27,23
60,137,212,170,158,54,27,24
60,213,218,192,153,59,27,27
59,232,199,213,141,58,25,27
55,227,188,205,143,60,26,26
76,256,219,197,140,61,27,28
75,264,216,190,130,64,26,28
75,218,192,167,131,57,24,26
75,204,183,148,119,54,25,26
79,223,183,153,129,53,26,31
62,199,196,152,124,67,26,29
61,196,209,171,124,65,25,29
56,205,232,167,126,66,28,30
50,198,266,168,141,68,28,31
55,187,273,166,137,79,27,27
54,184,248,159,134,65,26,26
51,175,301,149,163,63,28,25
59,177,275,194,178,64,27,26
59,188,253,186,170,65,26,26
55,184,270,187,177,47,25,26
54,191,264,192,174,47,25,28
55,203,198,181,145,50,25,29
45,178,208,170,134,46,26,27
46,180,217,168,136,51,26,25
47,178,226,170,115,54,26,23
54,176,240,174,117,51,25,20
70,167,238,177,123,50,23,22
81,185,239,149,111,52,21,23
88,200,237,175,114,48,19,22
86,217,212,184,110,51,22,28
94,258,232,171,115,55,23,30
99,260,243,157,116,55,24,27
93,251,234,155,120,54,26,27
86,245,222,166,145,55,26,27
87,230,256,161,148,51,24,25
80,193,252,163,140,48,26,25
71,190,266,193,148,45,25,26
75,207,262,195,152,42,24,26
74,183,265,168,126,47,25,27
82,204,232,214,172,48,26,28
105,226,219,232,176,49,26,29
107,233,194,208,164,57,28,30
106,214,203,205,174,63,30,29
106,221,218,224,185,59,31,30
101,202,202,179,149,58,31,25
73,161,182,172,176,64,28,23
63,198,240,190,182,60,27,20
57,199,246,186,165,59,26,21
60,201,231,170,152,57,28,23
64,216,272,165,155,61,28,26
67,230,345,185,119,58,29,28
64,201,309,176,127,55,28,28
70,230,306,185,134,51,30,30
68,224,325,196,143,49,27,28
70,209,295,196,138,57,26,29
63,199,206,179,161,56,27,27
72,200,213,214,171,61,29,27
65,159,203,215,184,62,29,27
73,193,185,205,178,60,32,30
64,207,243,210,174,56,32,29
69,204,247,211,159,56,34,33
60,191,237,170,142,55,33,33
64,190,258,164,117,55,31,31
59,166,251,159,106,57,27,30
65,163,197,175,138,52,27,27
68,175,233,174,176,56,25,26
69,177,235,179,175,54,23,24
74,215,212,179,180,66,26,31
76,232,215,188,187,67,29,33
70,216,231,167,176,66,28,34
75,221,218,191,148,65,29,34
79,232,215,199,148,65,29,35
72,205,222,208,155,53,29,28
71,199,244,200,147,55,26,25
78,214,233,201,136,54,26,25
64,203,218,168,119,54,26,23
61,206,236,159,121,54,28,26
63,216,244,154,117,53,26,28
61,200,216,165,121,48,25,28
57,208,238,167,122,49,25,27
57,194,228,168,119,42,23,27
54,172,209,170,124,44,20,24
55,150,195,189,116,44,23,26
55,150,221,196,142,46,26,28
63,137,232,213,145,47,27,28
70,166,236,216,151,56,30,32
71,180,252,208,147,53,29,32
74,193,254,190,181,56,29,32
72,192,242,168,161,55,27,30
65,189,203,138,166,60,27,30
63,175,213,157,169,58,28,28
72,175,216,158,168,62,29,29
66,181,239,152,169,62,27,24
74,201,239,232,206,63,29,25
70,195,248,238,199,62,31,25
74,191,241,215,192,55,28,26
66,204,243,214,195,53,28,26
66,207,252,233,172,52,30,27
60,199,257,184,121,54,29,28
71,206,243,177,150,51,28,27
65,223,298,179,157,51,28,26
72,242,277,194,156,48,28,25
72,227,254,167,138,48,26,24
75,226,249,165,164,48,26,25
63,212,245,163,148,47,27,25
73,203,175,178,145,44,30,24
67,163,180,181,143,46,31,24
71,161,210,177,144,48,30,24
69,147,198,172,119,43,28,21
72,152,204,177,118,57,27,26
63,140,201,172,124,65,28,30
60,154,196,161,124,68,28,30
55,161,149,188,132,66,28,31
58,158,166,171,135,67,28,32
61,158,168,181,130,60,27,27
64,166,193,201,125,52,24,25
66,159,197,210,119,47,24,26
73,160,198,198,126,49,25,29
77,181,197,195,121,46,26,31
80,204,194,194,137,49,30,33
79,205,163,168,144,52,31,32
78,205,168,146,145,50,31,32
71,196,162,160,150,56,30,31
66,209,163,156,151,58,31,29
62,201,170,143,137,59,26,26
61,203,171,154,130,63,25,27
71,206,193,187,143,66,25,28
80,252,192,166,120,61,23,25
82,234,210,174,130,63,21,27
89,230,202,204,155,55,21,31
88,228,227,209,168,50,26,32
87,216,205,187,162,48,25,30
83,193,262,189,164,48,27,31
83,213,257,189,157,54,26,29
83,208,257,147,144,56,28,30
91,207,254,152,131,54,24,29
84,202,253,157,136,57,25,28
86,186,195,168,143,57,25,28
82,156,165,190,162,48,26,28
79,158,165,196,146,59,27,25
70,179,222,244,200,60,27,24
72,191,223,265,215,59,28,25
64,181,238,260,221,60,28,23
60,176,262,255,211,60,28,23
52,168,298,306,245,58,27,23
58,189,245,264,202,61,29,24
61,191,256,257,185,59,30,25
63,189,268,250,176,58,31,29
67,213,255,232,168,61,30,29
73,248,225,163,124,58,29,29
68,224,267,172,118,55,28,30
69,239,254,144,109,55,26,28
73,241,227,148,103,59,23,26
69,226,234,150,102,60,25,26
67,220,221,213,102,59,25,26
71,230,185,198,112,60,26,29
70,229,176,198,117,64,26,29
73,230,177,214,128,61,27,29
74,229,171,216,126,57,26,28
75,209,167,160,131,52,27,29
77,186,183,158,121,48,26,27
73,157,193,155,123,51,26,29
70,156,191,143,117,53,26,28
85,184,179,145,119,50,26,30
81,172,190,185,114,53,25,28
79,173,241,197,129,57,25,28
105,229,259,202,138,51,25,28
106,231,269,192,145,48,25,29
95,213,288,201,154,58,25,27
92,211,296,148,143,54,24,27
91,205,231,143,126,50,24,25
69,188,284,141,112,53,25,25
60,198,292,145,132,56,25,24
58,191,283,139,132,48,24,24
62,194,288,135,131,55,26,24
83,230,288,152,164,57,26,25
77,191,229,139,160,61,26,25
79,175,232,144,132,57,25,25
82,190,251,160,151,57,27,25
88,239,242,165,164,53,29,25
63,222,261,163,143,53,28,25
66,256,303,190,158,54,28,25
66,269,293,199,167,54,29,28
65,257,264,181,144,54,29,27
60,217,253,189,142,59,27,29
69,243,249,205,160,62,29,30
78,206,230,205,172,65,30,30
78,197,231,196,170,66,28,28
80,200,235,195,171,72,26,28
89,286,289,185,165,67,25,27
89,271,279,145,153,64,23,28
83,292,248,139,146,58,19,23
87,289,269,134,138,61,20,26
87,310,334,155,134,53,25,32
77,231,295,168,135,54,28,34
90,220,313,165,128,60,32,37
84,213,325,160,124,57,34,38
79,231,302,158,126,68,35,37
74,200,228,138,124,68,34,31
75,207,232,153,118,67,32,30
63,210,210,168,149,63,29,24
65,199,173,153,134,61,28,23
64,176,209,159,140,58,28,26
74,185,213,169,143,57,29,30
70,188,212,154,181,60,28,29
76,180,199,158,160,61,28,29
74,171,210,168,163,62,28,30
74,178,219,181,163,52,28,30
70,188,211,172,163,60,27,26
70,199,207,169,123,57,26,27
55,216,274,190,137,54,26,26
58,221,293,190,140,53,27,26
62,233,262,181,150,60,34,29
65,224,320,202,155,51,35,32
84,227,313,195,171,52,36,32
86,212,260,160,157,55,35,33
88,223,246,167,148,55,32,32
89,231,284,181,137,58,25,28
94,233,223,157,139,60,22,24
83,217,232,178,134,60,20,24
83,215,246,197,133,57,21,23
81,213,279,180,144,56,24,23
81,191,252,161,140,45,24,23
71,188,274,201,153,42,24,22
65,219,274,196,148,50,24,22
63,233,283,175,148,47,26,23
61,217,243,182,135,50,24,21
60,216,226,176,153,56,23,23
53,215,196,140,145,63,23,23
56,204,253,157,145,58,25,25
58,190,232,154,140,59,22,24
57,202,242,164,144,57,24,28
55,196,241,184,142,57,28,29
71,214,278,180,127,54,28,33
70,200,227,184,141,56,29,33
74,195,245,189,155,57,32,36
75,190,247,189,150,57,30,33
83,212,264,185,136,57,29,32
72,192,232,185,159,56,29,30
76,210,223,147,138,55,27,29
69,210,204,141,130,54,26,28
70,224,215,207,172,60,26,30
58,208,189,198,191,65,25,27
61,220,204,215,182,63,25,28
54,207,215,229,186,61,24,27
59,259,204,230,182,62,22,25
71,260,191,195,149,58,23,22
77,268,202,193,125,47,22,22
80,264,185,173,106,48,21,22
82,269,178,197,106,48,21,22
81,228,206,211,119,54,27,29
68,228,213,182,135,53,27,31
68,211,214,200,131,55,29,32
64,208,218,207,144,52,30,31
64,206,222,184,138,57,29,31
64,239,254,171,128,53,25,27
71,239,253,205,164,65,26,26
65,237,250,196,163,60,26,24
66,242,271,207,153,60,26,27
63,236,270,216,154,60,27,26
64,214,232,213,150,61,25,27
59,194,215,187,97,44,22,26
67,194,213,180,99,46,25,30
68,195,180,159,107,45,26,30
74,185,184,156,108,54,30,33
66,154,167,174,108,60,31,31
74,166,162,165,128,63,31,31
79,185,223,182,148,65,30,32
81,169,261,194,152,65,29,31
77,175,257,184,162,57,25,29
90,187,274,196,168,58,26,30
87,197,279,214,180,64,28,32
82,207,234,202,166,66,27,31
79,211,181,190,169,72,26,29
78,215,196,178,164,77,26,28
64,210,186,161,157,70,26,26
57,208,168,135,113,61,24,24
69,260,198,126,106,55,26,22
68,256,215,143,95,52,27,22
73,245,201,208,155,50,28,24
82,256,197,244,154,50,28,25
105,296,282,261,165,53,30,28
93,230,265,262,166,52,29,27
92,231,262,254,163,49,28,27
92,249,255,210,106,44,28,27
87,260,265,163,115,45,30,27
62,210,204,129,107,45,28,24
61,223,200,156,105,55,27,23
63,229,189,165,98,61,28,22
64,236,228,156,102,59,28,24
62,213,263,176,111,61,30,25
69,227,244,205,114,60,30,27
70,212,246,222,136,61,30,27
75,239,252,222,141,66,29,29
71,220,227,223,134,66,26,26
68,216,173,209,136,65,24,25
55,193,177,196,136,69,25,21
61,211,218,155,115,66,27,22
58,233,233,145,108,59,30,26
73,244,246,164,152,63,31,28
78,252,241,157,150,67,29,28
78,252,242,165,145,71,28,29
73,256,197,162,148,71,26,29
74,221,223,171,155,68,24,26
69,224,206,152,118,67,23,25
65,209,206,167,110,69,36,25
65,204,197,151,125,61,41,30
71,255,207,157,131,56,51,34
68,254,213,147,126,55,53,36
64,235,210,155,120,63,53,37
63,244,206,211,160,55,47,37
61,258,250,214,153,54,42,34
58,199,252,215,157,58,30,30
70,233,219,213,157,58,28,28
74,251,220,208,159,46,27,26
77,261,233,174,120,46,25,25
78,264,243,175,114,51,25,25
73,262,253,163,99,48,24,22
65,235,255,180,105,54,23,30
71,231,263,196,103,67,22,31
69,217,255,182,101,66,22,33
68,195,198,191,101,63,23,33
74,217,206,192,103,63,24,33
70,197,193,192,141,76,23,26
57,213,180,185,151,73,39,26
62,217,208,165,148,72,43,25
72,227,223,145,145,72,44,25
69,213,204,171,166,71,44,26
69,216,224,160,134,63,46,26
75,192,263,143,121,57,37,28
73,196,267,158,137,56,33,27
75,188,256,175,145,58,31,27
83,166,248,147,120,59,31,27
83,168,222,150,121,50,28,27
78,192,260,167,164,57,26,22
83,224,255,155,162,65,25,26
72,229,255,145,158,66,23,25
67,239,256,146,161,67,25,25
70,244,267,193,171,69,26,25
81,241,185,199,150,61,29,29
78,200,135,205,143,59,29,26
76,205,150,203,141,61,30,27
75,209,185,224,149,64,30,29
78,244,203,197,145,59,29,31
71,219,226,198,164,63,27,29
73,222,233,189,158,57,29,27
73,215,223,198,161,50,29,27
71,227,237,199,172,55,30,31
68,186,209,180,158,58,31,29
69,184,184,161,120,52,36,29
66,188,187,166,113,52,33,29
74,211,218,170,137,57,34,30
72,188,172,157,117,54,33,28
76,193,187,164,124,52,31,29
66,190,184,161,126,54,24,28
66,199,194,163,130,57,31,29
58,188,184,161,118,53,29,28
58,191,191,152,125,47,32,28
53,181,188,160,130,66,34,28
60,200,189,171,137,67,33,28
65,207,205,175,140,64,27,30
64,188,213,180,174,67,29,30
68,221,212,197,172,72,31,30
63,233,210,188,175,64,28,30
58,232,222,188,169,64,31,28
56,239,264,180,168,69,35,27
55,240,246,153,126,66,36,26
54,227,252,127,114,62,32,23
66,241,249,120,122,60,32,26
66,230,267,137,135,57,30,28
62,230,201,142,132,51,25,27
67,244,204,146,134,51,23,28
86,253,203,158,150,56,25,29
80,224,214,181,148,46,24,28
88,233,189,167,133,47,23,28
101,209,200,167,142,51,23,26
101,199,197,173,144,51,21,28
89,167,181,184,165,55,23,25
87,161,181,166,161,55,23,22
80,150,224,169,161,54,23,22
65,178,225,176,157,54,24,23
72,181,225,170,151,67,24,20
79,241,277,154,137,59,22,23
78,258,261,156,139,68,24,25
76,260,233,159,146,78,24,25
70,238,239,160,155,76,23,26
66,244,270,162,154,61,23,28
60,208,228,165,126,62,25,28
61,200,233,167,114,57,28,27
64,198,224,169,121,51,31,26
69,199,209,160,102,55,30,26
63,183,164,174,115,57,30,27
53,163,173,166,135,57,28,28
59,155,168,168,137,63,25,28
72,179,192,152,127,58,23,29
77,201,192,161,124,54,26,32
89,214,185,150,122,57,27,31
96,207,183,146,123,58,27,28
94,236,209,163,146,53,28,30
86,221,196,163,145,55,27,30
82,204,195,151,152,57,26,27
71,212,215,156,155,54,26,28
59,219,200,176,140,52,27,28
74,195,183,153,114,50,29,30
71,190,194,157,117,47,29,29
68,205,201,157,118,45,29,28
68,240,242,148,111,44,27,26
70,252,256,130,125,50,28,29
53,246,287,144,129,46,25,25
54,257,274,148,128,49,25,27
55,239,268,145,124,49,26,28
62,188,229,157,122,51,27,28
61,179,213,171,114,50,27,29
67,187,165,161,108,53,27,31
65,176,156,150,106,61,25,31
60,184,195,168,104,61,26,31
57,200,186,153,114,63,27,31
73,199,188,142,103,70,32,32
73,232,220,160,111,124,36,34
76,243,236,160,109,125,39,31
77,253,222,154,120,131,41,31
76,242,264,169,120,132,41,30
65,251,279,161,131,130,38,26
66,211,260,152,137,82,33,23
61,200,256,163,145,73,30,23
62,221,248,153,133,62,28,24
61,229,214,162,130,57,26,27
61,243,190,171,133,68,23,26
53,245,188,161,122,64,24,25
58,241,212,161,112,63,25,26
62,240,212,172,157,65,26,27
61,232,224,147,160,64,26,25
64,195,225,156,161,58,26,23
69,249,227,167,161,56,27,25
75,267,204,181,164,63,27,25
73,238,208,199,133,58,25,24
77,237,194,208,143,69,25,24
89,242,191,202,154,61,27,27
88,216,181,214,169,60,25,25
85,209,193,202,169,54,26,27
83,229,185,170,162,73,25,26
81,242,200,188,153,64,25,25
77,251,206,173,136,65,26,30
79,227,218,145,132,66,29,43
77,214,233,174,164,75,28,44
78,203,228,191,174,67,29,47
75,205,229,177,165,69,30,51
67,186,224,183,160,68,29,49
60,190,208,197,153,70,29,38
60,210,172,169,112,65,29,37
65,210,214,178,125,65,43,38
69,208,199,199,140,68,54,52
57,223,206,204,153,65,60,52
56,229,216,221,174,74,59,52
55,329,235,214,181,80,75,57
48,333,198,198,166,75,71,55
53,321,215,173,156,73,63,39
70,336,257,165,153,75,56,38
78,361,265,131,118,62,57,40
77,262,241,138,126,58,35,33
80,265,249,137,123,59,30,35
88,286,227,145,131,66,32,33
75,262,188,152,127,71,38,32
68,237,160,138,130,75,39,30
65,249,171,199,131,69,39,29
64,242,167,204,142,69,40,28
53,239,161,193,131,60,38,29
53,229,145,184,126,59,33,30
50,213,204,235,138,64,29,29
53,198,200,196,127,67,30,29
60,193,185,192,120,67,30,26
67,158,180,198,119,70,32,32
72,178,189,231,146,65,31,35
77,186,164,197,141,57,33,35
79,206,164,211,136,52,31,34
78,210,170,219,149,55,34,37
71,225,179,225,172,54,34,39
71,233,187,204,150,60,34,37
68,238,160,186,142,63,33,39
81,252,195,163,139,64,35,56
82,242,208,161,124,59,31,55
81,236,248,185,110,73,30,50
78,231,284,192,128,73,35,56
85,231,290,192,125,74,34,55
79,203,281,185,125,72,31,41
73,208,272,170,118,72,29,41
77,230,244,120,95,51,30,44
83,240,213,77,55,41,23,40
78,233,210,79,52,38,31,42
73,256,194,76,48,45,34,39
78,270,268,79,42,44,34,39
71,252,257,83,48,45,32,40
65,231,236,96,59,44,34,36
81,239,242,102,62,40,30,36
76,233,278,99,66,41,26,44
78,230,207,93,68,44,26,49
79,230,235,83,59,42,27,47
77,257,255,79,69,45,31,48
63,247,255,108,84,45,29,48
84,253,211,124,87,37,31,49
81,250,219,123,87,49,32,44
98,269,193,122,87,50,32,43
107,250,185,118,72,49,28,45
105,249,167,85,57,50,28,48
99,217,194,63,51,51,26,42
98,211,187,62,50,38,25,48
84,208,191,61,48,36,26,47
72,239,183,59,48,37,23,46
72,253,197,54,37,46,22,40
59,252,171,48,36,46,23,51
67,279,187,47,33,48,23,50
74,271,198,51,36,49,22,51
78,278,199,49,36,47,23,51
82,274,184,50,35,41,23,52
90,300,198,56,31,42,23,44
86,271,198,57,33,49,25,48
79,254,187,70,36,47,24,50
74,228,230,75,41,49,26,50
69,253,232,73,41,44,27,52
69,262,215,67,40,41,26,47
67,256,201,68,40,40,26,40
75,275,195,54,36,41,27,40
83,276,146,46,28,41,26,41
80,244,158,46,30,48,28,37
74,218,177,49,29,48,27,38
80,234,170,46,28,40,23,35
85,243,213,45,27,43,25,37
83,257,192,46,24,43,28,47
84,250,180,45,28,41,26,55
83,248,171,45,30,40,29,54
85,242,183,53,32,40,30,53
71,221,124,58,32,38,28,55
74,186,123,57,34,40,23,48
79,185,134,58,30,34,23,37
85,200,143,57,31,35,21,38
84,233,140,52,30,33,21,41
84,235,148,45,30,32,20,36
75,237,173,44,27,38,22,33
74,249,164,40,26,38,21,35
65,227,147,39,26,41,21,37
54,183,156,39,24,42,22,34
58,177,149,37,23,42,24,29
70,191,132,35,24,32,23,29
74,222,171,37,26,32,24,30
78,239,174,34,24,27,26,26
85,243,154,31,25,24,25,29
86,260,167,36,26,20,28,31
82,273,160,38,25,19,26,31
78,238,148,35,23,20,26,28
72,213,162,38,27,21,24,28
63,211,163,36,28,23,23,32
75,243,162,40,29,24,21,34
85,240,179,41,29,25,21,35
84,237,187,47,31,25,21,37
86,242,180,45,29,25,20,38
85,251,192,45,26,23,20,31
78,207,218,41,25,23,18,26
62,176,201,37,28,23,19,27
71,177,177,31,26,24,20,25
73,188,187,30,25,24,21,25
75,226,224,37,28,23,23,27
82,226,215,36,28,23,23,29
81,222,217,36,26,24,23,27
77,239,215,38,28,23,20,27
79,239,226,43,31,21,23,30
77,194,180,41,30,22,23,29
76,199,157,39,29,20,22,28
80,283,199,45,31,20,23,28
81,293,198,43,29,21,28,39
76,298,172,45,26,22,26,37
80,304,186,47,26,21,25,38
68,308,191,47,28,24,25,36
65,274,168,42,26,22,24,37
62,261,186,44,27,22,21,26
62,284,236,40,27,21,22,32
67,297,246,41,27,23,24,35
68,305,239,42,26,21,23,37
68,283,225,43,25,23,24,37
67,270,220,41,24,23,22,43
79,236,181,41,24,24,22,40
71,210,167,38,23,24,17,37
69,179,170,34,25,25,19,35
66,206,208,34,26,24,17,35
62,216,193,33,28,23,18,25
55,208,188,31,27,24,19,28
71,209,187,27,28,22,21,28
73,215,181,32,27,24,21,29
74,204,132,33,27,27,22,29
74,222,135,43,27,27,22,32
72,252,164,61,32,26,21,32
56,263,156,66,31,26,18,33
50,272,190,73,31,24,21,32
57,264,206,74,30,21,22,33
58,254,210,69,28,21,22,29
53,225,186,57,23,20,24,26
57,228,222,57,33,25,25,27
62,223,204,59,43,26,23,28
54,233,194,69,50,30,22,38
51,216,197,68,51,33,22,40
53,229,210,73,53,35,21,41
55,212,178,70,49,33,22,41
53,194,185,63,47,35,21,42
54,170,179,56,43,35,22,31
56,171,171,66,50,32,22,29
60,180,149,60,51,34,21,27
60,207,144,80,52,38,19,25
66,224,139,94,64,41,19,26
69,261,149,94,64,41,19,35
75,302,152,90,60,40,21,36
71,288,167,90,58,39,21,38
73,326,157,74,58,37,23,44
73,320,149,61,38,42,24,44
69,301,167,79,67,43,23,39
66,288,208,82,74,46,23,42
71,286,219,96,74,47,24,48
71,217,249,98,76,54,24,46
63,207,253,101,83,48,24,43
67,195,244,95,81,47,26,46
62,166,209,91,75,47,27,49
60,194,213,83,77,48,25,47
68,224,187,82,75,38,25,51
67,237,174,75,67,46,25,62
64,228,164,59,41,49,26,62
65,240,245,66,42,48,25,57
68,274,236,55,38,51,27,57
53,247,228,54,39,51,28,57
53,234,241,52,42,48,26,53
49,237,244,56,47,43,23,55
53,226,165,51,44,42,26,62
58,236,203,60,49,39,26,61
55,240,227,62,49,45,26,57
58,268,223,68,50,48,26,59
58,270,219,66,49,57,28,55
56,293,222,63,50,57,27,48
42,242,197,54,45,55,25,43
45,244,172,45,41,52,26,42
45,238,165,35,35,46,27,28
46,240,167,32,30,34,24,27
50,227,161,32,27,39,24,26
55,242,116,34,27,40,25,24
57,286,154,33,28,39,22,23
56,287,151,36,29,47,23,20
59,293,153,38,28,44,25,24
56,295,199,40,28,39,24,23
51,301,208,41,26,40,23,25
47,292,194,44,25,38,25,27
46,278,207,43,25,29,23,28
43,273,210,43,24,30,23,26
38,253,175,40,23,31,22,26
37,272,186,44,26,24,24,26
35,229,166,40,28,29,21,24
34,227,146,38,27,30,22,24
38,258,191,42,27,28,22,26
42,288,184,43,29,26,22,25
44,282,166,39,28,26,22,24
50,298,168,38,26,21,23,23
51,305,214,39,26,20,23,23
59,304,185,33,25,22,23,24
60,284,185,33,25,30,23,26
61,271,210,36,23,31,20,27
59,290,226,39,24,35,20,27
60,278,184,38,26,34,20,26
53,252,170,40,27,35,21,24
50,246,195,40,26,28,22,24
50,242,214,42,29,33,26,25
49,215,203,40,27,32,26,26
51,223,223,44,25,34,28,28
46,216,218,41,27,35,27,27
45,210,221,43,27,35,26,26
41,243,176,37,24,32,23,23
53,260,171,39,26,30,24,27
50,274,194,35,28,27,21,28
56,313,205,41,25,28,128,107
76,343,203,49,27,29,134,110
83,367,204,50,28,29,137,112
76,359,232,51,29,28,139,118
78,357,200,50,28,29,141,118
87,366,193,44,29,25,67,61
75,361,164,32,26,25,56,63
67,302,199,39,27,22,48,60
67,296,166,37,24,24,42,47
64,284,172,38,25,24,38,47
46,265,168,38,26,25,29,43
44,289,176,40,27,25,26,38
64,318,159,42,27,25,29,38
66,366,169,43,29,24,27,35
73,366,159,45,31,24,26,34
73,344,162,47,29,22,26,36
72,300,164,47,27,23,25,33
56,276,190,46,27,25,20,30
55,214,179,44,25,24,19,30
50,243,181,43,23,23,21,30
48,245,210,46,25,24,22,23
51,257,214,45,25,23,24,22
63,299,196,41,24,21,24,22
62,301,221,44,25,20,24,22
68,347,220,43,23,23,23,22
68,361,198,42,22,22,23,23
68,365,229,42,24,23,21,23
55,337,211,39,23,22,22,23
55,337,210,42,26,27,77,81
45,262,228,41,27,27,84,86
45,236,246,41,27,32,88,92
57,301,251,47,25,32,89,93
56,286,251,49,26,32,90,94
55,268,244,46,25,32,53,55
53,265,225,51,26,29,42,48
56,281,213,55,28,24,35,39
46,200,158,52,28,25,31,41
56,236,218,54,30,25,28,39
56,235,234,57,29,21,24,35
62,258,236,57,29,22,23,33
62,233,222,51,26,20,20,31
57,215,238,50,27,21,20,27
52,173,196,46,26,21,21,28
59,197,157,40,27,22,21,36
55,191,163,37,26,22,21,37
51,215,189,36,26,22,21,36
61,235,178,37,27,19,23,39
60,230,158,39,28,21,21,36
55,215,164,40,25,20,21,28
54,225,187,39,26,20,21,27
56,208,167,37,27,21,20,25
45,195,165,35,28,24,19,24
43,197,184,32,26,23,19,25
42,220,211,33,26,23,17,26
43,206,195,33,29,24,18,28
44,273,197,34,26,24,19,28
56,280,251,37,25,23,20,25
56,284,243,37,26,23,21,24
60,271,223,36,29,23,20,25
57,296,245,42,27,23,22,23
56,238,251,41,25,22,22,23
67,309,208,44,31,21,21,26
66,312,216,46,31,21,21,28
65,306,230,52,30,21,21,28
65,277,199,47,31,20,21,28
64,278,191,48,33,21,23,33
56,199,185,44,30,22,23,30
65,211,176,45,31,22,25,31
66,216,152,41,32,22,25,31
67,220,147,41,29,21,22,30
73,240,164,47,32,20,21,29
71,330,177,47,28,21,21,31
66,346,219,50,26,20,21,30
64,353,230,50,27,18,21,29
64,366,234,52,30,20,21,29
58,353,220,46,26,20,23,27
61,285,230,50,28,18,25,24
60,246,201,45,29,19,23,28
62,242,188,41,26,21,23,28
60,210,194,40,24,20,25,28
61,203,212,39,25,21,23,26
51,223,181,30,22,21,21,25
63,254,161,35,22,20,23,25
60,244,184,37,24,19,24,28
64,256,176,39,24,20,23,28
64,284,156,43,26,18,24,29
63,276,154,44,28,18,23,32
51,255,197,41,27,19,23,31
52,264,199,47,28,21,25,28
54,295,219,46,30,20,25,29
56,287,271,46,32,21,23,32
60,259,279,47,33,23,24,36
59,252,276,55,43,21,22,37
60,253,262,50,44,20,19,50
56,211,241,49,43,19,20,54
59,210,213,47,41,20,20,52
53,196,230,49,40,19,20,51
53,225,215,43,29,19,24,65
49,221,218,42,27,19,25,59
50,263,256,53,31,21,24,57
71,336,229,51,31,20,24,62
73,353,232,55,35,20,27,62
76,333,222,52,33,20,24,53
87,362,221,52,33,21,23,64
94,361,211,52,30,20,28,80
74,292,207,54,28,19,28,83
75,286,190,53,26,22,29,98
77,314,212,55,26,21,28,95
71,300,207,57,28,21,31,102
68,384,289,57,27,20,28,92
69,398,311,57,28,22,29,112
68,400,301,55,27,21,27,116
62,388,301,61,28,21,29,125
71,403,317,60,26,21,29,127
61,302,223,48,25,22,28,127
61,296,206,48,26,23,28,109
71,385,260,50,27,22,27,91
71,397,249,41,25,21,26,80
57,365,248,40,25,21,24,64
60,393,255,43,24,20,24,65
73,396,265,50,25,20,25,63
60,309,262,50,35,20,25,68
59,308,260,59,41,21,23,65
64,320,292,63,43,22,23,65
71,294,286,64,44,21,23,65
60,290,288,62,45,19,24,66
67,327,240,57,37,21,22,61
68,337,269,49,31,22,25,74
72,355,211,46,33,22,26,78
65,361,214,44,32,27,27,81
64,365,228,38,29,28,28,87
58,333,226,40,30,26,26,100
58,340,182,39,31,24,25,95
52,381,204,40,26,26,28,126
69,388,245,54,28,24,47,220
78,485,234,60,38,56,142,242
84,485,269,62,39,69,165,246
84,516,296,65,44,70,166,249
87,573,314,64,50,75,180,243
78,573,293,61,50,75,179,204
67,496,296,57,43,59,122,181
61,503,276,55,41,46,105,183
62,502,309,53,37,52,103,182
57,401,279,54,29,45,80,176
68,453,280,50,34,45,75,137
73,456,260,50,33,39,78,152
74,440,250,49,34,39,73,146
71,404,183,48,34,29,74,146
71,408,207,49,35,29,71,139
55,337,197,46,31,29,70,129
47,321,217,45,33,29,59,102
45,335,235,49,32,28,38,94
58,350,234,51,34,30,38,117
63,406,264,47,34,38,37,129
60,408,260,53,31,37,37,141
61,403,247,51,30,38,36,140
65,422,246,49,29,38,39,156
66,440,253,47,28,36,34,139
58,360,222,49,28,31,33,128
71,367,221,43,27,30,36,145
76,413,248,49,27,29,35,144
77,413,241,46,26,32,58,126
70,359,226,46,26,36,62,124
73,361,244,43,25,33,62,124
62,358,241,42,27,40,62,92
62,328,201,36,29,40,63,102
61,314,188,37,30,43,45,97
59,298,252,39,29,48,47,90
66,416,216,40,29,69,52,90
77,410,207,47,34,68,52,78
70,389,209,47,31,71,50,63
69,398,214,53,30,67,45,62
71,433,134,55,31,62,43,58
68,342,144,54,31,39,35,54
63,351,143,48,25,36,34,66
65,345,143,47,27,32,36,89
67,315,134,41,29,32,38,91
65,273,143,35,27,32,32,93
60,273,176,36,29,29,32,95
62,277,183,33,28,26,30,87
69,300,181,35,29,25,29,67
63,310,183,35,28,24,25,60
66,323,189,40,28,21,24,69
81,305,143,44,28,22,25,66
79,312,138,45,28,21,24,72
78,329,141,44,27,20,25,68
83,340,141,44,28,19,26,69
84,368,115,40,28,20,26,58
73,416,130,35,25,20,23,53
73,409,129,36,27,20,23,39
66,380,180,39,23,20,21,34
60,354,184,38,23,21,19,29
62,339,180,39,25,22,20,28
69,312,167,42,26,23,20,29
66,267,160,39,25,22,20,29
65,260,97,39,27,22,20,28
71,265,81,38,27,22,23,28
80,248,81,41,26,22,23,38
71,189,67,41,26,22,23,38
70,219,70,41,26,22,24,38
71,219,67,40,24,21,24,38
67,203,67,41,25,21,24,38
64,195,97,40,27,21,26,27
64,189,133,37,25,22,25,28
63,199,154,40,25,22,24,28
64,222,158,37,25,22,24,28
70,289,172,42,30,22,23,29
53,277,156,39,29,22,22,28
55,281,131,39,29,21,22,26
57,280,118,37,29,23,21,27
57,264,110,37,29,23,21,27
54,274,90,31,25,25,21,24
58,286,97,34,26,24,20,24
59,287,101,34,25,23,19,25
57,286,87,34,24,22,18,24
60,297,101,33,24,24,18,24
52,264,99,30,24,22,20,24
52,265,94,29,25,21,20,26
56,294,99,35,25,21,21,26
57,294,111,38,28,22,22,27
60,300,101,38,28,20,22,27
62,277,107,40,26,20,19,28
59,275,105,36,22,20,19,28
56,238,99,32,23,22,20,28
55,233,112,29,26,21,22,28
54,225,115,30,28,22,21,30
53,232,109,28,27,23,24,28
60,213,118,28,28,23,25,29
57,313,123,30,29,22,24,29
55,299,101,33,25,23,23,29
52,307,97,36,23,21,24,29
53,295,100,38,25,23,22,30
45,299,88,37,25,23,22,29
43,224,90,39,24,22,20,28
53,263,89,38,26,22,21,27
59,237,92,36,25,22,22,27
66,266,89,35,24,21,22,29
65,272,88,35,23,20,21,27
73,360,90,36,26,21,27,32
70,342,108,48,23,22,26,30
68,358,112,56,34,23,28,28
62,345,110,57,42,23,27,26
64,337,124,63,47,22,29,28
54,262,127,62,46,23,25,24
52,266,122,52,47,22,26,26
47,253,119,43,41,23,21,25
45,243,128,43,34,24,22,24
49,273,116,34,26,23,21,22
50,246,102,30,24,24,22,34
47,276,97,28,23,22,26,46
51,297,104,27,21,21,27,52
61,363,109,38,20,21,30,62
71,399,124,43,21,21,31,64
74,426,129,46,24,19,31,58
77,396,123,45,24,20,27,60
74,388,115,46,26,20,29,65
69,348,163,37,27,21,26,58
59,309,161,34,28,23,26,58
55,266,155,31,27,24,25,58
62,313,156,31,26,23,25,49
61,300,156,32,26,24,22,40
65,285,148,34,27,23,24,41
62,258,142,29,25,24,21,38
62,256,151,34,26,23,22,37
54,205,156,34,25,25,21,39
63,232,155,34,27,24,22,51
54,215,105,33,24,23,19,49
55,248,103,37,26,22,21,50
54,257,126,40,27,24,21,51
52,247,124,42,27,24,21,48
44,227,131,46,25,23,18,33
47,229,130,47,26,24,19,35
49,224,131,45,25,22,19,34
51,217,96,40,25,21,20,35
48,212,90,42,26,19,21,38
45,229,163,55,28,19,24,58
42,231,171,65,32,18,23,57
41,257,184,68,33,20,23,58
45,291,191,67,30,19,22,58
52,298,189,67,28,20,21,57
55,290,152,56,27,20,20,43
61,302,178,44,23,22,21,42
63,261,162,36,22,20,20,38
82,353,166,42,25,20,22,48
80,362,173,39,26,20,23,55
82,362,152,35,26,21,22,46
82,368,134,42,28,21,26,51
79,363,136,43,28,23,27,51
55,241,123,39,26,24,26,56
57,249,138,40,30,24,26,55
59,317,191,43,28,23,27,59
58,305,177,41,26,22,24,62
57,308,184,39,27,20,23,73
56,296,185,38,27,19,22,63
54,277,168,35,22,19,22,63
52,186,110,33,24,18,21,61
52,166,138,27,24,17,20,57
55,153,127,29,25,19,22,60
54,148,131,29,27,19,21,65
54,172,139,31,27,20,22,89
55,251,143,31,28,23,24,114
51,318,160,33,26,27,100,123
52,374,166,34,29,46,175,131
57,406,195,38,31,52,185,135
57,409,199,37,31,52,188,123
49,384,195,34,30,53,190,114
52,373,178,33,32,53,167,118
54,349,194,42,30,37,91,114
49,334,172,40,27,32,70,110
49,335,165,41,29,31,62,110
53,320,170,43,30,27,52,96
50,269,156,44,28,24,42,101
41,251,144,33,26,25,32,94
54,310,149,35,27,22,32,93
62,339,164,39,27,21,34,109
64,347,166,41,27,22,37,111
64,352,166,40,27,22,36,103
65,336,218,45,29,20,33,101
60,276,216,44,30,21,33,110
52,227,200,40,29,23,28,94
53,250,199,35,28,23,25,95
53,266,198,39,28,24,24,92
54,271,122,32,25,24,22,89
52,256,136,35,25,23,22,84
75,413,157,35,26,24,23,80
70,397,147,35,25,24,22,77
80,404,145,34,24,24,24,71
88,437,143,34,26,25,27,66
87,434,163,36,27,27,30,56
69,280,157,34,24,23,63,52
68,343,163,37,27,22,66,56
63,372,181,42,29,22,67,50
52,352,181,43,29,26,68,57
53,356,165,44,27,26,67,57
52,350,159,46,30,26,36,57
57,286,155,49,29,27,32,53
62,270,149,46,28,27,28,51
66,309,163,48,28,23,27,51
74,319,151,43,27,21,26,52
77,318,149,45,25,21,27,56
80,315,145,42,27,18,29,67
77,271,172,48,28,20,30,70
77,218,162,46,27,18,28,77
69,205,152,48,27,20,28,79
71,219,156,48,29,22,29,76
69,261,181,49,27,23,26,77
66,316,164,45,28,23,25,71
63,307,160,47,27,23,24,57
68,306,160,45,28,23,25,53
62,295,151,41,27,20,24,50
57,253,142,43,30,22,26,57
54,209,121,38,27,22,25,60
52,203,121,37,26,23,26,59
44,191,124,35,26,20,26,65
44,196,130,38,25,23,29,68
45,192,152,34,22,22,26,53
42,225,157,32,22,22,26,51
41,229,161,35,23,23,28,56
45,235,155,34,22,25,27,47
54,259,154,33,21,22,25,44
58,301,121,32,22,21,25,43
66,266,163,40,23,21,25,48
68,258,166,40,24,19,21,43
70,254,165,40,26,17,23,64
68,232,165,41,27,20,29,76
71,196,171,47,27,22,30,82
67,176,225,48,26,23,30,83
66,199,231,49,29,25,30,84
67,245,244,54,27,26,29,71
68,250,248,57,27,26,23,56
60,249,239,54,26,25,24,45
61,254,174,59,32,23,24,34
59,278,169,57,30,21,24,46
53,258,151,54,31,21,26,45
53,259,141,49,30,19,25,45
58,298,142,48,31,19,29,75
59,303,99,35,24,21,28,76
63,270,88,34,25,21,28,72
64,254,95,39,24,21,27,72
63,280,135,44,24,21,27,71
63,299,137,43,22,20,22,43
59,309,138,46,24,19,22,41
55,315,143,48,24,20,23,32
63,336,137,43,24,23,26,36
65,312,101,41,26,23,27,36
60,263,128,44,25,23,26,47
57,243,178,44,27,23,26,48
56,227,178,42,25,24,26,49
49,254,182,44,25,20,23,48
44,250,189,43,25,24,22,57
44,220,180,40,25,23,20,44
48,217,159,38,26,23,19,43
59,233,168,38,26,22,19,46
60,200,169,36,27,24,20,45
62,203,205,39,26,21,19,34
60,234,200,40,27,22,21,36
61,270,179,40,27,22,24,42
59,300,169,40,26,23,24,41
59,297,165,40,28,21,24,43
62,296,129,40,27,22,25,42
65,287,126,41,26,23,24,40
68,279,135,43,26,22,22,35
76,275,155,45,27,24,23,33
85,294,188,46,27,28,28,33
83,332,187,46,26,29,32,41
85,343,188,43,27,29,32,42
84,325,180,39,27,55,36,38
77,294,158,39,27,56,40,40
67,262,166,40,26,56,36,37
70,242,153,38,26,58,33,29
69,254,158,39,26,58,34,28
71,294,172,41,29,37,29,30
63,290,210,48,31,34,25,29
64,306,188,51,30,29,25,36
58,293,196,52,30,24,24,36
54,261,204,55,29,24,23,36
56,240,195,57,25,20,23,44
58,256,195,52,23,20,20,43
54,235,196,46,23,20,19,36
56,246,184,41,21,19,20,38
66,313,178,38,25,27,20,37
62,336,182,37,29,78,28,28
68,353,215,51,33,105,50,30
74,379,204,59,45,140,65,32
86,369,212,65,52,149,68,32
80,319,236,75,55,149,70,34
87,291,237,92,59,134,68,34
80,280,187,109,62,116,56,31
79,256,219,112,56,72,40,32
64,254,225,122,63,54,33,29
68,250,197,119,66,54,29,26
67,237,231,111,63,48,28,27
70,252,222,87,59,43,26,29
64,237,193,82,57,42,21,26
69,279,187,62,48,40,24,39
69,297,189,57,41,39,23,41
55,290,161,50,38,36,21,40
75,277,153,49,37,35,25,43
84,280,155,54,40,33,24,46
81,230,166,59,36,31,25,39
78,261,231,61,34,32,25,48
82,278,218,59,31,32,26,49
66,292,225,58,30,32,23,46
63,293,222,49,29,30,24,45
66,312,215,50,30,28,26,50
66,256,143,47,32,24,28,40
74,327,158,49,33,23,28,42
77,332,156,51,34,22,27,42
71,332,154,49,33,21,28,43
69,330,196,47,35,22,24,44
75,348,200,45,38,27,23,44
74,286,188,44,41,28,22,41
67,232,221,45,40,29,22,41
68,227,241,53,43,30,24,38
66,228,205,46,39,29,23,26
59,220,199,46,35,25,24,40
45,205,195,46,33,22,25,41
51,264,202,46,36,25,26,42
52,265,175,37,31,22,23,42
53,252,170,41,30,22,22,45
57,246,169,45,31,23,20,33
61,251,188,46,30,23,20,32
62,204,163,48,28,25,22,33
67,253,185,49,28,29,23,37
66,248,196,48,29,33,24,40
62,248,190,43,28,31,24,41
62,249,190,44,27,32,26,43
60,247,172,48,31,29,27,44
53,204,154,50,32,26,26,41
63,209,137,50,32,23,26,32
63,208,174,53,32,24,26,35
58,239,205,53,31,24,22,37
63,255,199,45,25,24,21,39
62,247,197,41,23,23,20,40
60,251,239,43,23,21,22,42
68,247,221,42,25,22,24,48
67,214,180,42,23,20,24,45
69,217,182,46,25,19,25,41
79,290,207,51,28,21,26,40
84,294,172,48,28,21,26,39
80,296,178,46,28,19,24,31
89,298,182,47,31,22,27,41
87,281,178,41,29,24,25,41
79,224,161,44,27,23,27,41
65,204,147,45,27,23,24,40
72,261,131,49,31,23,28,41
69,257,110,46,30,20,26,39
68,271,111,47,30,20,27,47
70,271,158,44,31,21,24,48
79,313,161,43,32,20,24,49
72,263,173,38,28,21,21,47
71,270,238,38,25,23,21,40
71,266,245,45,28,22,18,33
71,252,215,42,28,24,20,44
66,226,217,42,26,25,21,43
65,225,244,42,25,26,23,43
59,211,186,47,27,26,25,44
54,224,198,40,24,25,24,41
55,217,209,43,26,26,23,29
54,189,218,43,27,25,22,29
55,206,176,42,29,24,21,29
58,198,172,34,27,23,20,36
61,173,206,37,28,24,20,36
59,192,198,33,26,19,22,35
56,196,183,34,26,20,21,37
57,214,182,35,24,21,19,40
51,218,189,39,25,20,19,31
63,230,174,40,23,21,22,36
79,264,163,41,24,21,23,34
80,269,166,40,25,19,23,31
77,243,167,39,25,19,24,29
76,240,197,44,27,19,24,30
66,274,158,41,29,18,21,27
47,222,156,40,29,19,20,31
54,252,187,43,28,21,20,34
58,285,226,44,29,21,21,34
62,281,209,38,29,21,23,33
67,238,218,40,29,22,24,36
63,249,268,45,28,24,22,34
60,228,251,43,27,23,22,32
73,234,229,45,29,25,22,33
72,246,222,44,30,25,24,40
65,230,232,43,29,25,22,37
64,241,196,37,28,23,23,36
64,228,194,44,29,23,26,37
61,223,219,42,31,22,27,36
73,234,211,41,27,22,24,28
77,240,191,39,27,22,25,30
81,226,165,40,28,22,25,37
81,238,161,34,27,22,23,36
75,235,156,37,21,21,21,37
73,240,162,39,22,20,20,41
69,239,155,39,25,21,23,38
77,251,158,40,24,21,23,48
75,237,201,39,25,19,22,48
73,230,167,34,28,20,22,46
69,231,162,32,27,20,22,43
67,228,185,31,25,20,19,44
54,212,215,35,25,20,18,25
59,225,175,41,27,23,18,31
59,220,173,41,23,23,18,32
62,206,220,43,24,24,19,41
68,219,222,45,28,24,19,41
71,222,199,42,26,24,18,42
65,215,209,35,25,23,21,38
64,206,228,41,27,22,22,39
52,226,191,39,28,22,23,42
51,241,170,37,24,20,23,46
56,269,209,40,26,21,25,44
56,270,205,39,25,21,23,44
54,253,197,33,24,21,23,43
59,237,252,39,24,21,21,31
53,206,259,38,25,21,21,25
44,167,224,38,25,25,19,23
45,154,214,39,26,25,21,23
47,160,209,41,27,24,22,24
53,157,137,40,26,25,25,38
60,186,121,41,24,25,25,38
63,194,128,44,27,21,25,39
66,210,143,47,29,21,25,43
72,217,147,45,27,22,22,43
69,229,186,53,30,23,21,33
63,228,188,52,31,21,20,33
68,240,194,54,31,21,23,42
64,239,221,54,28,22,23,40
62,241,210,56,30,21,23,40
58,213,202,46,30,20,22,39
63,238,202,50,31,22,24,41
55,222,203,48,29,20,22,39
61,264,170,47,30,20,25,39
65,270,168,45,30,20,23,38
64,273,132,46,31,21,23,38
61,235,135,47,32,21,23,40
62,231,112,43,33,20,22,36
68,208,155,47,34,20,23,36
66,194,167,56,35,21,26,38
67,195,157,56,33,20,26,37
69,241,157,56,33,20,24,33
69,238,157,55,31,20,24,29
64,233,143,54,34,23,23,33
65,243,136,45,34,23,22,36
69,259,143,43,35,22,22,36
65,220,138,38,33,24,22,36
68,231,137,40,34,24,22,37
65,222,110,40,32,23,20,32
62,243,153,44,30,24,19,24
56,231,160,44,31,24,18,24
58,227,162,47,31,23,19,22
58,214,166,47,33,23,20,35
59,189,159,68,40,23,21,40
52,176,115,95,57,22,21,39
63,240,136,103,62,22,23,40
62,259,136,104,64,21,24,43
59,258,136,107,63,22,21,38
57,267,135,98,57,20,21,34
60,263,135,80,46,21,23,36
47,218,156,78,51,21,21,36
50,221,164,82,58,25,21,35
50,245,161,88,81,24,21,29
48,253,181,184,111,28,22,30
50,241,198,213,125,28,21,38
64,240,192,212,121,28,21,36
65,220,187,212,119,25,23,34
69,252,214,211,107,26,23,35
71,264,198,148,81,21,22,33
70,265,179,97,59,18,21,22
67,260,140,97,60,20,22,33
67,276,154,104,69,19,20,36
65,260,147,116,67,19,20,36
64,237,165,112,72,20,23,38
65,238,163,119,70,21,23,37
60,247,173,117,68,20,21,35
57,236,156,119,66,20,20,33
52,212,132,106,70,21,24,32
55,240,165,88,59,23,22,29
56,266,182,84,59,21,23,31
50,255,174,92,63,22,23,43
66,274,179,82,53,22,24,41
74,280,220,84,61,19,19,43
77,255,180,87,67,19,20,44
73,215,163,96,72,20,22,51
74,225,168,88,72,21,21,37
61,190,164,83,72,22,21,37
54,174,98,83,58,22,21,35
49,180,101,95,57,23,23,34
50,187,179,80,45,24,20,22
64,203,173,77,50,24,24,38
67,210,178,80,55,25,24,38
68,209,177,73,56,25,24,39
67,199,175,50,54,25,24,38
73,236,106,51,55,23,26,40
63,208,114,59,57,26,24,25
61,221,107,63,58,28,23,27
61,226,98,67,58,27,24,36
61,247,100,65,56,29,22,37
56,241,115,81,69,30,20,36
55,249,108,81,64,27,20,35
54,254,110,77,58,26,20,40
48,244,121,82,60,26,20,34
61,261,136,83,61,24,21,34
59,233,173,67,50,25,19,36
55,231,175,71,52,25,20,35
53,207,179,81,51,24,21,28
53,212,217,75,49,26,22,30
43,209,218,80,59,25,24,29
46,219,183,86,64,24,25,27
46,208,192,80,62,22,24,30
55,204,189,70,64,23,28,43
60,199,143,72,63,22,26,41
65,205,136,80,56,22,28,44
69,189,167,73,51,22,30,50
68,185,161,74,48,22,31,51
69,213,169,82,48,22,27,40
75,222,162,81,49,23,28,43
73,254,195,82,53,21,24,39
68,260,179,82,51,22,22,32
68,263,172,86,50,22,22,29
63,256,166,81,47,21,22,30
50,254,173,88,54,20,23,26
42,194,184,80,50,24,23,26
50,215,178,81,45,23,22,25
59,226,193,72,43,23,22,27
60,232,219,70,46,23,22,26
72,233,221,64,49,22,22,41
76,222,176,59,46,21,22,42
74,264,183,60,48,24,24,42
68,261,174,64,48,24,25,42
69,249,146,61,44,26,25,42
62,245,146,73,35,27,23,27
60,259,165,75,43,26,25,28
65,204,150,71,41,24,25,29
83,242,152,75,47,26,23,26
87,239,187,91,66,25,42,33
89,239,188,85,69,29,69,85
98,222,176,85,65,29,73,89
112,253,193,98,68,29,76,96
100,208,226,92,65,27,76,96
98,225,202,84,52,26,68,94
96,229,209,82,52,24,42,55
87,234,228,83,54,24,35,46
61,190,222,78,63,24,28,40
61,214,191,81,66,25,28,39
53,192,188,76,64,26,23,39
51,193,205,80,61,25,24,36
54,188,184,91,59,26,26,37
52,181,173,86,55,26,22,27
51,181,166,96,59,27,23,26
51,224,168,98,58,28,26,27
54,223,122,94,55,28,25,27
46,227,114,78,54,28,24,36
64,257,191,86,54,28,24,36
66,275,221,88,63,25,24,36
64,289,222,103,71,24,20,35
62,298,254,99,70,22,20,35
63,292,260,98,78,21,22,23
43,267,218,94,79,24,22,22
62,326,196,93,73,23,21,25
64,306,189,74,65,22,22,38
73,304,183,76,66,23,22,37
75,316,200,78,59,23,18,37
80,356,259,70,50,20,19,38
68,281,250,64,47,20,21,37
71,270,261,65,49,22,22,25
67,259,249,66,51,23,22,27
65,267,249,80,51,22,24,25
61,243,187,85,51,22,25,24
57,243,202,75,51,24,24,22
54,274,193,71,47,24,23,21
57,280,182,95,45,22,22,20
63,270,158,91,48,22,21,31
63,247,180,89,51,23,19,32
64,297,166,89,57,24,21,36
68,282,163,94,69,24,21,42
65,297,217,70,70,25,24,43
67,302,229,62,81,25,24,39
65,297,207,62,81,24,23,49
68,233,227,70,72,24,22,47
60,208,250,92,63,23,22,40
53,244,221,91,61,22,17,38
44,248,210,90,42,21,19,39
45,258,241,96,45,24,23,37
41,269,230,93,47,24,23,36
39,271,217,67,43,24,23,37
38,213,234,70,48,23,26,49
38,193,232,69,46,22,24,53
43,204,199,63,45,18,22,46
44,209,234,62,46,17,21,51
49,249,237,62,49,20,22,61
58,299,259,86,52,21,20,54
68,302,268,91,60,21,21,50
65,307,271,91,60,22,20,55
68,339,242,88,57,24,22,60
66,308,271,95,57,22,22,53
60,258,223,79,83,22,22,52
54,282,242,72,83,23,21,51
63,274,295,72,79,21,22,47
58,224,297,95,81,20,21,42
58,220,257,89,89,23,22,39
61,252,277,83,69,25,23,37
57,211,254,84,62,24,24,38
47,217,184,81,64,27,25,37
49,211,180,59,63,26,25,28
50,229,189,59,46,24,25,38
48,199,150,60,48,23,24,39
45,196,140,57,50,23,24,38
55,233,157,77,48,21,25,39
59,255,179,81,51,22,25,38
63,233,160,83,55,22,26,30
64,230,214,95,63,21,26,36
69,250,229,95,66,22,25,37
72,270,250,86,67,23,24,40
70,267,261,85,64,21,25,39
68,279,272,87,73,22,22,38
67,311,229,81,60,22,21,30
72,318,219,82,55,20,21,29
60,268,207,82,55,19,22,22
63,280,213,95,71,20,22,23
64,288,252,98,62,19,23,24
65,262,268,99,60,21,24,34
72,241,276,101,61,22,23,34
89,252,260,97,61,24,21,37
88,246,260,84,43,23,20,37
90,295,222,86,47,22,21,37
93,293,229,79,47,21,20,28
87,299,221,77,46,22,19,29
69,286,229,78,45,20,20,26
71,279,190,80,51,22,20,24
67,218,177,79,50,22,20,25
69,219,174,83,51,21,22,28
61,214,177,81,51,20,24,25
66,231,159,88,54,20,22,27
61,217,155,82,49,21,21,25
68,230,168,83,41,23,21,26
60,221,169,76,40,23,20,23
62,218,171,86,43,23,20,24
60,198,196,86,39,23,21,24
61,243,240,87,43,22,21,25
51,255,239,74,51,21,24,26
52,258,234,82,49,22,24,26
53,272,228,72,48,20,22,25
54,276,213,63,52,21,23,31
53,251,171,58,50,24,24,31
60,239,192,63,48,24,24,29
65,273,206,66,49,24,24,29
67,267,210,65,46,24,23,33
71,278,212,65,43,25,23,28
71,273,222,68,41,22,25,29
65,259,205,69,42,22,23,30
62,257,169,73,43,21,22,30
61,261,173,78,43,23,24,27
65,243,191,89,46,20,24,26
68,233,183,88,51,22,22,24
68,253,174,90,46,23,20,22
73,234,177,86,47,24,21,22
68,212,163,85,48,23,21,31
58,228,192,91,52,24,21,33
54,231,183,94,51,24,21,33
60,252,182,90,49,24,21,32
49,236,206,82,47,24,21,34
51,243,206,80,49,25,20,25
47,252,170,55,40,31,20,23
48,244,179,43,31,38,21,23
46,186,217,43,34,39,22,24
59,198,195,40,34,39,23,24
60,210,232,41,35,40,24,25
63,171,259,62,37,35,24,26
61,182,252,82,45,28,24,26
72,188,224,90,46,27,23,29
61,205,218,98,47,26,23,27
64,193,210,98,47,25,23,26
66,206,162,88,44,26,22,24
73,196,157,83,37,24,23,26
61,207,154,78,50,23,24,22
60,172,174,69,51,23,22,23
70,259,181,72,50,21,22,23
68,283,182,82,51,22,23,26
63,286,183,79,51,22,23,25
61,279,190,75,41,22,23,24
66,301,183,76,41,20,23,24
60,223,144,87,42,22,24,27
66,186,139,89,46,22,22,25
69,191,146,85,47,22,22,31
73,208,179,88,43,22,22,34
71,189,185,95,47,22,22,34
71,188,186,90,51,21,22,32
64,180,231,95,49,21,24,40
62,251,239,92,47,21,25,41
60,235,209,89,44,21,26,39
58,228,202,98,55,22,27,40
69,244,213,92,53,23,26,44
73,246,174,76,52,22,25,36
70,193,164,76,53,23,24,41
70,232,182,81,53,24,23,42
71,250,190,69,43,25,23,42
60,240,182,69,43,24,23,38
52,234,166,70,42,24,24,44
58,238,211,70,42,23,22,37
58,197,195,64,43,22,20,35
55,174,186,56,35,21,19,35
50,174,199,67,32,20,23,53
66,310,271,77,42,20,25,54
65,298,232,78,43,22,27,60
72,318,289,85,46,22,30,78
75,316,299,84,45,22,30,85
78,348,299,71,43,21,28,101
76,263,260,59,35,20,30,120
79,306,315,58,32,19,30,127
73,314,352,56,29,20,31,127
79,341,344,63,48,22,31,125
76,326,342,73,55,23,35,112
80,364,334,79,55,29,36,98
83,346,300,83,56,31,39,145
100,342,201,90,58,35,40,143
99,357,213,86,49,44,40,147
101,347,231,79,47,46,37,151
97,340,231,76,49,44,35,149
91,337,209,78,50,42,33,109
80,392,224,71,50,40,31,103
83,397,212,73,53,31,31,101
81,402,176,86,53,41,32,89
74,377,173,91,50,45,30,100
79,365,192,89,51,47,26,85
75,303,178,85,48,49,26,86
70,296,219,94,51,49,26,88
71,318,226,85,52,42,24,89
82,323,256,78,52,40,25,79
78,314,268,71,50,43,27,88
75,300,287,74,49,40,29,87
86,306,279,84,43,38,28,78
99,277,278,88,43,36,29,80
92,250,252,90,44,38,29,78
93,245,257,98,46,38,26,67
93,246,223,93,52,53,27,77
91,259,214,77,49,57,28,78
76,265,240,69,49,56,27,80
77,261,243,70,48,53,27,82
75,274,217,76,45,53,28,81
76,286,219,86,44,38,25,70
65,237,239,90,47,36,26,77
65,235,215,91,46,36,26,73
62,239,222,98,49,36,26,80
62,235,231,86,52,36,30,80
59,238,254,83,47,36,32,85
51,241,234,71,46,36,32,76
60,245,241,72,47,38,34,79
66,248,228,58,44,42,36,65
66,263,207,57,43,40,32,86
68,241,169,65,45,41,31,93
77,259,158,71,45,39,32,95
71,242,137,87,63,42,31,90
76,266,170,92,69,50,28,98
80,255,182,93,69,53,27,78
81,274,188,83,68,53,26,63
78,249,218,89,68,53,22,61
76,246,218,78,47,49,24,62
76,233,188,74,45,36,23,57
72,234,180,73,48,30,24,65
69,205,212,74,46,34,25,69
62,186,220,69,44,32,24,77
64,211,244,72,61,33,24,76
50,188,253,71,57,35,24,68
62,214,251,73,54,35,24,69
67,218,225,76,55,30,22,68
73,213,178,72,56,31,23,58
74,197,171,63,39,31,22,56
82,208,169,66,37,32,23,56
74,186,185,64,52,32,23,50
78,243,204,79,55,36,30,57
75,251,243,79,56,35,30,57
72,249,224,79,55,36,30,58
66,242,222,76,58,33,32,66
64,263,218,82,45,34,32,60
56,216,231,69,54,31,27,56
55,207,190,71,55,31,27,54
55,204,188,85,54,33,28,61
56,215,226,95,54,32,27,55
63,180,220,90,55,29,27,55
73,226,238,88,49,30,25,45
88,285,262,86,47,30,28,60
89,309,262,77,48,29,29,53
87,311,225,66,43,31,28,49
89,320,230,71,45,31,29,63
81,302,215,68,46,29,30,72
71,260,182,82,52,27,30,63
77,245,196,78,52,27,34,71
78,234,188,81,53,30,33,71
72,224,230,82,64,29,33,69
72,206,207,93,61,33,35,64
71,204,208,82,56,35,33,64
69,180,214,84,57,34,28,56
74,208,224,83,57,30,29,57
79,227,178,82,49,29,27,55
77,235,234,76,51,25,26,54
77,238,240,76,53,29,27,57
75,251,229,91,52,31,28,64
73,231,243,90,55,31,29,65
68,201,261,103,55,31,32,70
75,258,206,97,50,33,30,70
69,249,196,98,46,28,30,66
64,252,212,81,45,29,30,58
60,239,210,86,48,28,27,56
53,244,183,71,42,36,23,44
48,176,181,78,42,34,23,44
47,177,214,85,44,36,22,44
48,186,199,87,47,33,21,44
50,232,183,87,50,34,24,51
66,248,183,78,51,26,25,54
62,244,201,73,51,27,23,50
67,246,177,64,51,24,23,60
68,233,179,63,48,24,24,68
70,219,196,52,36,24,22,65
62,205,222,74,51,23,26,68
62,197,214,71,56,22,27,69
58,212,209,71,57,22,28,65
63,275,234,75,57,21,29,67
62,258,237,82,57,21,30,72
55,262,218,68,50,22,25,67
54,270,212,70,50,23,25,67
56,253,209,69,50,25,26,70
51,177,163,73,51,26,26,68
52,172,144,73,59,25,24,60
59,176,180,74,59,23,27,57
62,172,186,74,54,24,28,55
69,192,246,78,53,21,24,45
67,193,252,73,53,21,24,46
67,192,243,72,52,23,24,46
64,192,216,69,52,28,21,44
60,187,199,79,52,28,20,44
60,203,136,92,54,28,23,44
67,220,136,94,58,28,22,42
66,237,127,91,54,28,25,42
73,254,144,98,46,25,25,42
75,254,179,94,47,22,26,64
67,227,169,83,46,23,25,66
64,223,172,87,57,23,25,58
63,205,198,86,60,22,23,59
52,201,222,89,64,23,27,62
54,236,202,84,63,24,24,39
59,245,213,89,72,23,24,46
56,249,209,85,63,28,25,53
61,273,239,88,60,30,24,57
72,251,225,81,62,31,21,58
70,225,222,85,70,31,24,60
70,215,214,89,61,30,27,71
71,199,250,92,60,26,27,71
80,184,219,85,59,23,27,69
77,191,197,81,53,19,28,65
84,233,206,78,41,19,30,76
80,250,209,69,50,19,27,61
79,251,190,64,48,20,27,55
70,272,188,69,47,21,29,54
65,268,208,69,47,22,30,65
54,246,221,76,52,23,26,63
58,245,218,66,45,23,26,62
58,246,208,65,46,23,26,63
58,239,201,72,48,23,25,71
59,256,234,81,50,24,22,60
62,245,223,73,56,22,22,59
54,230,222,81,56,26,23,58
54,243,236,84,56,24,23,62
55,263,260,84,55,23,20,54
53,256,213,81,54,22,22,54
55,282,210,91,54,21,22,39
56,276,204,86,57,19,22,53
54,268,193,88,56,20,23,47
54,217,149,81,55,22,22,46
59,221,161,78,58,22,24,52
58,178,148,70,50,23,24,67
64,181,168,72,47,21,23,56
66,212,167,65,44,22,24,55
64,233,165,68,51,22,26,60
59,231,152,77,48,23,24,54
55,235,178,84,50,23,24,45
50,230,162,81,49,24,23,44
54,223,159,78,53,23,23,47
56,223,217,105,57,25,21,42
64,268,223,125,72,23,21,44
69,291,203,126,75,22,21,34
74,310,205,126,77,22,23,64
68,288,220,136,80,22,18,65
66,283,182,127,76,19,20,65
66,240,188,106,63,20,23,67
74,222,190,97,58,20,23,72
75,226,219,98,59,21,23,60
82,251,217,84,58,21,23,58
86,244,205,63,52,21,23,66
79,244,232,49,51,20,22,64
70,260,235,52,54,21,22,61
67,234,211,68,59,20,20,48
60,217,221,71,54,20,20,55
50,224,218,71,56,20,19,48
58,212,173,78,57,21,17,50
56,179,167,75,58,18,20,49
55,180,201,69,54,20,22,53
55,201,184,72,52,20,25,44
62,200,199,73,50,19,24,42
54,192,201,65,51,19,25,50
54,203,221,66,45,20,24,59
63,220,186,53,39,20,22,61
61,211,158,58,41,23,21,63
55,207,141,66,48,25,26,72
63,250,170,72,54,24,25,71
62,251,187,83,58,26,24,64
52,247,202,82,58,26,26,59
52,239,202,98,57,24,26,60
65,283,210,99,55,21,24,57
57,249,183,94,43,21,24,48
56,239,151,90,61,21,23,55
64,260,155,106,73,22,23,59
64,261,163,94,73,21,21,59
52,224,162,91,78,24,23,66
51,224,164,95,83,28,38,71
67,254,186,111,74,29,40,72
67,239,170,115,74,33,42,73
80,251,196,112,74,33,43,78
87,235,188,108,67,33,43,67
95,263,194,121,66,31,32,69
88,320,214,106,57,28,31,66
88,313,209,99,40,22,29,69
79,298,185,99,57,23,29,60
78,314,185,108,60,23,28,62
75,311,205,89,54,21,29,76
73,251,212,97,56,23,28,75
68,246,214,91,57,23,25,67
73,246,207,86,44,21,24,71
68,226,205,75,45,19,24,69
62,201,178,80,47,21,20,55
60,173,160,66,45,20,23,56
65,209,171,78,47,22,24,61
54,218,173,81,47,24,24,57
51,213,179,85,53,26,24,56
59,217,200,81,52,25,24,55
63,236,191,91,53,26,22,53
63,253,174,82,52,26,22,49
62,240,182,84,52,25,23,48
62,246,203,81,46,24,21,50
59,244,183,91,55,24,23,71
65,283,195,85,57,23,24,76
59,250,206,77,57,24,24,76
65,269,209,78,54,23,26,81
67,281,183,93,57,22,26,79
69,286,191,122,86,25,25,66
57,227,245,133,100,26,24,56
53,208,245,148,100,25,24,63
46,202,242,152,103,25,21,55
46,192,255,147,112,25,22,56
44,180,268,127,88,22,21,49
53,192,189,112,78,21,22,59
54,196,179,114,79,20,22,54
58,198,221,117,85,21,24,54
61,208,220,120,74,23,25,65
58,207,195,120,83,24,25,57
50,190,200,128,81,27,25,61
52,194,208,112,82,28,24,60
60,247,160,99,80,26,24,63
56,259,159,90,75,24,26,54
59,299,174,87,66,24,26,56
69,364,182,83,59,20,25,48
72,384,187,85,81,24,28,52
66,348,187,87,79,25,27,49
67,334,203,113,89,26,25,47
75,309,187,107,96,26,26,51
72,237,168,101,100,27,27,57
73,194,164,100,80,25,27,56
77,190,203,134,90,26,27,57
79,180,180,132,128,30,27,58
75,172,197,133,127,32,26,53
69,162,191,133,127,31,27,40
66,211,227,139,129,32,26,38
60,208,196,114,130,33,25,57
58,203,188,99,84,31,24,58
54,206,178,98,84,28,24,60
59,248,192,97,83,29,23,61
58,215,158,82,83,28,20,61
59,217,155,75,68,25,20,55
62,249,157,80,84,24,21,51
57,252,149,74,74,25,21,54
54,220,177,119,88,25,21,56
51,217,159,127,86,23,19,53
50,210,155,124,85,23,19,41
45,213,164,121,76,23,21,43
45,205,202,163,90,23,19,37
47,189,164,138,77,23,20,43
55,219,164,132,75,26,22,43
62,248,169,143,78,25,23,56
64,225,197,151,79,27,21,58
64,232,161,113,75,28,22,60
68,262,180,115,92,29,22,55
65,263,174,129,91,26,21,56
60,262,202,122,89,27,20,41
62,287,166,105,81,25,22,45
63,285,164,104,77,24,21,41
59,261,164,104,77,24,23,54
62,250,169,95,94,26,24,59
61,251,150,93,101,28,25,64
57,234,156,98,101,29,24,59
59,225,165,96,99,29,24,60
59,230,145,88,85,28,23,57
55,228,166,85,80,27,22,52
54,211,163,85,79,24,22,55
54,202,162,81,92,23,21,54
54,201,169,81,91,23,23,56
50,193,167,94,98,22,22,53
49,176,140,107,104,24,24,54
45,173,124,109,98,24,23,43
42,168,173,148,115,25,24,43
45,187,166,155,114,24,22,42
44,208,172,154,111,25,21,28
43,240,176,146,95,22,20,25
47,271,181,143,101,22,21,26
61,279,132,102,72,22,22,25
57,272,128,89,71,22,21,22
59,264,135,101,71,22,21,37
62,258,133,98,79,22,22,39
62,221,128,103,69,22,21,39
53,221,125,106,63,23,21,40
52,218,150,106,62,22,21,40
52,219,172,87,57,21,22,34
50,214,173,79,58,24,22,32
54,219,175,77,62,24,22,33
68,252,188,78,77,23,22,32
72,252,184,95,82,25,23,33
73,241,161,136,94,25,22,27
72,257,165,137,88,22,23,39
74,292,168,137,85,23,24,39
58,247,159,135,86,22,21,37
58,258,141,129,85,21,21,37
57,326,195,88,70,23,25,37
57,308,192,90,70,24,24,24
49,272,182,83,70,23,24,24
51,289,183,101,55,26,28,35
54,305,181,113,70,27,29,36
57,255,107,125,70,26,27,35
63,300,121,137,73,25,30,37
62,295,148,138,85,29,31,36
58,274,140,144,85,28,28,27
60,269,137,142,79,29,30,27
57,264,146,132,83,28,30,26
54,220,164,118,79,29,26,23
54,229,215,119,71,26,24,25
57,247,214,97,73,24,25,24
46,210,210,84,67,21,20,20
53,194,206,76,58,20,21,22
53,176,249,110,67,23,22,22
59,176,193,126,89,23,22,21
58,152,198,125,90,26,24,21
66,157,204,121,85,26,27,23
68,175,208,122,89,26,33,27
77,209,126,98,83,22,32,26
75,212,169,78,57,25,34,26
74,220,182,78,53,31,35,28
73,279,184,93,68,31,40,29
69,283,183,115,86,32,35,24
62,256,212,110,89,34,36,26
62,242,173,109,86,31,54,26
61,236,165,113,84,22,62,24
55,173,162,107,86,25,61,26
59,194,218,87,67,26,62,28
56,188,193,111,69,25,63,28
55,218,205,107,72,28,48,27
57,230,202,99,82,27,35,26
55,219,198,98,69,30,33,24
48,177,193,106,68,30,26,21
51,186,184,84,60,30,25,23
52,185,178,85,61,29,24,24
54,220,178,114,71,31,27,25
57,224,203,117,78,31,29,24
57,221,152,106,83,31,33,27
48,214,155,110,96,34,35,25
49,223,153,113,98,34,38,25
53,223,173,85,90,32,39,25
53,218,147,79,89,30,37,25
50,223,138,112,130,31,36,22
57,244,137,115,137,28,36,24
57,231,152,114,133,26,36,25
51,195,124,119,131,29,49,27
48,197,117,119,128,25,60,28
52,194,117,86,81,25,69,29
48,186,154,75,56,26,68,27
52,179,166,92,92,29,68,25
52,187,182,89,100,36,61,27
60,200,198,89,110,37,53,27
60,195,202,93,109,36,41,26
57,181,174,100,116,36,42,26
52,184,175,87,89,35,47,26
54,208,176,80,81,27,43,23
50,217,162,77,66,27,41,22
52,216,162,83,66,26,48,25
54,220,163,76,51,26,46,26
53,206,181,74,65,24,41,25
54,167,169,80,61,24,40,25
62,170,178,85,67,28,39,30
59,187,236,83,79,29,28,28
62,196,259,82,83,26,29,30
64,205,225,82,75,27,34,31
61,203,231,81,78,27,34,31
51,174,224,77,75,26,35,30
50,156,182,74,76,25,38,30
46,136,161,77,75,27,39,28
49,134,162,74,75,28,36,26
52,129,147,78,72,32,33,26
58,141,152,90,80,33,29,22
57,148,147,91,68,32,29,23
54,152,136,90,74,33,26,22
50,149,150,102,84,33,27,25
44,162,158,99,85,28,34,24
37,162,175,95,78,26,33,23
41,165,162,90,77,28,34,25
46,157,182,91,69,25,33,26
48,165,171,74,83,26,29,23
58,164,185,68,82,29,23,23
76,215,176,73,82,29,26,28
77,205,180,82,90,28,23,26
76,214,157,74,101,32,23,26
80,241,159,90,81,30,23,29
75,250,145,102,79,25,24,29
57,209,164,97,86,26,23,26
56,248,165,106,84,26,23,27
55,238,175,110,74,26,25,27
48,204,173,110,78,26,36,23
43,193,194,131,86,32,49,24
42,218,186,133,88,33,60,22
42,197,182,161,105,36,64,21
50,243,206,167,109,35,65,22
50,257,218,174,115,36,62,24
53,277,188,154,120,32,53,24
49,259,173,162,118,30,39,24
56,254,169,135,99,28,37,25
52,212,141,136,92,28,34,26
53,213,165,124,84,28,32,25
56,172,169,129,65,29,32,25
56,166,161,119,60,29,31,26
54,157,162,128,64,26,28,26
62,180,163,124,68,23,29,25
65,196,154,123,82,24,30,27
61,213,151,129,87,24,30,27
72,303,181,121,91,22,30,26
72,313,182,108,91,23,30,25
62,309,190,110,95,26,29,25
71,307,171,111,81,26,26,25
71,298,169,96,76,24,24,25
61,206,153,100,68,26,29,26
57,184,197,105,63,25,30,25
58,193,177,108,57,24,30,24
50,171,230,117,74,24,31,26
66,208,245,132,75,26,30,25
67,229,253,134,78,27,26,27
79,259,223,124,84,27,24,31
80,251,236,120,87,26,25,29
76,251,210,129,85,24,24,28
63,226,202,118,93,27,26,29
70,224,178,118,94,24,26,27
59,204,190,140,91,25,28,26
57,215,212,145,91,26,27,26
57,208,201,125,91,25,25,26
60,214,199,137,84,21,24,25
55,204,204,142,92,21,24,25
56,211,235,125,96,22,22,22
60,197,206,141,94,24,24,23
60,200,190,160,82,24,25,24
68,226,197,151,86,26,25,26
63,220,226,145,81,28,25,25
62,205,194,151,86,25,27,26
64,221,194,125,86,28,23,25
64,234,221,99,87,29,23,24
57,233,222,102,91,30,25,20
59,239,190,105,89,28,24,24
61,240,172,100,80,28,25,23
57,238,204,124,75,23,24,21
56,214,178,135,84,22,24,21
64,221,165,135,78,22,25,23
68,264,172,145,83,24,24,22
67,273,173,142,90,25,21,23
63,259,143,118,91,28,22,24
66,269,135,115,80,29,25,25
60,258,138,120,77,28,21,26
62,229,172,109,72,26,26,25
61,228,192,118,70,26,25,24
66,239,200,127,70,25,25,24
72,292,237,125,74,22,23,24
68,272,237,149,81,22,23,21
60,261,216,151,81,24,26,22
63,279,208,138,77,24,28,23
59,274,226,136,75,23,27,21
55,217,185,137,76,23,27,20
55,223,187,106,87,23,29,21
60,262,246,117,95,23,22,21
59,236,245,126,96,23,21,22
60,235,225,126,100,23,22,26
55,246,228,127,95,23,21,25
57,250,239,141,82,22,18,25
55,256,180,130,66,22,20,27
52,271,168,127,64,23,22,28
49,268,150,145,61,22,21,25
48,253,176,141,69,23,22,26
45,267,148,134,64,25,23,27
42,213,133,145,71,23,22,25
41,205,162,146,76,23,21,23
62,205,189,134,79,23,20,24
68,193,161,161,91,24,21,25
73,217,164,168,104,21,21,25
80,241,184,176,101,24,24,27
82,224,177,178,100,22,25,28
72,238,156,170,97,25,26,28
67,259,154,157,81,25,26,27
62,214,149,141,80,27,25,26
58,183,200,115,81,28,24,27
62,232,187,120,79,28,24,27
58,214,183,118,91,24,23,25
58,189,190,97,95,25,21,26
58,184,206,106,86,25,21,26
58,223,165,106,85,23,19,25
50,194,163,94,97,24,23,24
55,222,177,101,84,24,24,23
55,226,203,105,81,25,26,23
70,243,202,94,84,25,27,28
77,230,184,103,84,24,27,28
76,217,191,108,70,25,23,26
78,200,229,108,66,26,23,27
79,195,199,101,75,25,25,28
69,173,186,121,70,26,25,23
58,148,193,123,78,29,26,22
63,152,241,144,85,27,26,30
57,133,206,154,97,29,30,31
53,154,208,165,94,28,29,29
54,167,244,153,93,26,29,31
53,232,241,146,84,23,29,31
60,242,197,115,75,23,31,29
61,242,239,145,86,21,26,29
65,236,260,157,105,25,27,30
66,229,226,156,124,25,26,30
66,172,226,165,128,29,24,32
56,158,232,169,127,28,23,25
55,172,171,127,113,27,23,27
51,170,140,113,96,25,20,26
45,177,140,119,82,25,19,25
46,163,147,103,80,24,22,34
52,148,157,120,82,26,24,36
57,139,168,136,94,27,24,35
57,131,165,150,103,29,24,35
62,147,200,140,94,29,25,35
57,162,207,170,114,29,25,32
56,170,188,161,114,28,23,34
56,196,189,148,106,29,22,35
58,209,223,130,95,26,23,35
55,196,194,138,93,26,24,37
67,214,178,116,80,24,22,32
66,210,203,116,80,24,24,28
74,213,205,123,78,22,25,28
76,235,174,114,81,25,28,35
78,258,208,107,87,25,26,34
72,246,273,106,74,23,27,33
77,270,252,122,74,23,25,36
71,249,248,120,74,24,27,38
76,269,253,118,66,21,24,36
76,281,285,120,66,21,23,36
76,282,218,118,63,22,24,38
72,261,219,90,58,23,26,34
69,258,218,107,66,22,22,36
63,215,262,128,73,22,24,29
72,171,193,123,66,25,25,32
73,162,206,113,67,25,25,32
77,162,226,117,67,23,23,34
78,161,226,110,70,24,24,31
79,181,161,94,68,23,22,32
74,184,180,101,74,20,23,39
70,175,195,112,76,21,22,38
61,171,174,117,79,22,22,37
64,192,170,110,73,21,22,36
64,166,184,137,79,24,23,36
56,154,193,136,81,25,22,37
60,163,182,130,82,22,22,37
63,164,192,129,85,24,23,38
62,161,222,128,86,27,25,44
60,170,226,111,72,24,27,52
61,227,210,115,65,25,26,47
57,223,209,111,86,26,25,48
58,225,205,140,88,24,26,46
54,227,175,147,87,23,26,50
51,239,221,140,87,23,22,42
49,190,226,134,85,22,21,42
55,198,218,133,59,24,22,43
55,232,243,94,50,24,19,43
55,239,245,117,76,24,21,43
55,216,188,110,75,24,24,43
57,230,198,109,78,26,26,39
50,266,219,113,79,25,26,40
47,249,183,122,82,23,28,41
48,237,182,86,57,24,25,33
50,249,209,94,56,24,24,40
49,241,201,102,57,21,22,40
50,192,172,98,61,22,22,37
59,177,171,107,65,23,20,37
67,200,185,104,64,22,23,38
72,206,158,97,66,25,25,39
71,205,162,87,66,23,24,37
69,198,233,102,72,23,23,38
63,195,231,87,74,23,25,36
53,162,221,88,72,24,24,32
40,146,239,84,75,23,24,22
41,165,255,87,72,24,23,24
43,176,216,88,79,26,25,29
43,222,245,78,74,24,24,37
44,232,245,82,83,27,23,36
46,234,219,91,94,26,21,35
56,214,199,94,95,28,23,36
54,213,196,82,80,25,20,35
57,175,169,88,82,27,20,35
61,200,180,88,91,25,21,36
60,204,211,78,78,26,21,36
55,211,215,84,79,23,22,37
57,218,194,82,80,26,23,36
56,220,229,81,84,24,26,28
57,208,218,80,68,23,28,37
61,239,225,90,69,21,28,37
57,246,226,84,67,20,26,36
58,243,238,94,66,20,25,35
63,307,225,131,77,21,23,34
58,298,247,142,80,20,20,26
66,300,218,134,77,21,24,33
67,305,206,133,87,22,25,32
67,310,219,133,89,23,29,41
61,250,193,91,78,22,28,42
61,258,185,100,74,24,31,43
60,253,189,102,81,24,28,39
60,251,197,101,75,25,29,41
57,231,171,93,74,24,27,30
62,218,170,102,75,27,26,31
63,217,193,74,74,26,23,29
55,188,208,76,73,26,24,29
57,196,195,77,69,26,21,35
59,215,219,81,69,27,19,36
63,245,229,92,71,27,19,33
59,227,198,99,78,31,19,33
63,226,211,99,84,32,20,34
58,199,210,104,84,32,20,25
56,191,188,105,88,30,22,23
49,158,173,92,89,29,24,26
53,158,177,88,88,24,24,24
47,133,142,88,78,24,23,25
51,146,156,80,84,24,26,38
51,151,174,100,92,25,29,41
62,222,173,104,87,28,28,40
70,253,166,123,99,27,28,42
70,250,199,129,101,28,29,43
77,270,187,133,98,29,26,32
76,268,175,113,88,28,22,39
70,242,191,148,110,27,24,40
61,239,228,146,114,27,24,39
60,245,195,146,115,27,23,37
49,228,196,145,116,25,23,38
55,240,219,152,114,25,23,29
52,224,220,118,86,25,25,36
52,210,172,110,79,23,24,40
54,203,169,103,102,22,23,40
55,232,219,101,102,23,24,40
56,234,201,111,101,24,24,40
55,231,210,116,110,24,21,41
60,236,215,103,97,24,21,41
61,254,225,101,72,23,21,41
62,226,185,120,79,25,22,41
59,210,171,122,86,24,21,41
57,205,146,113,78,25,21,32
52,188,201,122,79,24,21,27
50,177,193,131,82,25,21,37
53,171,184,141,100,26,19,35
63,216,189,131,102,26,21,35
65,226,212,130,100,25,20,36
67,223,157,131,97,25,19,36
69,244,158,128,95,24,22,30
66,256,188,98,66,19,21,32
60,217,193,95,59,19,20,42
64,204,167,95,62,22,21,43
63,225,177,85,87,26,22,44
62,198,184,94,87,27,21,43
64,198,152,115,88,30,23,42
71,218,138,113,88,29,23,34
72,230,152,135,98,27,25,40
80,230,152,149,78,24,26,41
85,269,146,144,79,24,26,42
87,272,166,136,83,23,25,42
76,269,185,133,82,23,26,40
74,276,169,122,77,22,24,32
64,271,177,106,78,23,27,38
55,255,194,106,75,26,25,36
57,240,176,116,91,25,27,38
62,237,161,127,90,25,26,37
66,214,194,118,86,25,25,36
66,200,178,116,82,25,24,36
65,181,155,141,89,21,22,35
65,187,157,139,83,22,20,32
65,175,147,132,83,22,23,33
56,175,142,143,83,23,23,34
57,237,197,154,88,25,22,25
58,230,201,126,80,24,22,27
54,233,202,118,67,24,23,39
49,236,218,121,76,23,20,40
47,231,195,128,77,26,20,39
49,187,149,118,69,24,23,38
46,186,184,133,70,26,25,38
45,171,186,128,76,25,24,36
50,160,166,134,76,26,25,36
51,166,178,111,71,25,26,37
47,163,196,123,70,24,23,36
50,157,159,107,86,23,23,36
50,166,152,108,86,25,23,26
49,161,155,94,79,25,25,40
46,172,178,97,80,22,24,41
50,164,156,90,97,23,24,43
50,165,153,103,80,24,23,43
57,195,223,95,77,23,24,41
63,233,226,97,79,23,23,41
67,225,199,111,83,23,26,41
71,220,193,129,68,23,25,40
72,236,199,120,69,22,24,40
69,241,163,122,61,21,23,40
64,215,163,116,56,21,21,25
73,262,163,99,46,21,19,28
69,291,170,89,59,23,19,28
72,281,210,126,76,24,21,41
76,247,182,129,90,25,22,42
72,236,182,153,108,26,23,42
67,202,197,159,114,28,23,41
68,171,196,144,107,26,23,41
68,203,148,123,115,24,22,30
64,240,158,120,107,27,23,41
72,274,164,108,100,25,22,41
68,256,186,114,99,24,21,39
65,246,188,117,101,25,21,39
73,249,186,118,93,26,22,39
70,258,191,118,108,23,20,26
64,225,203,121,102,24,20,33
64,254,186,115,95,23,21,33
74,310,183,116,93,22,20,34
66,295,182,116,82,22,19,32
66,269,178,151,58,22,19,32
66,290,154,140,55,26,20,26
66,272,139,135,60,27,20,36
57,206,131,138,68,30,20,35
50,210,169,143,95,29,20,35
57,249,171,106,100,33,22,36
61,238,170,99,100,28,21,35
65,232,164,125,102,28,22,26
59,235,186,122,99,23,23,25
64,231,178,109,74,24,25,32
56,210,165,109,69,19,23,32
54,193,166,137,74,22,24,32
51,197,162,132,76,23,22,33
56,219,192,134,91,25,22,34
51,219,177,164,99,25,22,29
58,216,171,173,99,25,27,45
55,217,186,157,111,24,26,46
54,216,220,149,107,25,27,45
59,205,186,144,94,25,28,45
63,185,174,118,83,27,27,45
58,157,219,127,98,26,22,28
54,160,211,129,92,28,23,31
56,194,196,123,92,27,22,32
48,188,186,127,96,27,21,32
49,220,192,125,104,23,22,31
46,222,162,105,96,26,21,31
55,229,188,101,84,24,23,24
51,197,176,101,85,22,25,25
55,198,181,113,88,25,24,25
53,174,213,114,78,27,23,24
57,167,196,129,76,25,23,28
50,165,172,133,80,25,20,29
50,198,163,140,85,27,19,28
46,191,168,134,79,25,20,35
45,177,121,125,75,24,20,35
51,208,125,107,71,24,23,35
51,245,128,113,65,24,23,34
59,254,159,116,56,24,24,33
58,262,146,112,54,24,23,24
63,279,158,117,63,28,24,25
64,263,177,131,76,29,24,29
64,218,188,142,80,29,25,29
68,235,186,130,86,29,22,29
72,242,193,124,89,28,22,29
66,231,186,117,83,25,21,31
61,225,184,107,70,23,18,26
61,226,169,107,70,22,17,27
56,165,148,107,61,23,18,40
62,182,133,110,56,24,18,40
61,173,141,153,61,25,18,38
61,228,168,149,67,23,19,39
65,248,165,129,85,27,18,39
59,252,166,132,91,26,18,29
49,240,174,133,92,24,20,33
52,247,182,87,89,23,22,34
59,233,192,92,101,26,22,35
54,209,192,87,87,23,23,35
56,228,190,119,83,24,22,33
56,233,190,123,82,26,23,26
59,265,264,129,85,25,22,36
51,238,242,128,74,23,21,33
55,254,241,138,75,25,20,34
52,234,248,108,71,23,20,33
52,209,292,99,68,21,22,34
55,222,225,88,73,24,22,34
58,235,210,89,66,24,23,33
56,231,217,76,65,22,23,33
57,240,226,76,66,23,23,33
61,255,182,81,67,23,23,47
58,203,173,95,66,23,22,42
54,185,170,98,79,23,23,42
56,180,180,105,80,26,24,46
56,170,171,111,79,27,23,47
57,192,146,142,82,28,21,33
53,195,145,134,76,25,23,37
54,200,148,126,58,26,23,43
54,189,116,119,69,27,48,91
52,185,110,127,82,26,49,94
44,151,177,96,91,25,49,97
41,153,193,102,97,26,48,96
40,174,191,103,99,28,49,96
41,180,191,112,92,26,28,56
42,192,185,127,107,27,29,51
46,189,120,124,100,26,34,46
47,195,144,122,98,27,35,44
49,182,145,123,95,24,34,39
65,222,154,116,97,25,32,30
90,273,167,98,75,30,37,44
92,281,197,111,79,32,31,45
99,313,172,108,78,33,34,44
97,323,177,116,85,33,34,44
88,296,170,163,85,30,34,42
65,263,162,161,89,26,29,41
63,248,163,155,101,25,29,39
56,199,149,160,117,25,33,39
56,180,158,175,115,25,33,38
51,192,160,135,110,27,34,37
45,182,173,125,100,27,33,35
50,237,145,119,85,30,34,42
49,242,149,116,70,29,29,43
49,229,147,81,68,30,29,42
50,227,150,81,68,28,28,48
55,239,197,87,71,27,29,41
49,212,209,95,71,29,30,35
44,201,206,100,84,28,26,35
59,237,244,134,98,27,26,39
62,245,251,138,102,32,28,33
60,227,204,138,101,33,29,31
61,210,211,139,102,29,28,32
65,223,226,146,88,32,29,30
52,191,187,128,82,33,27,41
47,199,194,124,75,30,29,43
54,199,216,132,78,29,31,44
60,208,194,124,70,29,30,44
64,191,178,99,62,26,30,44
65,186,173,83,60,22,30,30
68,161,188,77,67,23,26,35
67,196,168,70,64,22,24,35
66,198,168,80,68,24,24,35
63,209,206,80,74,23,24,35
63,226,216,90,74,25,23,36
63,225,190,102,75,25,24,40
56,183,181,94,78,28,23,39
52,172,196,90,79,26,25,41
54,193,169,90,79,27,25,43
55,186,148,108,75,28,27,42
58,199,148,109,71,27,31,42
58,198,202,120,76,28,29,44
55,203,193,120,101,29,30,43
49,194,182,133,103,31,30,40
53,190,186,123,101,29,30,39
51,175,180,115,99,30,24,33
54,215,198,101,96,26,25,32
53,202,195,115,77,24,21,32
53,188,198,108,71,22,23,32
59,212,199,92,69,25,22,35
67,252,245,99,67,24,23,36
73,253,193,125,66,24,24,45
73,264,201,114,58,23,24,46
74,269,209,108,61,25,23,46
67,249,235,113,68,23,22,44
60,223,191,109,72,23,25,37
65,206,186,101,86,23,26,39
71,226,179,103,91,23,27,38
71,225,185,100,90,24,27,38
69,248,154,97,83,23,28,38
69,259,159,133,98,26,26,38
77,318,188,135,95,25,24,27
78,311,180,133,88,27,24,32
78,313,170,140,86,24,23,33
80,308,163,143,104,26,20,33
87,332,178,115,90,25,20,36
73,284,148,102,89,27,21,33
75,277,151,124,105,27,22,42
73,273,149,125,109,29,21,43
71,259,182,119,95,28,22,45
60,266,172,120,95,26,23,43
52,259,175,116,86,31,20,43
45,259,173,101,69,29,19,29
56,274,181,94,64,28,23,37
54,277,151,95,63,27,25,35
52,225,154,91,62,28,23,35
54,206,146,84,64,22,24,34
59,207,178,82,66,23,25,47
49,176,174,82,65,24,23,41
65,206,183,84,66,23,22,43
67,187,198,82,79,23,24,42
67,193,203,86,77,24,24,43
58,178,177,89,75,23,22,29
61,190,170,92,75,21,22,31
52,175,192,94,75,24,21,27
52,187,165,104,77,24,24,28
54,179,159,110,85,23,23,26
58,224,165,106,84,27,23,25
58,219,207,107,82,27,25,22
59,217,185,113,83,28,26,23
56,208,178,104,82,27,22,23
53,211,182,105,77,26,23,23
50,157,200,119,77,26,22,25
48,166,163,122,80,26,20,25
57,213,155,126,80,24,19,26
56,216,156,122,69,23,18,36
60,221,171,122,63,22,18,37
63,260,175,108,73,21,17,35
63,275,162,108,71,22,21,36
56,226,160,107,74,23,21,37
55,234,185,113,76,24,21,28
56,254,205,107,84,27,24,29
64,241,197,101,76,26,24,30
65,216,196,105,77,25,22,29
59,211,231,95,74,25,22,26
63,215,222,87,74,24,25,27
58,193,193,86,74,24,24,25
49,158,179,94,77,24,24,26
50,167,178,96,78,24,22,28
54,237,145,95,73,25,22,27
55,234,131,110,77,25,20,24
57,235,126,118,84,25,20,26
58,240,122,122,82,25,20,24
63,251,146,108,80,27,21,26
62,186,193,117,89,25,24,28
62,190,200,112,82,26,26,28
59,192,202,101,73,23,28,26
55,191,253,96,71,23,28,27
52,191,257,110,75,21,29,25
52,193,222,118,83,21,28,23
52,198,215,112,83,23,27,24
59,196,215,128,83,23,24,25
60,206,212,124,82,22,25,25
58,184,200,128,91,23,24,25
59,210,198,113,79,23,23,26
70,219,210,117,81,22,25,29
80,254,227,103,79,22,28,30
84,252,178,103,88,22,26,30
84,254,170,97,81,24,27,29
79,242,167,109,79,25,27,28
71,244,189,109,74,27,25,27
61,199,171,106,72,27,22,28
55,205,163,107,64,27,22,29
55,226,167,121,56,24,27,28
59,229,185,137,55,24,26,27
62,235,144,132,55,21,27,27
68,264,137,133,53,24,27,25
74,256,193,131,47,25,30,28
81,261,215,132,63,26,25,31
85,272,196,123,77,26,27,32
81,263,227,132,82,26,26,32
73,248,234,130,84,25,26,32
73,265,208,133,87,24,25,31
67,254,184,144,81,22,24,30
60,244,216,130,69,21,22,29
64,254,198,127,71,21,24,30
62,235,186,139,71,23,22,29
54,224,176,147,68,22,20,26
56,247,217,122,64,23,21,26
63,277,185,130,80,26,21,27
60,279,176,128,82,26,21,26
56,279,176,115,85,26,21,27
69,277,189,124,86,26,21,30
67,254,137,125,86,27,23,29
67,215,151,114,80,23,23,32
70,232,150,114,74,25,24,34
71,239,184,119,70,24,24,33
63,238,163,114,74,23,25,30
61,244,173,112,92,22,22,31
61,246,187,107,89,23,22,29
54,215,183,109,85,24,20,25
66,251,176,110,98,25,21,28
62,246,182,95,95,24,21,30
60,226,198,80,79,23,22,29
54,243,193,84,71,24,22,25
53,220,191,86,77,21,26,27
42,190,205,83,62,23,27,27
44,197,203,81,67,24,26,25
43,213,185,86,75,26,26,26
53,207,184,90,79,24,27,27
56,208,183,85,73,25,23,26
55,232,169,79,72,23,24,23
58,241,164,77,77,23,24,23
60,253,217,109,96,21,23,23
54,238,213,118,99,22,21,23
65,269,238,121,100,21,23,27
62,242,249,123,100,23,20,27
59,220,245,125,91,24,20,26
59,208,206,114,62,24,22,26
60,215,237,123,88,24,24,26
49,220,211,122,90,27,22,26
50,218,201,120,90,25,24,27
55,240,269,131,92,28,72,31
54,243,271,120,92,28,76,30
55,241,257,108,76,26,79,32
52,231,291,113,87,31,82,29
56,270,294,115,91,32,82,30
55,269,278,102,90,29,51,27
55,254,271,97,89,32,44,27
53,255,261,84,83,33,39,25
64,252,246,79,70,27,33,26
84,247,305,105,68,25,30,29
81,267,295,106,71,27,24,30
80,262,321,126,73,23,23,30
81,260,320,134,71,22,22,29
91,253,310,141,76,22,23,31
75,231,237,122,74,22,24,36
77,190,229,129,77,23,25,36
76,195,193,115,81,24,23,40
80,211,193,132,83,26,23,48
59,215,227,136,91,27,23,47
68,233,232,137,101,26,22,41
66,247,232,128,104,24,17,45
77,302,231,124,98,27,21,53
75,319,257,109,91,24,19,51
89,343,252,116,80,28,23,51
78,314,247,140,82,29,24,52
78,301,225,142,75,31,26,51
84,311,252,141,74,29,25,41
86,299,234,134,78,31,28,41
75,259,214,112,76,26,25,38
79,277,226,82,66,28,24,38
82,297,226,81,66,26,24,33
65,228,191,104,85,28,23,42
67,247,224,109,87,27,21,39
73,260,212,117,87,29,25,42
72,261,198,115,83,28,25,42
68,240,225,122,81,27,24,41
75,290,255,116,74,24,24,30
74,254,218,128,85,25,24,38
67,250,213,123,94,26,23,36
71,258,217,122,92,26,22,36
77,283,188,115,96,26,25,37
92,347,214,108,92,26,25,41
90,368,217,89,78,24,26,34
87,369,212,92,65,21,25,33
87,362,263,99,76,21,26,33
86,360,263,113,81,22,26,38
63,254,224,128,80,21,25,33
71,251,276,138,75,24,25,35
72,232,281,130,72,24,24,34
69,284,243,135,73,24,25,42
66,258,240,148,95,27,24,40
72,263,260,140,96,30,26,41
66,271,215,126,98,27,25,38
64,279,213,173,108,27,25,46
63,224,204,176,105,28,23,38
73,257,230,158,84,25,23,37
66,254,190,153,89,25,21,36
70,267,184,170,107,26,23,45
68,260,214,131,103,26,22,39
71,259,212,118,117,26,22,40
64,243,190,114,120,27,23,40
69,248,191,125,114,24,23,40
63,195,212,121,108,23,23,42
65,195,186,116,107,23,22,40
78,215,204,127,89,22,23,43
71,194,225,142,105,19,21,41
66,171,224,135,112,19,20,42
66,219,220,124,104,20,19,40
69,268,315,127,98,20,20,40
66,296,315,114,96,23,21,41
75,313,314,114,69,22,23,43
84,359,325,116,56,24,24,53
81,331,305,109,55,24,23,46
77,291,250,109,58,24,23,46
66,240,238,113,72,24,21,41
57,222,233,131,76,24,20,39
45,160,231,128,75,23,19,24
51,153,232,135,85,24,22,25
57,159,214,138,95,26,21,25
55,221,230,144,87,24,24,33
56,217,231,116,82,25,23,33
56,208,232,132,81,24,23,35
49,217,248,127,70,24,23,35
43,240,254,133,60,20,23,35
44,185,234,124,60,21,21,28
55,208,254,120,61,21,22,29
59,260,288,103,61,22,21,30
58,262,274,101,76,21,21,35
59,252,263,98,73,23,21,35
65,290,276,105,81,24,22,37
72,287,246,114,94,24,22,38
82,280,211,109,95,24,23,41
86,303,211,106,84,26,22,36
92,313,188,97,84,26,22,38
95,284,182,96,78,25,22,37
98,302,236,77,60,25,24,39
89,274,240,84,91,26,23,34
92,254,241,93,92,25,23,36
86,230,273,103,91,26,24,35
80,232,273,99,90,24,22,32
86,248,243,107,98,26,22,31
85,267,251,117,90,22,23,31
78,260,254,132,105,23,24,29
77,258,214,122,110,25,23,30
92,284,210,120,110,25,24,35
73,244,202,127,107,24,22,33
69,214,171,112,92,29,22,32
71,217,156,88,77,28,21,31
73,231,186,100,88,29,25,30
47,198,171,106,92,30,24,25
50,199,148,93,89,32,26,39
57,210,180,97,84,30,27,41
54,200,183,109,84,29,28,41
48,197,154,101,77,26,24,41
66,216,165,99,77,26,26,50
72,233,202,99,79,23,24,40
72,223,197,101,81,21,23,38
96,230,201,111,95,24,24,46
97,216,222,117,89,25,24,46
89,175,220,121,82,24,24,43
89,197,190,130,85,25,24,44
90,216,209,132,93,26,26,44
64,212,213,118,79,24,25,35
62,227,197,110,75,22,27,42
63,233,221,109,79,23,25,39
52,207,223,100,72,22,25,38
47,205,190,115,97,23,22,37
50,222,211,136,103,26,24,38
55,245,216,139,109,28,21,41
59,264,226,143,108,27,21,39
59,252,243,157,121,28,23,38
56,241,237,147,98,25,23,38
63,231,216,125,92,25,24,39
69,234,241,120,97,23,26,26
64,222,219,112,100,25,26,25
64,226,197,92,91,26,25,30
77,276,186,80,90,27,26,33
74,282,184,82,91,27,24,31
65,258,138,97,84,28,23,32
64,254,112,97,84,27,22,35
68,258,134,101,87,26,23,35
53,199,150,106,84,28,22,36
55,235,143,121,83,28,24,36
55,224,140,107,76,26,23,39
60,241,236,114,73,28,24,44
56,238,227,103,79,27,21,42
56,239,218,122,88,26,21,40
53,194,266,127,95,28,21,40
58,246,282,124,93,28,22,45
54,225,219,127,98,27,19,38
52,233,250,152,103,25,20,36
61,238,255,158,107,25,27,38
58,234,208,143,99,21,25,37
53,199,232,147,102,23,25,30
54,206,228,152,109,24,28,35
62,207,209,146,97,27,29,36
60,204,205,126,84,47,23,35
63,221,250,126,89,49,25,37
62,205,214,168,89,49,25,34
62,201,229,169,76,49,24,28
56,177,211,155,74,49,26,28
52,189,245,151,96,31,24,25
57,225,213,169,106,31,25,25
60,252,207,121,107,28,25,26
57,261,195,108,123,30,23,25
60,288,204,108,127,29,22,40
63,290,169,108,109,28,24,42
64,273,176,89,94,25,25,42
67,281,223,116,92,25,25,43
74,277,219,118,79,22,28,45
71,261,220,121,73,23,29,31
67,245,218,161,78,23,29,30
61,228,227,155,79,23,28,30
73,206,205,140,78,25,29,41
65,197,243,147,76,26,27,40
63,182,241,155,79,30,26,40
68,204,262,117,81,31,23,41
66,241,272,113,80,32,23,40
52,262,278,120,86,32,22,27
58,281,256,112,92,34,25,25
60,330,261,103,94,32,26,27
65,339,239,117,97,31,26,24
67,307,198,117,98,32,24,29
61,278,180,108,94,31,21,29
58,261,201,99,81,29,19,34
65,212,187,106,79,27,20,33
69,260,213,88,78,28,24,36
75,276,213,88,76,26,26,34
77,285,238,95,76,27,27,33
82,312,219,98,82,26,27,31
78,332,237,100,104,28,26,33
73,302,246,103,100,29,25,31
69,328,259,105,103,28,25,30
67,316,229,106,107,28,25,31
66,299,218,102,105,28,25,28
68,277,220,94,81,26,25,26
68,288,206,96,77,26,23,33
71,256,231,95,69,28,21,35
74,256,232,84,68,28,21,34
73,258,262,88,66,30,22,35
78,263,277,79,60,34,23,34
75,230,264,65,54,43,26,29
70,215,246,61,57,43,24,26
102,280,260,77,52,44,30,30
103,320,239,79,77,52,28,33
95,316,198,84,88,51,27,36
91,307,270,91,88,43,26,36
98,317,309,96,86,43,27,39
85,294,307,93,87,43,22,35
104,279,318,91,65,32,23,37
109,289,343,88,58,38,36,36
116,286,285,93,73,44,70,39
116,326,227,92,76,47,73,39
106,307,228,86,73,45,74,39
92,278,234,94,75,45,76,34
91,266,202,94,76,48,70,35
82,287,299,97,74,43,38,29
88,258,294,92,75,42,33,33
85,248,296,89,71,43,32,32
77,227,274,79,64,44,28,31
77,236,288,73,62,45,73,33
81,216,209,55,45,47,73,34
69,181,215,55,44,51,75,28
67,196,214,57,46,53,75,27
72,221,243,62,61,56,76,27
66,224,248,68,66,49,39,26
70,235,249,70,68,52,38,26
74,251,253,70,66,52,41,27
81,271,282,74,67,52,71,34
77,267,321,94,55,49,71,34
77,266,309,92,50,51,72,31
74,248,316,96,55,46,73,34
82,241,318,102,57,42,70,36
72,231,320,108,73,47,40,33
77,243,278,90,77,48,35,32
78,251,274,105,95,52,40,36
86,334,288,105,91,52,65,40
83,354,290,102,95,54,71,41
92,339,258,96,86,50,71,46
123,328,269,103,94,54,120,49
125,307,266,95,78,54,137,51
119,231,242,89,83,54,130,47
120,222,293,99,78,53,133,47
115,226,282,94,76,53,134,41
79,240,262,102,69,48,93,36
82,257,291,111,87,50,61,34
78,261,288,114,88,53,54,32
66,234,228,105,91,56,73,33
69,246,252,112,89,53,73,33
75,246,233,107,89,55,80,40
73,259,260,100,72,49,79,44
78,252,303,101,73,49,98,48
81,266,304,106,77,48,79,46
83,338,325,103,89,52,81,48
76,340,354,96,117,54,75,47
82,389,326,97,122,54,117,44
83,413,295,108,117,57,114,42
84,423,337,110,114,62,115,40
91,432,344,119,124,60,119,41
95,439,323,114,96,60,119,40
86,392,316,102,88,60,81,43
93,395,330,89,88,57,79,40
92,389,335,90,90,47,73,41
90,335,292,84,64,47,63,58
91,318,344,85,59,48,61,60
92,316,355,92,51,71,60,64
81,282,333,105,73,83,41,65
80,261,303,104,74,85,38,64
93,236,340,100,73,85,38,53
91,232,289,96,74,81,38,51
97,227,273,98,76,67,35,47
99,224,300,85,63,61,65,46
104,260,293,76,59,62,68,48
84,267,261,68,64,66,69,46
83,285,270,80,74,67,68,44
79,278,283,89,74,61,67,37
80,302,300,88,89,48,36,43
77,280,294,88,96,46,32,41
81,277,291,94,92,39,28,38
82,263,281,92,84,40,27,36
77,265,296,71,83,37,27,37
98,295,239,79,90,37,28,34
99,284,257,90,89,35,25,33
96,265,268,96,93,34,24,31
95,262,257,91,95,48,28,32
119,340,246,95,109,49,30,35
106,303,314,102,96,53,28,30
103,338,332,105,94,53,29,31
106,337,314,105,95,52,28,31
122,361,340,106,95,39,26,30
103,295,315,112,81,47,25,39
93,278,273,105,71,44,26,39
94,243,250,94,78,43,63,42
99,260,261,85,80,47,67,45
88,209,230,86,81,45,69,46
95,212,281,79,79,38,69,39
97,205,263,68,80,33,69,41
105,230,287,65,64,34,40,37
103,263,291,60,55,31,35,35
98,334,304,55,52,38,30,33
87,334,260,65,50,38,28,30
95,346,284,81,54,38,29,32
84,337,244,81,56,38,25,31
83,343,237,81,57,39,27,34
78,272,222,107,69,34,27,33
100,295,224,128,87,35,30,35
90,292,265,131,85,38,27,30
89,284,263,136,91,41,29,30
92,241,293,142,89,40,27,34
96,262,316,133,79,39,26,38
74,224,327,106,60,39,23,33
77,224,305,101,59,36,25,37
76,227,307,101,63,31,25,39
92,223,265,92,67,29,24,33
86,201,237,94,71,31,25,31
89,200,247,96,71,28,25,30
97,232,192,87,71,27,26,30
98,238,176,93,75,29,27,27
76,272,245,97,72,31,27,31
94,326,260,82,80,30,26,31
91,325,247,95,88,32,59,35
81,293,258,93,87,37,60,36
116,335,279,93,86,40,68,47
116,316,231,96,87,42,80,47
107,318,270,130,92,46,83,49
109,323,292,120,93,47,64,47
116,330,334,122,92,42,63,46
83,286,318,116,88,43,79,35
98,307,330,134,86,42,70,37
104,297,286,107,74,37,69,34
104,298,264,111,72,35,70,35
103,306,257,117,79,40,73,44
104,313,258,115,72,36,44,42
90,288,235,97,89,34,39,40
84,242,248,91,94,41,36,40
86,231,258,90,86,45,67,45
75,212,192,84,80,41,65,37
75,235,196,90,83,43,67,39
71,227,263,87,69,43,68,37
59,217,257,87,61,35,67,37
53,228,230,80,60,39,33,32
62,267,280,84,63,40,33,33
63,253,278,80,62,39,31,33
68,290,231,80,59,39,28,32
72,296,262,87,54,41,28,30
70,297,273,95,55,36,25,27
65,286,237,89,56,34,22,26
62,296,306,92,63,36,23,27
62,277,301,88,64,39,71,28
67,281,262,81,67,38,74,28
70,283,259,86,71,34,76,27
71,297,356,89,74,37,77,28
80,277,297,82,67,34,78,27
79,269,341,79,69,29,41,27
72,267,345,86,72,27,34,30
67,272,348,87,78,37,30,30
80,255,242,90,83,36,29,33
70,246,293,95,85,38,26,30
73,267,251,104,89,40,23,31
81,260,250,101,99,40,23,31
90,258,278,88,93,33,24,34
86,256,295,83,89,32,24,31
84,255,288,115,101,37,24,33
79,231,302,118,100,36,25,31
86,253,301,116,89,36,26,30
82,263,275,116,89,34,23,27
73,235,295,116,81,33,24,25
75,225,261,81,81,28,25,31
84,230,230,74,77,27,23,34
88,270,244,78,76,28,24,36
86,257,242,74,76,26,24,37
92,258,193,71,82,27,23,39
94,258,214,77,76,29,22,34
91,260,243,78,74,31,23,30
75,189,228,80,75,34,21,26
73,220,243,83,73,38,23,28
85,234,262,93,73,37,23,33
108,324,250,96,73,35,27,38
111,327,288,103,77,35,26,40
114,331,294,105,76,33,27,40
116,304,296,107,84,34,25,38
117,376,319,104,95,36,23,34
101,315,315,99,88,37,21,31
98,309,293,98,96,36,23,29
101,324,297,92,97,36,20,31
100,341,298,92,91,31,22,31
88,284,281,89,81,28,24,28
90,266,288,92,81,26,24,40
104,287,256,88,97,28,28,77
102,291,334,111,96,28,30,80
108,290,345,117,97,27,31,91
108,272,322,114,94,30,32,95
101,272,313,115,102,29,33,91
94,240,337,143,73,27,29,63
91,220,306,132,74,28,29,59
87,196,274,127,76,28,26,41
89,180,278,127,78,24,29,41
93,220,272,132,73,26,29,45
83,246,245,95,77,25,28,48
80,252,200,91,77,24,29,50
79,278,195,94,78,25,30,49
73,273,197,103,74,26,28,41
66,242,206,88,64,24,24,33
70,219,193,89,58,25,25,35
76,254,173,83,53,22,22,32
75,216,195,82,72,21,22,35
77,245,214,87,77,20,21,36
70,276,239,93,77,22,20,36
64,266,266,96,76,23,21,29
59,230,257,94,75,24,21,29
63,251,259,98,63,23,22,29
62,225,259,91,73,25,22,27
71,219,231,86,76,26,22,26
73,244,204,90,80,26,22,33
74,275,228,97,83,26,21,33
70,260,219,86,78,30,23,32
73,258,203,82,70,28,23,33
70,255,226,95,69,26,24,33
73,270,244,86,66,25,24,27
70,232,222,77,70,25,24,27
69,241,225,80,69,24,23,26
74,269,222,94,75,25,23,27
72,261,263,93,78,25,23,28
65,229,241,97,79,25,22,27
64,239,258,101,84,33,24,28
63,260,255,103,82,33,24,28
62,288,284,101,74,33,25,27
86,345,235,93,71,33,24,29
98,365,234,89,69,33,26,29
102,356,256,85,56,25,25,29
105,360,255,97,74,27,23,28
106,342,224,100,71,26,22,28
87,275,232,96,74,24,23,24
80,274,258,114,84,28,21,22
81,271,218,130,90,28,22,24
97,284,228,119,81,27,24,29
89,274,216,135,87,29,25,30
88,286,227,162,93,32,25,30
83,260,222,161,81,31,27,30
81,264,222,155,83,31,27,32
60,213,211,154,80,34,26,31
59,226,222,128,83,32,24,28
65,233,202,109,80,31,23,28
77,258,169,96,89,29,20,31
72,274,203,97,86,29,18,27
73,272,206,99,92,25,18,29
77,248,205,105,92,26,21,32
69,250,291,101,85,28,23,31
53,215,296,106,76,27,22,29
63,209,290,99,73,26,24,31
67,219,286,104,73,27,26,26
64,205,307,107,61,27,24,23
74,234,250,107,66,25,23,27
76,256,284,110,74,24,25,28
82,266,290,106,77,25,24,30
77,277,285,100,64,26,20,28
78,271,252,129,66,25,20,28
71,249,263,137,63,24,21,32
71,255,231,131,63,25,20,31
70,234,212,146,64,25,21,31
68,213,251,149,65,24,22,30
78,248,296,117,71,24,22,31
92,273,292,94,71,23,21,25
99,263,297,106,67,23,22,25
97,286,291,106,67,23,22,34
101,316,270,116,95,25,21,35
95,305,238,116,91,26,20,35
82,264,210,120,89,26,20,36
74,260,203,110,90,24,20,38
68,258,214,99,94,25,19,29
75,225,217,89,89,22,21,29
76,230,211,99,90,23,23,33
74,238,229,93,93,23,22,34
74,228,226,100,97,25,24,33
74,225,234,119,104,24,26,34
71,258,216,127,94,27,27,34
74,242,207,120,91,27,25,33
82,239,168,122,92,25,25,30
93,281,219,121,90,25,23,28
92,261,215,98,71,26,22,25
86,229,223,77,58,22,20,23
102,250,242,76,62,23,22,32
104,247,271,110,57,24,22,32
95,203,260,107,56,23,22,34
97,198,272,103,57,22,21,35
95,187,278,114,72,24,23,35
79,186,299,125,85,23,23,25
76,224,285,103,87,25,25,27
80,224,258,101,82,25,26,28
80,221,227,117,80,25,25,27
82,233,216,117,74,23,23,28
82,223,201,112,74,22,25,32
78,211,204,102,74,20,24,30
86,244,277,97,75,22,25,28
99,304,307,119,75,21,25,29
105,313,332,122,75,25,30,36
103,306,309,117,79,26,28,33
103,285,313,138,82,28,30,35
96,271,247,142,86,28,28,37
76,217,225,116,90,30,29,37
85,213,205,103,85,28,27,37
82,207,199,107,68,26,27,40
81,204,207,101,94,25,27,39
80,202,222,101,93,26,28,38
81,209,240,103,90,26,28,39
73,192,246,118,99,26,25,34
75,191,266,128,122,27,25,30
76,193,244,123,107,26,23,30
77,210,262,128,107,25,22,29
93,240,238,127,114,26,21,33
87,255,213,119,108,27,21,34
100,274,196,104,80,25,23,35
109,288,299,105,68,27,22,35
122,308,284,116,80,26,22,35
115,300,300,114,70,27,23,31
117,298,340,117,72,27,24,33
110,288,352,119,74,25,22,31
102,268,267,115,77,23,23,33
88,222,268,96,73,25,23,34
96,200,260,89,70,23,23,35
91,199,220,77,67,22,23,32
83,200,191,68,61,23,23,33
83,203,241,54,56,23,21,29
78,217,231,55,46,24,22,31
65,220,216,59,47,23,21,30
61,220,225,70,63,24,20,29
71,250,230,87,69,23,20,29
72,246,183,98,68,22,19,29
76,252,220,99,74,20,20,28
78,244,223,103,88,21,19,28
83,257,199,99,85,19,22,27
78,223,213,93,90,25,23,27
79,235,210,87,92,26,24,29
70,237,174,87,87,26,24,29
69,238,203,91,75,25,26,30
78,219,211,93,65,25,24,32
78,227,209,98,63,22,23,30
76,216,210,98,75,21,23,30
79,184,234,97,80,22,22,30
73,181,203,113,77,21,19,30
63,177,191,115,80,22,21,26
62,170,186,103,74,21,20,26
57,180,200,101,72,24,22,25
72,181,205,140,68,26,22,23
81,219,218,146,88,29,24,24
81,253,228,144,87,30,23,28
82,257,241,145,90,31,23,29
82,253,244,144,80,30,20,31
72,277,225,113,78,28,23,31
61,242,237,81,54,26,20,30
67,238,249,79,66,24,20,28
67,246,230,84,59,22,22,29
73,257,217,89,64,23,24,28
79,238,257,90,65,22,23,32
85,243,227,99,76,22,23,34
79,213,210,100,72,22,23,34
80,196,232,102,73,24,23,32
77,184,241,105,79,23,23,32
70,224,210,107,77,24,22,28
75,232,228,96,70,26,24,27
72,230,229,103,73,27,24,27
72,228,225,111,81,27,23,27
76,245,219,114,99,28,21,27
72,212,190,105,108,28,19,25
91,215,250,107,107,26,20,28
90,215,296,139,104,25,20,28
94,223,281,137,99,24,20,34
86,195,273,128,79,24,22,32
86,178,283,128,77,23,24,33
52,152,232,131,75,23,24,29
69,199,168,88,72,22,24,29
58,200,183,72,73,21,24,21
61,213,222,80,75,20,23,27
72,250,222,76,63,20,23,28
76,269,216,80,61,21,22,30
68,232,211,95,65,22,22,30
70,228,210,109,83,25,23,30
69,236,223,107,80,25,24,26
63,198,237,107,80,26,24,31
61,190,250,113,89,25,22,31
68,247,279,112,86,26,23,33
70,247,271,100,71,22,20,34
73,239,251,99,74,25,20,34
70,244,251,116,74,24,22,28
71,242,259,116,66,23,22,29
69,217,243,109,79,24,23,30
74,224,283,114,82,27,25,30
72,213,291,119,80,26,25,30
70,261,281,117,90,27,22,30
71,264,258,105,93,27,22,28
73,258,291,98,94,24,19,28
66,249,261,96,90,24,18,29
66,252,222,97,88,25,18,31
69,229,221,86,80,25,22,31
76,245,253,104,75,27,22,31
80,279,194,111,61,28,23,30
81,279,226,104,59,27,22,29
80,282,233,113,71,27,23,28
82,281,224,144,104,29,20,29
79,255,210,148,117,29,21,29
67,192,237,142,118,30,19,27
66,222,207,151,116,30,21,28
78,252,204,139,108,28,20,29
77,249,270,109,89,26,21,33
69,245,274,93,78,24,19,33
75,251,255,112,84,24,20,36
77,233,272,126,83,26,20,36
71,198,289,137,91,27,22,34
73,185,231,133,89,26,21,30
85,222,228,128,94,27,22,31
81,217,259,123,86,27,22,30
83,208,230,115,92,25,22,29
81,227,220,107,86,26,22,31
80,226,245,102,75,28,24,29
68,198,232,108,83,26,25,28
77,231,208,118,91,27,25,27
76,229,249,109,93,27,23,28
82,233,246,109,94,25,21,26
79,228,239,109,92,23,21,26
83,242,243,113,72,25,19,25
83,239,247,118,71,25,22,30
81,270,214,124,86,25,23,29
76,269,222,138,89,27,25,30
84,263,244,138,90,28,25,31
81,241,251,136,90,26,25,36
69,232,253,122,94,26,23,32
79,220,284,117,83,25,24,33
76,203,335,102,77,23,22,31
70,211,309,104,76,24,23,30
73,221,342,104,90,24,21,26
73,192,337,120,78,22,22,24
63,187,320,128,71,23,21,23
61,237,273,124,74,24,22,23
57,226,277,125,89,24,20,25
61,223,228,119,84,25,22,23
72,223,263,151,87,24,22,24
75,232,263,146,83,25,22,29
76,217,269,149,80,26,22,31
75,223,268,158,64,22,21,28
76,231,267,159,62,24,20,31
73,238,225,128,66,26,21,32
72,227,218,127,69,25,21,30
69,196,225,138,79,24,20,28
80,213,222,126,79,23,21,29
80,207,226,126,78,21,21,24
83,199,250,112,98,20,18,28
85,235,247,119,113,22,22,27
96,270,233,102,107,22,23,27
97,272,246,127,106,22,22,26
93,298,261,131,102,22,23,30
84,305,246,133,111,25,23,27
84,297,269,126,95,25,21,28
73,257,272,143,102,25,21,29
62,243,266,127,101,25,22,29
70,231,249,129,102,25,23,29
82,243,262,127,73,24,24,30
74,211,236,151,78,22,23,27
73,203,239,148,80,25,24,28
73,198,231,150,91,26,24,28
80,209,234,144,92,26,21,25
80,212,238,135,92,25,21,30
80,224,234,118,87,27,20,31
80,232,213,100,87,25,20,30
82,257,211,101,81,25,22,32
72,240,236,114,97,27,25,33
61,227,237,134,92,29,25,27
65,220,232,123,92,27,27,31
73,227,225,125,87,26,27,32
70,201,273,127,83,27,28,31
62,193,246,114,59,25,25,29
63,191,240,90,59,22,23,31
76,208,299,96,84,25,22,28
67,217,302,102,90,26,21,27
71,256,268,111,105,25,18,29
75,254,286,130,121,25,19,30
74,252,293,149,124,28,19,29
59,235,260,149,109,25,20,28
63,220,255,146,101,25,19,28
65,201,265,143,121,31,20,24
63,197,238,150,123,34,22,24
60,213,226,136,118,32,23,23
75,250,236,133,116,34,22,25
71,248,251,131,122,33,23,25
76,252,273,125,95,31,23,28
81,260,282,94,76,30,23,28
83,266,264,88,77,29,23,30
72,256,246,82,76,27,23,29
80,258,265,110,77,26,22,31
79,226,239,118,75,23,23,29
79,245,255,124,70,20,23,30
79,221,289,142,77,21,23,29
89,211,299,148,85,23,25,32
83,213,270,124,89,23,25,30
75,216,253,121,83,22,26,33
66,216,255,144,105,23,25,31
80,217,233,135,106,25,26,32
81,198,204,130,102,23,27,31
81,188,212,136,105,26,27,32
82,186,241,143,119,27,23,27
85,176,215,127,100,27,25,27
76,181,213,142,104,24,25,30
81,204,256,143,106,25,24,30
86,236,264,161,101,21,25,28
95,298,251,146,84,21,27,30
110,329,250,139,83,20,25,31
107,329,254,115,74,23,24,29
93,310,248,114,78,23,22,24
88,293,257,98,76,25,20,31
82,256,264,101,80,24,19,31
67,207,273,98,96,29,20,33
77,270,315,123,105,31,18,33
78,271,304,132,108,30,20,34
81,304,300,122,106,29,20,31
77,284,296,120,104,31,20,29
70,279,290,128,98,26,20,31
72,271,232,132,88,21,22,34
71,288,215,121,74,22,21,34
73,266,216,120,76,22,22,34
72,264,209,151,83,22,21,35
76,281,199,153,73,21,19,32
66,235,197,133,74,23,18,28
68,222,227,134,75,24,20,28
65,208,208,191,110,29,18,26
77,254,236,174,112,30,21,28
75,222,238,166,113,31,21,32
72,213,235,178,119,30,21,30
76,219,211,201,157,30,20,31
79,252,237,148,139,28,22,34
68,209,202,138,131,25,20,32
63,227,258,140,130,25,20,28
62,228,256,155,126,24,19,29
60,219,244,135,83,23,19,30
58,195,225,129,64,23,18,29
62,197,229,130,64,23,19,30
64,187,192,130,62,22,20,31
69,194,227,84,64,26,22,31
66,186,234,80,66,24,21,28
64,188,235,112,106,25,21,27
62,212,253,123,122,27,23,27
69,205,233,122,122,27,21,27
68,246,231,138,122,25,22,25
73,268,237,142,123,26,22,27
75,255,270,126,97,23,22,27
73,229,246,140,84,27,21,25
75,270,247,176,94,28,23,23
76,228,235,174,90,28,22,25
72,210,221,164,80,29,23,24
73,213,219,173,83,28,25,23
75,232,252,169,79,22,24,23
100,237,258,141,71,22,24,23
100,239,248,132,85,24,24,22
99,249,279,163,93,21,22,21
98,244,266,158,100,26,21,21
99,226,247,160,113,27,22,24
71,251,345,183,117,26,21,34
72,291,345,184,117,26,21,36
84,316,323,156,118,27,24,38
85,319,337,148,118,24,24,39
88,328,330,137,109,25,24,42
83,275,212,93,104,25,24,35
82,260,221,88,97,23,24,34
68,210,230,91,89,21,22,32
64,204,192,107,77,23,22,31
58,206,215,98,66,20,22,27
71,216,218,100,64,22,22,26
69,194,202,108,86,25,22,29
72,235,297,135,109,26,25,29
78,235,292,118,105,22,25,29
79,234,283,122,104,25,25,29
74,264,333,142,127,24,24,30
73,288,334,139,121,23,23,26
70,267,244,113,105,23,22,28
68,268,249,141,108,26,23,30
69,278,247,148,112,26,23,29
60,250,179,129,101,28,24,29
61,229,253,131,90,27,26,28
72,229,259,140,87,30,26,31
69,223,248,113,85,28,25,30
73,209,252,114,88,28,24,30
80,212,260,136,83,26,26,32
81,215,205,152,103,26,25,32
78,218,205,147,102,22,23,26
80,232,236,149,102,23,24,28
73,269,228,148,107,23,23,32
77,294,230,126,110,25,21,32
77,278,234,115,93,25,20,32
72,275,246,125,101,28,20,32
67,274,209,129,109,29,19,29
72,233,213,121,101,28,19,28
66,194,197,123,98,26,18,26
64,261,213,124,94,27,17,26
65,304,250,120,85,26,17,25
73,323,286,128,78,22,18,28
74,340,285,130,77,24,19,31
67,332,299,127,65,23,20,31
66,290,276,111,67,22,19,31
66,244,251,114,72,21,18,32
62,224,248,128,84,25,18,30
55,225,245,136,93,25,18,25
64,241,255,279,141,32,18,25
69,246,292,300,163,38,21,27
75,264,305,297,165,39,23,29
75,266,303,289,158,39,23,30
86,258,309,286,167,42,22,36
81,236,302,153,135,36,22,36
75,230,277,114,110,31,21,33
70,196,245,117,105,30,22,33
80,183,250,114,103,27,22,32
75,168,234,126,75,23,23,30
81,190,228,122,69,24,24,34
82,167,213,123,65,24,23,35
82,169,255,125,67,23,22,33
73,160,218,142,85,25,21,33
77,201,232,136,98,26,22,28
80,192,234,137,95,25,21,26
89,204,225,131,93,25,21,25
95,234,160,126,94,23,19,26
95,250,222,106,79,23,21,28
85,204,230,102,72,21,19,27
78,208,212,112,74,23,18,27
68,218,241,129,90,24,19,28
57,185,249,129,90,26,20,27
56,188,217,133,95,24,19,29
60,194,242,134,89,24,19,29
59,182,248,130,86,24,19,30
62,162,237,125,68,22,20,29
69,180,252,117,60,21,20,31
71,167,281,111,49,23,21,32
73,167,247,122,72,27,22,32
72,161,242,121,74,27,23,30
78,186,236,109,75,27,23,32
71,186,270,118,75,28,24,33
70,203,233,130,136,31,21,29
72,265,266,123,137,30,22,30
72,273,266,117,135,30,21,30
64,270,271,117,136,29,20,29
63,258,247,122,153,34,18,33
72,269,237,115,137,36,19,35
70,218,191,102,124,36,18,35
73,229,236,109,125,36,19,37
74,246,224,113,132,36,19,39
75,260,264,107,134,31,19,33
66,225,270,128,109,27,19,34
91,301,281,133,112,27,22,34
98,296,299,128,113,28,23,32
101,286,301,139,122,29,22,30
105,278,244,141,109,29,22,31
111,304,288,118,102,29,61,34
93,234,281,111,97,28,65,32
86,230,226,119,101,28,67,32
76,211,272,118,81,26,68,31
75,220,305,125,80,27,69,30
84,215,267,146,82,28,41,26
77,200,262,153,86,29,31,28
75,198,274,144,84,27,29,29
78,215,227,147,86,26,27,29
80,246,186,143,82,25,25,34
64,238,256,127,81,23,25,32
64,235,274,129,79,22,24,31
64,234,290,135,80,23,23,30
67,247,288,128,74,25,22,36
71,206,278,116,72,27,23,33
67,219,214,123,64,24,21,35
72,257,237,124,67,25,23,37
73,284,199,116,86,27,22,36
79,279,222,116,88,26,23,31
69,273,228,124,81,26,22,30
68,246,239,121,86,28,24,30
68,238,206,117,81,26,22,28
66,224,210,158,82,40,41,33
53,229,204,164,95,58,80,40
57,255,227,159,101,60,86,41
70,255,206,165,100,61,89,40
73,245,242,189,112,61,93,39
82,228,251,160,98,56,86,34
91,211,255,152,86,41,55,32
92,206,257,166,80,37,45,29
84,228,274,153,80,36,38,29
79,270,241,121,66,36,28,30
72,296,238,135,64,30,28,31
63,306,277,146,61,32,28,34
64,311,302,151,71,34,62,36
62,311,366,157,68,36,75,39
61,264,384,157,68,37,77,39
62,301,407,156,72,36,78,40
62,294,372,152,84,30,77,36
57,287,350,130,89,36,55,35
57,306,294,117,92,32,36,32
70,347,274,149,98,31,33,30
81,348,288,146,95,31,30,29
83,343,294,137,85,31,29,28
82,350,303,148,85,23,28,26
82,322,290,145,81,23,29,26
84,296,285,120,81,23,27,32
76,238,282,121,92,24,30,33
74,235,282,116,93,28,39,33
87,251,255,107,80,29,39,36
94,269,275,125,80,29,38,39
84,271,294,122,81,29,39,36
86,266,250,106,71,30,37,33
90,277,252,107,67,28,26,35
84,248,258,117,75,26,25,35
75,233,276,106,75,27,24,31
75,222,251,101,63,26,22,32
73,229,235,98,85,26,22,34
85,282,260,118,115,23,24,35
79,288,288,152,133,29,25,32
84,292,230,148,132,29,25,38
87,307,274,166,138,31,26,39
97,365,282,172,126,31,28,39
84,326,262,161,111,30,27,36
84,323,230,120,98,27,27,36
82,333,266,126,99,27,27,36
83,332,255,110,95,27,26,34
75,336,256,117,112,28,25,33
71,334,333,123,101,30,24,34
85,352,326,126,89,29,24,34
85,346,299,119,87,28,24,27
93,340,275,119,105,29,27,29
87,270,311,130,103,27,32,39
90,262,209,117,102,38,78,53
82,254,220,111,99,39,88,53
77,255,244,112,109,39,92,56
68,241,269,112,98,37,93,59
84,236,221,77,82,37,92,52
86,244,221,84,86,28,62,40
85,243,258,121,87,26,48,40
93,233,264,133,88,27,41,41
90,241,234,125,77,30,36,33
76,273,252,130,73,29,34,37
71,257,264,137,71,26,27,35
72,252,260,115,74,25,25,36
66,248,315,116,66,25,22,33
67,231,324,141,73,21,22,33
73,189,305,149,75,23,21,30
82,196,334,141,89,24,21,32
76,184,330,140,94,23,21,31
85,215,290,134,97,23,27,29
88,233,296,113,100,25,35,41
91,268,317,117,96,24,48,46
94,414,364,134,84,24,61,52
93,420,345,125,74,25,61,57
81,415,321,119,71,25,77,60
81,409,352,141,75,24,74,54
73,398,341,136,77,26,69,50
63,249,277,128,74,28,63,48
66,247,275,146,76,27,63,41
71,229,291,167,87,25,38,42
65,224,277,154,84,25,39,40
76,217,341,147,82,23,35,41
72,199,321,154,95,22,30,33
73,194,315,150,107,25,29,34
68,210,295,126,97,25,30,41
75,228,266,128,102,25,27,40
72,246,191,132,105,27,28,41
75,262,183,121,95,25,27,43
71,249,183,114,80,22,25,42
71,220,193,139,82,24,25,29
81,254,186,131,65,23,26,32
87,299,267,146,67,22,25,30
82,302,272,147,70,25,23,30
90,307,295,143,67,27,23,30
91,319,319,123,64,26,24,31
87,297,333,125,78,27,62,33
95,338,409,110,78,27,72,37
106,386,442,113,73,28,83,40
110,448,443,128,87,41,125,43
113,463,423,123,95,44,134,50
108,466,413,120,89,43,129,48
91,402,272,113,86,44,128,44
79,358,221,146,109,43,123,42
66,272,200,145,117,40,92,39
61,238,294,151,116,39,86,45
59,250,290,151,119,42,76,45
53,240,302,156,121,41,72,44
53,215,290,144,118,40,70,48
53,225,287,136,104,31,86,57
57,247,248,134,96,28,82,48
58,242,251,134,89,24,81,50
58,242,247,137,88,25,80,51
58,246,266,109,70,26,81,52
60,243,259,105,67,25,54,42
67,290,272,98,70,30,62,47
73,271,280,109,87,33,64,62
74,292,271,95,88,35,90,63
74,297,272,95,84,34,94,70
78,307,277,105,87,35,100,107
83,245,216,118,85,37,143,146
75,272,246,113,67,36,161,153
81,308,270,122,63,35,156,153
85,311,250,118,65,35,156,151
88,331,262,110,64,35,152,129
74,337,279,107,79,27,108,81
77,300,261,102,81,30,79,54
80,256,247,88,81,32,58,58
83,247,272,113,97,38,84,70
76,209,322,115,105,39,88,90
75,196,313,102,97,41,96,108
80,235,308,106,95,45,96,115
75,216,314,113,95,44,96,115
68,227,325,92,76,42,107,108
75,282,267,88,69,40,107,113
77,290,295,94,63,40,99,106
67,266,316,95,63,35,98,107
74,277,311,88,65,35,102,111
79,299,321,90,87,37,85,125
70,248,323,133,96,43,85,131
76,269,316,145,102,47,108,121
77,275,307,140,101,47,113,115
66,258,311,142,101,48,113,120
66,247,302,153,83,44,100,108
78,254,353,120,71,39,109,76
71,249,336,101,61,32,94,88
76,283,325,123,84,31,102,112
86,330,341,134,95,31,98,103
84,319,314,120,100,31,96,100
78,329,291,117,105,36,77,100
76,311,278,124,110,38,98,91
73,280,307,117,101,38,82,53
67,244,279,100,91,37,85,54
65,240,280,102,86,37,84,49
59,202,356,101,74,36,84,66
61,217,361,112,70,34,44,64
62,217,328,101,60,37,54,64
56,192,345,100,81,42,69,69
53,185,349,135,77,42,71,75
51,192,229,141,82,38,70,61
58,248,262,125,77,38,71,61
58,244,273,122,79,36,61,64
54,248,232,172,88,35,38,54
56,255,274,157,99,37,37,45
58,270,276,153,97,37,36,42
48,217,253,157,99,37,32,46
50,229,256,159,107,36,35,42
52,252,263,123,87,33,61,42
53,259,238,104,87,35,61,41
57,291,283,114,90,35,63,38
65,302,273,118,93,33,64,37
61,288,260,111,83,33,65,36
64,266,270,118,87,29,41,37
61,251,249,137,93,33,81,47
62,235,270,132,115,36,81,52
54,213,286,159,119,38,81,50
54,216,297,161,122,39,81,50
50,219,318,152,115,39,91,108
49,248,329,135,111,33,58,106
47,255,293,133,87,32,80,108
62,287,302,95,79,29,83,109
63,295,308,91,81,27,84,109
64,298,278,71,84,32,74,56
68,281,299,93,79,31,74,58
66,241,281,100,77,30,56,54
50,187,246,126,87,32,74,53
47,177,234,128,81,31,74,52
62,221,262,133,79,27,74,47
60,224,239,124,84,27,74,45
59,213,246,121,87,27,67,42
74,247,250,90,78,24,41,42
74,261,261,92,78,27,73,41
66,226,263,87,81,26,71,46
64,213,249,90,79,25,70,44
63,214,224,87,80,29,72,42
52,209,244,100,75,30,72,40
56,193,247,118,97,31,49,98
49,172,215,124,100,30,75,100
49,192,298,124,93,34,76,102
55,196,306,125,92,32,82,103
55,164,293,114,95,33,81,105
63,229,364,91,77,31,75,67
66,230,368,89,77,33,57,59
67,215,298,98,82,31,73,55
63,211,294,99,81,31,69,53
62,229,320,106,85,33,71,48
55,180,237,115,87,33,71,30
52,182,223,142,83,29,66,36
51,195,259,139,85,29,45,38
64,228,263,141,85,25,48,42
61,222,237,134,79,25,71,42
55,196,243,141,74,27,72,43
56,206,244,127,70,30,72,45
57,207,226,141,76,32,72,46
43,201,253,146,97,33,66,42
41,188,259,150,103,32,36,40
43,225,225,138,100,31,33,38
57,249,234,155,101,31,29,33
54,248,248,149,100,29,27,29
54,234,224,146,81,28,27,30
55,231,243,146,77,28,26,33
54,208,255,148,76,27,25,35
41,171,246,151,96,27,27,39
44,154,224,147,91,26,24,37
54,180,211,141,91,27,24,39
58,189,225,143,89,29,25,38
60,203,217,143,90,30,24,38
58,216,230,98,69,30,23,31
65,242,266,131,74,30,25,31
59,224,280,149,94,31,25,27
54,220,233,144,90,30,22,26
56,208,225,140,93,30,23,24
57,199,240,145,94,27,23,23
45,161,202,109,85,26,19,25
40,164,200,87,72,26,20,29
42,236,244,90,74,24,21,29
45,284,244,104,75,36,28,30
47,289,284,104,83,46,28,30
49,294,278,101,84,47,30,27
59,302,285,95,74,50,31,25
58,255,251,116,72,50,31,27
56,226,310,110,79,43,26,28
58,222,260,102,80,35,27,29
62,239,268,99,76,36,27,32
54,230,280,104,82,30,25,33
61,253,301,77,85,31,24,33
57,223,243,94,87,30,23,32
56,245,258,107,77,29,23,31
51,226,277,108,87,28,22,30
57,252,265,106,89,27,22,29
51,232,244,143,97,27,21,26
49,235,266,147,95,27,22,27
50,224,257,146,95,26,21,27
51,230,243,147,93,24,22,26
45,192,235,163,87,26,25,26
42,175,282,132,72,25,25,27
45,167,257,118,67,24,22,26
44,153,309,113,63,24,22,26
54,155,295,131,61,28,20,25
55,159,300,131,72,26,18,24
74,173,249,137,80,28,18,24
75,210,245,136,74,27,21,24
81,253,211,141,74,28,22,26
76,288,223,122,65,25,21,33
77,304,214,98,56,31,22,35
64,342,278,91,45,29,22,35
68,324,291,159,60,31,21,38
60,290,267,165,68,32,21,36
68,275,265,165,87,32,23,32
67,254,256,167,86,29,23,30
69,207,187,180,87,32,24,30
68,203,183,136,79,32,25,27
65,200,199,132,91,30,24,28
54,171,208,134,88,31,26,28
57,208,221,139,87,29,25,29
54,207,242,127,90,25,23,28
52,242,314,116,95,26,25,30
61,266,294,115,88,29,26,33
62,272,293,117,83,29,23,32
61,260,290,105,90,29,23,30
62,257,296,110,87,28,24,33
58,221,212,113,85,33,24,32
54,245,248,142,100,31,25,29
55,248,248,141,97,29,26,30
51,236,238,145,88,31,26,34
50,277,223,136,86,31,26,31
57,294,219,129,95,27,26,32
52,247,238,100,84,31,26,30
51,238,232,97,82,34,27,31
51,235,251,95,88,33,27,27
45,193,273,112,90,44,35,25
42,178,288,131,90,46,37,24
39,177,238,119,88,43,37,26
41,189,248,118,90,43,36,25
41,186,248,148,84,44,36,25
42,185,218,145,82,33,28,26
36,170,206,126,67,29,24,24
38,179,228,126,68,33,24,25
39,169,219,143,89,31,23,28
43,188,207,129,107,34,25,32
45,183,228,189,145,36,23,32
51,197,212,208,149,36,24,33
54,201,199,212,152,32,22,32
53,198,212,206,142,31,23,30
51,193,211,201,141,29,24,26
50,187,179,145,108,26,25,25
58,215,198,130,109,27,24,27
54,205,229,123,106,28,27,27
54,208,249,120,108,30,26,27
55,197,248,113,93,27,23,27
55,195,249,101,88,27,23,29
42,195,266,106,84,24,22,28
44,209,238,126,95,26,19,29
40,194,198,130,90,26,22,28
41,196,195,129,100,25,24,34
49,215,222,132,105,25,25,33
48,194,212,129,104,26,26,33
48,205,233,115,89,27,26,33
57,227,245,107,97,25,25,33
66,251,253,121,93,26,25,29
65,235,232,122,87,27,23,28
65,230,261,114,110,27,21,28
65,220,248,108,108,25,22,30
66,254,234,121,99,25,22,32
55,225,259,123,95,25,20,30
48,219,275,119,102,26,22,29
52,267,242,110,75,25,24,31
51,259,229,111,74,25,23,28
41,217,247,102,86,24,20,25
41,223,242,98,93,23,25,24
43,235,232,99,82,21,22,24
54,196,288,105,81,19,23,24
55,210,312,121,83,18,26,24
54,200,307,118,75,20,28,25
55,195,282,104,67,20,25,27
59,199,281,99,68,22,25,32
46,177,255,97,67,21,25,36
50,147,228,87,64,21,24,36
54,145,211,85,65,22,22,38
55,178,215,108,66,23,22,36
59,189,219,126,80,23,24,33
66,183,179,123,83,26,22,29
63,185,182,119,85,27,21,29
64,202,196,118,88,28,22,27
64,187,216,101,89,27,22,27
58,158,197,98,84,27,21,30
50,175,209,98,82,25,21,30
48,218,249,97,75,24,22,30
48,229,244,120,77,23,21,31
49,247,226,134,78,25,21,31
59,254,242,119,73,27,21,29
58,258,250,119,79,26,21,27
63,252,210,122,81,27,22,29
59,233,205,103,89,26,20,28
60,244,204,89,83,22,19,27
48,239,219,100,88,20,21,24
54,246,183,130,103,24,25,25
49,221,180,132,103,23,24,23
49,224,203,132,93,22,26,22
43,195,214,131,98,24,27,22
48,217,194,128,98,24,25,22
47,197,190,99,79,20,21,21
44,187,216,91,82,20,21,21
46,185,186,97,82,22,20,21
47,182,174,107,91,24,20,21
54,193,170,102,84,26,19,24
63,212,242,113,79,26,20,25
80,324,246,112,72,27,21,29
81,338,273,106,67,27,21,29
95,364,304,90,48,25,21,34
90,346,336,96,65,27,24,33
80,343,297,111,73,28,24,32
64,242,273,123,76,28,25,28
62,217,278,130,82,27,24,28
45,208,241,128,84,30,23,26
45,209,199,133,83,26,21,25
46,190,201,130,86,27,20,27
47,191,252,116,86,27,21,28
59,259,265,103,86,25,21,30
52,236,278,110,90,26,20,27
58,249,303,106,95,26,21,29
58,258,305,79,98,25,21,28
59,280,278,86,99,25,18,28
48,226,241,95,98,25,20,26
54,214,239,91,104,23,21,25
47,251,208,115,108,25,20,23
46,254,222,126,101,26,20,21
52,266,229,122,99,27,23,23
52,277,237,127,105,27,23,25
52,280,234,129,97,26,23,25
50,239,250,100,77,26,23,27
53,253,278,92,69,23,24,27
49,211,274,98,99,23,22,25
46,188,269,91,96,25,20,23
49,212,295,93,93,28,23,25
53,197,277,112,99,26,23,25
50,154,248,115,124,28,22,24
53,168,252,109,102,27,22,26
56,193,273,104,97,29,22,27
53,183,246,107,96,26,20,26
52,188,245,95,100,28,21,28
53,192,234,83,75,26,22,28
46,186,214,113,83,28,23,26
45,185,217,121,91,27,24,26
50,205,212,119,101,31,25,25
51,221,208,124,101,32,24,23
54,218,191,139,103,32,24,24
56,221,196,129,103,31,23,24
65,222,171,122,100,32,25,26
55,181,161,120,97,27,23,24
63,212,217,122,96,26,25,28
71,230,232,110,102,29,25,31
78,234,242,111,104,29,26,35
78,247,230,116,107,28,25,36
82,267,230,110,99,27,25,35
78,241,217,100,89,28,23,35
74,227,237,107,77,26,24,34
70,245,222,90,71,24,23,30
61,219,245,89,68,25,24,29
63,203,263,100,70,27,25,29
60,208,249,97,71,26,23,27
64,231,216,99,98,26,23,26
65,216,248,127,97,25,23,27
66,231,229,133,95,27,22,26
64,252,226,128,114,30,21,30
63,235,204,131,114,30,22,31
53,212,222,121,94,32,27,29
45,203,183,141,110,33,26,27
53,191,218,143,110,32,26,29
67,186,211,147,93,29,30,33
71,232,212,164,108,33,34,34
70,267,212,190,133,32,30,35
78,270,209,157,123,31,30,37
77,280,216,160,120,29,31,36
65,275,201,155,123,29,28,29
63,250,239,172,137,25,25,28
64,216,224,154,112,25,25,29
57,209,239,168,114,26,26,30
49,178,191,159,127,29,24,28
46,176,197,167,129,28,23,28
47,193,219,133,104,27,22,28
45,182,219,128,111,27,22,26
43,187,216,117,109,28,21,24
41,188,237,133,98,25,21,24
39,163,237,129,109,28,22,23
39,127,190,146,120,31,23,25
53,203,206,146,122,30,23,28
85,294,256,148,127,31,26,34
105,339,242,134,137,32,33,43
110,351,261,140,126,30,34,43
108,352,253,131,119,25,33,41
102,328,234,129,109,27,32,40
84,263,166,119,101,23,30,37
62,207,203,125,80,22,24,28
60,198,208,137,76,22,26,30
58,197,211,119,65,24,27,30
59,182,223,114,58,20,27,29
49,157,286,113,46,21,27,28
42,164,266,144,53,21,25,25
35,178,266,123,52,20,21,22
37,214,264,137,73,23,21,24
41,221,276,144,106,28,23,26
44,237,209,146,112,27,21,24
45,261,207,130,121,29,24,26
46,257,190,131,123,30,24,25
44,224,199,124,111,27,26,24
40,211,168,123,95,28,24,23
39,196,200,139,120,31,25,24
41,178,198,120,115,33,25,24
41,163,206,113,113,34,24,25
43,168,222,112,112,34,20,25
47,181,237,127,104,32,21,25
47,174,208,125,70,28,19,24
47,152,211,130,64,25,21,23
44,191,304,131,83,23,24,22
43,188,295,152,82,24,23,21
41,198,298,141,85,25,25,22
35,194,299,124,82,26,25,20
34,193,305,120,77,25,23,21
33,152,193,122,61,24,20,22
34,182,177,105,68,25,21,21
32,179,237,105,65,27,21,20
34,175,257,118,73,28,21,21
37,200,256,128,87,28,22,18
40,203,250,135,84,30,22,17
51,207,251,129,83,27,24,19
56,193,211,122,83,24,22,19
55,197,187,111,82,22,22,19
54,179,164,111,71,21,20,22
53,184,167,107,72,23,19,21
41,156,197,113,77,25,16,20
37,177,163,118,75,26,19,20
40,202,191,142,68,25,19,23
42,207,192,137,65,27,20,23
41,210,192,139,71,24,23,24
45,220,153,129,76,25,23,24
42,220,162,154,86,25,23,24
40,205,131,132,91,29,25,22
42,195,129,122,89,27,24,22
41,184,126,113,84,27,23,22
40,198,168,138,83,25,23,23
40,180,159,111,75,26,22,23
46,222,156,110,72,24,20,25
46,239,156,112,72,23,21,23
46,238,155,122,79,26,22,23
47,241,154,112,85,26,22,23
47,257,151,111,95,27,21,23
45,227,155,126,102,25,22,22
39,200,155,128,104,26,21,21
43,211,169,122,100,25,22,25
42,183,149,100,83,23,22,24
47,208,149,90,64,21,23,23
42,199,145,66,47,20,22,21
47,222,151,56,40,20,23,24
45,217,138,64,46,21,24,22
44,236,123,79,57,21,27,23
45,201,118,94,66,24,26,22
43,190,114,99,74,23,25,23
39,168,117,109,76,24,24,20
40,165,114,99,76,24,23,22
48,125,102,98,75,26,21,25
42,119,145,87,69,25,20,25
43,119,148,85,71,26,22,26
43,110,135,93,71,27,23,28
41,94,134,97,66,25,22,34
30,108,132,86,57,23,21,33
31,112,85,81,56,21,21,34
38,130,106,76,40,23,22,39
42,139,113,44,33,23,20,37
50,203,143,37,33,23,22,33
49,193,152,34,31,22,22,38
49,189,162,60,44,25,22,37
45,188,160,81,54,22,23,33
43,198,165,85,58,25,24,33
35,132,140,83,61,25,21,31
39,155,136,84,66,26,22,24
41,152,129,82,63,26,20,25
40,147,131,63,59,25,19,29
45,177,153,71,57,24,21,34
57,218,166,76,54,23,22,35
57,207,166,75,48,25,22,35
54,206,155,59,40,24,22,38
58,204,150,60,35,24,22,35
57,167,149,69,34,23,22,31
49,120,136,93,65,28,24,31
53,126,136,100,75,28,30,45
56,152,143,100,75,29,31,47
52,149,128,103,74,35,30,47
50,150,172,98,74,34,30,58
43,146,176,70,47,31,28,58
43,172,185,61,32,33,23,49
44,179,186,61,32,31,22,47
45,178,215,57,31,24,24,47
43,177,158,49,28,24,23,37
44,227,152,61,41,24,24,37
37,201,138,62,45,20,23,34
40,208,141,63,46,22,26,33
42,210,93,60,48,24,24,33
42,260,160,56,50,25,24,35
52,242,172,53,49,25,31,37
53,241,176,59,42,28,30,42
46,217,167,64,55,31,30,41
47,218,168,66,58,31,106,86
49,152,116,66,56,32,113,89
40,138,142,57,50,32,112,90
47,178,155,51,51,29,116,93
47,177,161,43,38,25,116,93
47,174,202,49,30,30,59,58
44,172,195,46,30,28,46,53
41,143,163,45,32,33,42,50
32,86,145,42,35,36,46,79
30,81,138,41,34,41,98,84
27,84,59,25,33,38,98,82
27,100,53,26,33,39,101,82
28,104,51,26,27,40,102,83
26,102,47,25,25,42,97,57
25,101,44,25,24,42,45,49
24,91,41,25,24,42,40,47
26,65,35,21,26,44,30,42
26,60,44,20,29,48,28,40
29,64,55,20,29,45,23,31
29,66,56,22,29,44,23,29
29,66,56,23,30,47,75,33
33,63,55,23,29,48,94,78
30,57,46,23,26,43,97,89
29,39,33,24,28,47,99,90
28,35,31,23,29,50,99,92
28,33,30,20,31,62,78,116
25,28,27,20,33,66,90,112
25,26,26,20,37,80,91,106
25,24,24,20,44,89,91,106
26,22,24,21,48,98,106,105
28,21,25,23,50,98,101,122
26,25,26,22,49,97,76,113
32,41,26,23,47,90,102,117
35,43,24,23,42,90,102,121
36,44,22,24,38,86,88,119
36,44,21,23,34,86,90,73
42,45,21,26,40,96,105,85
40,28,22,25,43,97,81,79
38,27,24,24,41,89,105,91
36,27,24,24,44,86,107,93
41,25,24,23,47,83,115,125
33,20,23,22,43,70,97,114
32,21,22,23,45,82,95,114
29,19,22,23,47,96,71,105
34,17,22,22,46,99,98,107
25,17,22,21,43,99,89,68
31,19,25,19,44,104,92,70
33,19,25,19,42,95,95,80
36,22,26,20,72,105,92,97
32,22,27,20,75,108,89,98
34,24,28,22,76,106,90,98
30,25,25,23,78,101,102,93
29,25,25,25,80,106,100,84
26,24,24,27,53,85,102,64
30,24,22,26,50,86,82,91
28,23,23,25,50,82,104,95
31,22,24,26,49,96,94,96
33,23,25,24,47,93,100,98
33,21,24,20,45,92,101,104
29,22,24,21,43,90,96,79
30,23,22,21,42,95,93,75
25,22,22,21,35,83,91,74
21,21,21,24,36,77,87,75
28,22,21,23,38,75,104,102
30,22,22,23,39,78,121,106
29,19,22,24,38,74,105,102
31,21,21,23,43,84,104,103
31,21,23,21,40,97,105,116
26,21,24,24,46,106,85,83
25,20,23,24,45,102,59,77
25,22,24,23,46,101,80,82
24,20,24,26,42,97,95,107
27,22,23,30,58,90,95,91
26,21,23,28,55,83,95,92
28,24,23,27,55,82,95,93
30,23,24,27,57,86,73,92
31,24,24,24,59,87,77,80
28,23,24,18,45,79,75,96
28,21,24,22,46,84,97,93
25,22,25,23,46,82,98,94
24,21,21,24,44,85,99,95
25,21,21,24,41,79,82,106
27,24,21,26,42,83,98,95
26,26,23,25,35,73,77,97
26,25,22,26,32,72,77,95
24,24,23,26,31,62,103,114
24,24,24,26,31,59,104,90
22,20,24,24,31,57,102,89
22,19,22,22,33,59,108,90
24,19,24,21,39,70,109,91
25,21,23,21,43,87,85,60
25,23,23,23,43,99,108,84
25,25,23,24,44,106,103,82
26,25,24,24,49,111,99,79
25,23,24,24,47,114,99,79
22,21,24,24,48,112,99,79
26,20,24,23,47,102,71,56
24,19,22,22,48,101,71,59
26,18,23,22,42,103,92,86
27,21,22,22,42,93,93,87
28,22,23,21,37,83,92,91
24,21,22,21,38,82,92,87
24,21,23,20,35,74,79,80
21,20,23,21,39,89,48,49
20,21,24,20,39,91,74,53
20,22,25,20,39,91,91,61
20,24,26,19,38,92,96,64
23,23,25,20,39,97,100,71
23,25,22,19,40,79,100,70
23,23,22,20,41,79,98,74
23,23,21,20,41,79,91,87
23,20,21,22,40,78,86,90
22,22,23,21,37,77,88,86
22,22,24,23,36,74,84,87
23,21,25,23,32,69,86,81
22,21,24,23,34,80,80,52
22,22,25,21,38,83,98,77
23,23,23,22,38,78,92,87
22,24,23,20,37,82,93,89
22,36,23,21,37,81,71,88
25,35,23,22,35,72,76,89
24,37,22,23,33,72,77,65
23,36,22,24,34,76,80,51
23,34,21,23,35,77,82,79
23,24,19,22,35,81,100,80
21,23,19,22,36,82,102,80
19,21,20,22,37,85,99,78
20,20,20,20,38,86,99,79
21,20,22,21,37,91,100,69
20,21,22,20,35,100,83,74
21,22,23,19,36,97,120,78
23,23,22,20,36,93,111,78
22,24,23,20,37,104,111,77
21,22,22,19,41,108,110,63
21,24,22,19,44,104,110,53
21,23,21,19,42,108,62,87
22,22,20,17,54,134,95,89
23,21,20,17,56,127,92,91
23,23,22,19,54,117,95,87
24,19,22,18,53,115,94,88
24,20,21,19,57,123,89,53
23,22,22,20,46,97,76,83
24,24,22,23,40,97,78,82
26,22,21,22,38,97,74,83
25,23,20,23,36,94,75,84
25,23,22,25,33,79,75,81
23,20,22,25,33,78,61,50
23,18,22,23,34,78,62,70
22,19,22,23,33,81,80,69
21,19,23,23,34,80,78,72
22,20,22,21,39,80,82,74
24,21,22,21,43,87,92,73
25,21,22,20,48,88,95,54
25,20,23,23,51,85,96,76
25,22,25,23,52,84,99,72
25,22,25,21,52,89,98,78
23,23,26,21,48,79,78,77
22,21,25,22,45,68,72,76
22,22,25,21,44,81,46,52
22,20,25,22,43,82,38,51
22,18,25,23,42,97,72,36
23,20,23,24,40,97,73,37
21,20,22,23,46,106,76,34
21,21,20,24,48,100,88,49
21,19,20,23,50,105,91,76
20,21,19,22,46,87,86,81
20,20,21,22,48,89,90,81
22,20,21,23,40,81,92,82
22,20,23,21,35,81,84,74
22,23,22,21,34,74,84,87
22,22,21,23,35,72,85,84
22,24,22,22,32,76,93,96
21,23,22,20,34,78,92,97
21,24,21,22,35,71,92,98
21,24,21,20,33,85,91,65
22,25,20,20,35,91,69,62
22,23,20,20,37,87,51,45
22,24,20,20,35,86,67,47
21,24,19,19,40,113,74,45
21,23,21,21,41,106,88,43
21,21,22,20,44,111,89,44
23,22,23,20,44,116,90,40
23,22,22,22,48,119,79,74
25,21,22,23,47,98,92,76
24,20,20,23,45,97,79,78
23,20,20,22,39,88,91,82
21,21,19,23,39,87,93,83
21,21,21,21,36,91,91,51
21,22,21,20,35,91,84,49
21,22,23,21,35,92,82,53
20,23,24,22,34,93,70,47
20,24,24,22,34,90,91,79
21,23,24,23,31,84,112,82
20,23,26,23,33,82,105,94
21,22,25,24,33,81,109,92
20,21,24,22,34,95,108,95
22,19,24,21,37,92,88,70
23,20,23,20,44,106,58,65
24,19,20,20,45,111,65,47
23,21,18,20,53,127,79,46
24,20,19,20,54,120,102,49
24,21,17,20,53,124,106,71
25,20,21,20,49,112,107,75
25,20,21,21,48,112,115,79
25,20,23,18,40,98,103,78
25,21,22,20,38,96,96,98
25,21,23,20,42,101,95,107
23,21,21,22,43,106,99,110
22,23,20,20,41,101,96,109
22,23,20,21,41,116,97,110
20,24,22,20,42,114,81,90
20,23,21,21,39,104,91,81
22,23,20,21,36,108,87,93
22,23,21,22,38,116,96,97
22,22,20,22,34,94,97,97
22,20,19,24,38,110,98,95
21,21,20,23,44,122,86,77
21,20,20,21,46,127,82,54
22,19,21,23,53,122,61,82
24,20,23,23,56,124,119,95
25,20,26,21,57,118,123,98
25,21,26,22,52,107,125,99
24,24,27,21,53,96,127,101
26,23,26,19,48,94,126,110
25,22,24,19,51,93,99,100
26,24,24,22,50,86,106,99
26,22,23,21,48,93,106,98
27,21,22,20,57,97,106,97
26,21,21,22,55,95,99,54
25,23,21,22,53,93,87,81
24,23,19,20,51,106,89,77
23,23,21,21,51,96,88,77
21,24,20,22,37,92,89,78
22,25,22,22,37,108,90,78
22,23,23,21,43,111,73,48
23,25,24,20,44,106,81,92
26,25,22,20,53,171,81,94
27,24,22,22,64,174,100,98
26,24,23,24,81,186,103,97
25,25,23,24,80,187,106,96
23,23,24,25,82,184,82,56
21,23,26,24,82,139,96,94
22,22,25,24,82,154,77,91
21,22,24,24,66,129,71,92
21,21,23,24,62,124,68,92
23,19,22,23,61,123,87,93
23,20,22,23,56,115,83,49
22,22,22,20,45,89,94,57
24,22,21,19,44,100,95,80
24,22,23,18,44,104,96,83
23,23,23,18,54,127,81,86
22,21,23,21,54,126,67,91
25,20,25,23,57,123,87,87
24,22,26,24,59,116,89,62
25,22,27,24,62,110,87,56
25,21,28,25,53,78,89,81
24,22,28,24,51,95,88,76
20,22,25,23,50,111,56,82
24,21,23,22,48,111,95,91
24,22,21,23,46,113,97,91
24,21,20,22,44,115,93,66
24,22,20,21,42,111,93,67
24,23,20,22,41,92,89,56
21,22,20,22,40,96,93,84
20,22,22,22,40,95,93,86
23,21,20,20,41,92,95,89
22,21,20,22,42,81,95,91
24,19,22,20,53,117,96,92
25,21,23,20,53,113,51,53
24,20,22,19,52,113,77,50
26,21,24,19,52,116,96,45
26,23,24,18,56,121,102,65
25,23,23,19,46,101,104,65
24,22,22,22,45,102,103,69
24,21,23,23,45,110,98,73
20,22,22,24,51,117,80,72
20,21,23,23,54,113,74,50
23,22,24,22,53,102,94,96
23,22,24,22,58,121,92,95
23,22,22,22,62,119,101,95
24,22,21,22,57,113,102,95
23,22,21,21,50,106,101,95
21,20,19,21,50,109,82,51
22,22,20,21,46,83,82,85
24,23,20,21,38,78,83,85
24,21,21,19,38,74,83,86
25,22,21,20,43,88,84,88
23,22,20,19,44,85,83,89
23,18,23,18,40,87,82,52
21,18,23,18,42,82,48,47
20,18,22,19,45,99,38,41
20,17,24,18,39,92,33,39
20,20,24,19,37,93,68,39
22,20,23,23,38,88,68,40
24,21,25,22,39,101,68,41
22,21,25,23,36,89,70,41
22,21,23,23,36,91,70,40
23,20,24,22,36,92,49,34
22,22,24,20,36,100,70,37
20,20,22,22,38,94,73,38
22,21,22,20,36,91,100,38
22,22,22,23,42,90,101,36
22,24,21,24,41,86,115,34
23,22,23,23,45,93,107,59
23,22,26,23,49,89,107,65
23,21,24,23,54,88,83,78
23,22,25,21,49,76,84,81
23,21,26,21,53,77,74,84
22,23,25,22,51,79,91,70
24,23,23,23,48,81,92,65
27,24,24,24,44,91,93,59
27,23,22,23,49,97,98,92
27,22,21,25,45,100,84,92
26,21,19,23,42,93,59,91
25,23,23,22,41,93,85,97
23,24,23,21,43,88,94,93
23,22,24,22,43,96,90,59
23,24,23,20,43,102,93,56
25,24,26,21,46,98,93,52
25,22,23,20,44,98,69,40
25,21,23,21,53,111,84,36
24,23,23,23,52,101,84,81
23,23,25,23,55,93,95,88
23,23,24,23,52,95,97,91
23,23,23,25,52,98,98,95
23,24,24,25,45,88,98,106
28,22,24,24,41,91,103,91
27,21,25,25,37,86,97,87
27,23,23,24,39,84,113,86
28,22,24,24,46,91,111,81
29,23,25,23,44,90,106,91
24,26,24,23,45,85,99,97
26,26,22,21,45,87,95,100
25,25,23,22,45,98,76,99
25,25,23,20,43,88,93,105
23,24,22,20,41,82,100,111
23,21,20,19,42,92,106,110
22,21,21,19,42,99,105,107
23,20,19,19,42,90,106,109
21,21,20,20,39,92,98,105
21,21,21,22,38,90,82,96
22,22,21,24,39,83,81,94
22,21,21,23,40,80,80,94
23,22,22,23,39,79,79,93
24,21,21,24,39,81,71,91
25,21,19,23,39,85,103,102
23,21,19,21,38,88,101,88
22,21,19,22,38,86,103,95
22,19,19,21,40,80,103,95
21,18,19,22,40,77,103,94
20,19,19,22,40,81,81,62
21,18,21,23,42,75,76,62
21,18,20,24,44,84,77,72
21,18,21,24,44,90,87,79
20,21,21,23,42,96,89,82
21,21,22,23,41,94,92,82
20,22,22,22,40,100,95,85
20,22,25,22,37,99,90,83
21,23,26,21,34,100,81,86
21,20,27,21,36,94,96,88
20,19,27,23,39,109,100,90
20,18,26,24,36,105,103,114
21,19,24,23,37,102,106,105
22,19,22,23,37,98,107,101
22,21,20,24,38,100,90,100
23,23,23,21,36,77,84,97
22,22,22,20,35,79,91,63
21,22,24,19,34,78,88,88
19,21,23,22,36,98,91,82
21,22,25,21,33,92,92,86
20,21,24,23,36,99,102,86
22,22,24,24,39,101,88,87
23,20,23,24,39,101,87,57
25,22,26,24,38,85,93,82
23,21,23,24,39,86,94,78
27,22,24,22,39,95,86,80
26,23,24,22,42,96,87,81
25,23,24,21,42,97,87,81
24,22,21,20,42,96,77,55
25,22,22,18,42,97,84,80
22,19,21,19,39,81,70,79
23,19,19,19,36,80,73,78
23,19,19,19,34,69,73,78
24,19,21,20,36,86,73,80
23,19,23,20,36,83,64,54
22,20,22,23,37,91,121,64
24,21,21,22,36,87,124,63
23,21,22,22,39,91,125,62
24,20,20,22,37,76,125,56
23,19,18,24,37,79,126,56
23,21,20,21,35,80,60,36
20,19,21,22,45,90,91,48
22,20,21,22,44,87,103,79
21,21,21,22,44,86,106,91
23,20,22,20,43,84,109,94
24,20,22,22,44,81,111,95
25,21,22,21,39,85,102,91
23,21,21,20,40,87,94,66
24,21,21,23,39,87,94,82
24,22,21,23,39,92,91,83
25,19,20,19,37,90,99,82
24,20,22,20,37,72,88,86
26,20,24,20,38,72,84,87
25,21,26,19,38,83,90,56
23,20,28,20,42,92,90,49
23,25,28,24,45,90,92,86
22,25,26,24,40,96,102,89
20,26,25,25,37,97,104,89
22,26,23,24,39,96,98,92
23,26,19,24,38,86,104,96
22,22,18,20,35,90,92,64
21,22,19,21,44,93,106,86
21,22,22,21,44,93,103,90
20,22,21,21,42,90,103,88
21,22,23,20,40,87,98,87
22,29,23,20,40,87,133,112
25,42,24,19,30,78,107,90
25,42,21,20,31,74,105,88
25,42,23,18,32,70,103,92
26,46,22,20,31,83,113,91
29,43,22,21,31,74,87,96
27,31,21,20,34,71,86,99
27,32,21,19,31,76,86,98
27,32,20,22,31,87,88,93
25,26,20,21,34,92,87,91
22,24,19,21,37,93,70,49
22,23,21,21,38,102,70,40
22,19,21,22,40,103,72,33
23,21,20,20,38,98,90,78
23,20,19,21,42,94,74,78
22,21,20,21,39,96,111,81
24,22,19,20,38,103,111,84
23,23,21,20,41,103,110,84
21,21,21,20,42,99,96,46
22,21,22,20,34,87,97,44
24,20,23,19,35,95,111,78
23,20,23,20,34,84,114,77
24,19,22,19,33,82,114,79
24,21,24,23,38,83,114,79
24,22,25,22,41,89,113,78
22,21,24,23,46,89,60,45
23,21,23,22,43,84,86,49
23,23,25,24,43,93,120,82
24,22,23,21,40,91,120,82
26,23,22,21,40,99,124,94
26,24,21,21,34,91,126,93
29,23,20,22,42,115,126,91
30,23,21,20,39,109,96,63
32,24,21,20,41,117,125,99
32,21,21,21,40,108,124,97
31,21,23,23,40,107,130,102
31,21,23,22,32,82,113,119
30,21,23,23,37,81,124,123
28,21,24,25,35,71,98,103
26,22,26,25,36,76,113,98
27,21,24,23,35,83,106,96
23,21,23,24,39,85,112,99
21,19,22,22,36,82,105,96
20,20,23,20,34,78,101,90
23,20,22,20,41,88,92,90
24,21,24,22,42,95,87,85
25,22,24,21,39,91,77,58
25,21,24,23,41,93,65,51
23,20,21,22,42,108,79,47
21,23,22,22,37,97,116,50
20,21,20,20,38,90,126,87
22,24,21,21,42,96,131,85
24,24,20,20,39,104,137,90
25,23,21,24,40,95,130,91
26,21,19,23,38,95,133,95
26,22,19,23,37,101,133,86
25,20,19,23,32,95,129,88
