68,127,69,37,34,26,23,33
70,123,65,35,32,23,21,31
70,133,76,33,34,24,23,34
52,119,64,32,33,23,23,26
53,120,66,32,32,21,23,27
48,121,71,36,25,24,24,28
46,127,75,35,27,24,22,28
45,116,64,37,26,22,22,24
44,104,67,36,24,24,23,26
46,104,69,37,23,25,23,26
52,112,72,39,24,22,22,26
53,104,67,38,21,22,22,29
55,106,68,38,24,21,21,31
58,105,66,38,22,20,21,28
58,109,67,38,23,19,20,32
59,102,62,33,23,18,23,31
59,101,62,33,24,17,23,30
62,104,59,33,22,17,23,30
59,96,58,33,22,20,23,30
60,88,59,35,23,20,23,26
57,88,56,31,22,22,22,27
56,91,61,32,23,22,22,24
48,83,70,36,30,23,21,22
51,81,70,41,34,23,22,23
51,76,64,39,33,23,21,24
48,67,63,40,35,23,18,25
46,64,58,41,37,22,19,26
46,70,55,37,33,21,20,26
44,67,49,32,31,20,20,27
40,69,50,32,31,20,21,28
43,81,61,36,30,22,22,29
46,83,62,33,28,24,22,32
43,79,60,32,30,24,24,32
43,79,58,27,30,24,23,31
49,91,62,29,32,23,23,30
51,95,55,27,31,22,22,29
46,96,55,27,30,19,22,24
49,94,55,29,28,21,21,28
48,108,59,33,28,21,22,29
46,107,60,31,26,22,21,30
40,97,61,30,29,24,21,28
48,93,60,30,31,25,19,29
54,109,65,32,30,24,22,28
53,99,62,30,32,23,21,26
53,92,57,33,35,23,22,28
57,93,56,31,33,20,22,27
54,102,63,37,35,20,21,28
52,85,55,38,48,25,19,30
53,83,59,40,54,26,18,31
54,87,62,41,55,27,20,27
59,90,64,43,57,29,20,30
58,88,60,44,61,30,20,29
59,93,60,44,61,27,23,27
63,88,60,49,63,31,26,32
66,83,57,50,61,29,24,33
62,86,62,56,64,31,25,35
64,78,58,58,65,33,28,37
64,83,67,56,55,32,29,37
66,95,74,57,50,30,33,35
62,96,73,54,49,30,34,36
60,99,78,48,41,28,32,33
63,107,80,43,34,25,30,30
60,98,79,42,34,26,27,28
55,87,70,36,36,22,19,26
60,89,72,42,36,24,19,26
59,82,65,46,39,26,19,26
56,73,64,58,52,28,18,24
56,82,61,62,61,33,19,26
53,91,69,60,56,35,18,27
47,106,87,60,57,35,18,24
43,104,81,57,56,34,20,24
37,103,81,50,51,34,22,26
34,101,80,48,41,30,21,26
38,100,75,48,41,28,25,29
35,81,52,45,46,27,24,28
38,78,51,48,51,29,26,30
39,79,47,44,49,27,27,27
41,78,49,44,50,28,27,27
36,87,62,50,57,31,26,24
35,88,63,49,54,31,26,24
35,96,77,54,75,35,34,28
35,97,79,53,77,37,40,31
30,92,78,52,77,35,40,30
34,78,69,50,73,33,39,29
35,75,68,51,79,33,39,30
35,79,58,54,66,31,32,24
39,79,56,56,62,31,20,25
39,80,53,56,63,31,19,23
39,83,52,55,67,33,19,24
43,83,53,56,59,36,22,26
54,96,55,47,49,34,27,31
51,94,55,43,46,31,31,30
53,97,56,49,59,35,33,29
52,95,57,52,65,39,32,28
49,100,57,56,63,34,30,25
40,83,54,66,77,37,25,23
42,91,56,69,83,39,20,22
42,87,54,64,72,36,17,24
42,89,47,60,71,31,18,27
40,86,50,56,71,33,19,28
37,81,44,42,56,26,17,28
40,98,43,38,46,23,15,27
40,111,53,42,49,22,17,27
41,108,55,42,38,21,17,25
46,111,53,47,35,19,16,25
43,107,53,48,34,21,17,24
40,89,54,46,39,22,18,24
37,71,45,43,36,23,16,26
43,70,46,40,34,24,17,25
40,64,47,33,36,24,17,26
46,77,51,28,35,22,16,32
48,71,46,28,31,21,15,30
48,75,50,31,29,20,17,29
46,86,51,31,31,19,16,31
44,88,50,30,30,17,16,31
40,82,51,34,32,16,16,24
36,84,52,35,31,19,16,24
36,84,52,35,33,18,16,32
42,80,49,35,32,18,16,33
50,82,52,33,34,20,18,32
50,93,59,33,33,20,19,34
54,96,59,34,32,19,19,34
69,116,62,32,30,18,20,32
64,113,63,33,30,19,20,29
70,120,58,35,27,20,20,32
71,112,49,34,26,20,21,34
72,115,51,33,26,19,21,35
59,96,55,34,25,21,21,31
65,96,55,35,26,22,22,35
53,87,53,35,26,21,22,32
60,95,57,35,26,22,21,33
59,92,57,37,27,23,23,33
59,94,53,38,29,24,22,33
63,94,52,36,26,23,21,33
71,104,60,34,25,22,22,36
68,132,83,35,26,22,22,36
73,140,83,31,26,21,21,39
76,154,83,30,25,20,22,44
69,163,88,32,27,22,24,43
65,167,97,34,28,23,24,43
67,145,80,31,26,24,24,40
61,145,84,37,25,26,25,37
63,137,84,35,26,26,23,36
75,129,84,38,26,25,21,39
71,115,71,38,26,24,20,39
72,120,68,40,29,22,20,40
76,113,68,38,28,19,19,41
78,114,72,41,28,19,20,39
68,115,69,39,26,19,20,35
68,120,66,38,25,18,22,31
63,109,65,35,23,19,21,29
61,105,61,35,25,20,21,29
59,105,58,34,25,21,21,30
58,104,58,33,27,22,21,31
57,102,57,32,27,22,20,32
59,132,76,34,25,22,20,33
66,151,77,33,28,22,20,35
64,145,80,31,27,21,21,33
60,144,80,29,22,19,20,29
67,146,80,30,24,20,19,31
71,126,66,32,26,22,20,34
59,98,61,33,21,20,19,33
56,97,51,32,24,23,19,32
58,97,52,31,25,23,20,36
59,96,58,32,24,23,20,37
52,93,60,31,23,22,18,34
53,103,66,31,23,21,18,33
62,111,69,31,21,19,16,36
65,115,73,33,23,19,15,34
61,115,70,32,26,25,17,33
64,118,69,34,28,24,17,31
69,112,62,35,29,27,17,30
65,110,64,36,28,28,19,30
67,122,74,36,29,27,20,32
65,123,74,36,25,22,19,29
69,125,80,35,23,24,22,30
67,133,84,32,23,23,24,31
69,129,81,31,22,21,23,28
64,129,81,32,22,22,23,24
68,152,92,35,24,23,24,27
61,147,90,35,26,21,23,30
60,142,87,35,27,20,21,30
59,142,87,34,26,19,20,30
60,138,81,36,27,20,22,31
55,118,74,33,25,18,23,33
58,137,77,34,25,20,23,31
58,140,80,34,23,20,25,32
61,148,84,35,24,21,25,33
58,134,76,30,23,20,21,31
58,126,70,31,24,20,19,27
57,108,68,32,23,19,18,27
54,100,64,33,26,21,17,24
41,79,53,33,26,21,17,20
45,86,59,36,32,22,21,22
42,88,61,36,33,21,22,21
53,96,50,35,42,23,21,21
53,95,52,34,45,22,22,22
52,97,58,34,45,21,22,25
51,94,53,32,43,21,20,24
52,97,61,33,44,22,19,26
40,81,58,29,37,22,19,25
48,91,61,35,33,22,21,25
55,92,59,34,32,22,20,22
58,100,61,37,32,22,21,23
58,105,63,39,33,22,20,22
66,103,64,44,37,21,20,27
60,95,59,46,38,22,17,28
61,96,60,49,39,24,18,29
58,106,74,50,44,25,20,32
55,95,62,50,50,25,21,31
44,95,62,49,51,27,20,26
43,103,69,45,54,30,20,25
45,120,82,44,54,29,21,29
45,107,71,40,49,27,19,27
55,107,71,38,43,27,18,31
59,120,80,35,37,26,19,37
61,121,87,33,30,20,20,37
57,116,78,31,30,21,20,37
66,115,79,32,29,22,20,40
59,134,97,30,27,22,22,39
56,125,91,34,25,20,21,37
58,136,85,33,29,21,22,37
58,127,81,34,28,20,20,35
52,144,101,40,26,21,20,31
54,132,87,41,27,22,19,30
59,131,90,41,27,22,19,29
54,117,85,41,31,23,19,29
52,116,91,42,34,24,19,28
49,100,72,37,39,24,20,28
47,92,71,38,40,24,21,28
37,92,69,34,47,25,21,27
36,89,72,34,46,29,22,25
45,83,62,34,47,28,21,25
42,68,53,41,49,29,22,22
40,67,56,46,50,29,22,21
41,65,56,48,45,28,21,24
41,71,61,48,48,26,21,24
29,78,68,50,48,28,23,26
29,82,75,53,65,29,20,26
30,86,81,58,75,33,21,27
33,97,86,61,77,34,21,25
33,98,84,64,82,32,20,26
34,102,84,76,93,34,20,26
36,100,82,77,82,34,21,25
33,96,74,77,80,33,21,25
33,102,70,78,83,34,20,25
34,107,76,76,79,36,21,28
42,107,79,65,66,34,22,30
43,112,76,59,70,34,23,31
46,113,78,64,73,35,24,32
44,105,79,66,73,36,23,31
48,106,74,68,73,35,24,27
44,97,64,67,71,36,25,27
45,90,66,67,69,34,25,28
46,106,69,55,58,30,24,27
49,97,60,50,55,27,25,27
47,84,56,48,59,27,23,28
45,86,62,53,66,26,21,23
46,90,63,49,63,25,20,32
41,71,54,50,64,29,22,31
45,71,55,46,64,30,21,31
42,76,63,48,63,32,22,31
44,79,58,42,56,31,21,36
41,73,53,43,53,32,21,29
43,78,56,40,49,29,18,30
37,79,56,40,43,27,18,34
40,74,45,34,32,23,18,34
41,80,48,34,29,22,21,29
42,91,59,34,30,21,22,30
62,121,70,35,31,20,24,32
63,124,69,35,30,20,24,27
63,125,70,33,35,22,24,26
61,125,71,31,31,22,22,29
60,133,72,32,30,21,21,28
48,109,57,29,33,21,20,25
47,104,54,28,33,21,21,29
45,102,57,32,33,21,22,29
47,92,53,35,34,21,24,32
48,76,51,35,36,22,24,32
45,76,58,42,35,21,23,33
48,78,63,43,34,21,24,32
48,84,61,39,33,21,23,34
51,93,66,38,33,22,21,29
58,88,59,35,29,23,21,33
55,89,61,28,25,23,21,31
54,104,68,30,27,21,19,29
58,103,71,36,24,22,19,29
59,96,65,37,23,20,17,31
52,100,65,38,24,19,18,27
61,95,57,40,28,20,22,31
68,96,52,38,28,20,25,32
69,98,46,33,27,20,24,31
70,106,58,35,27,22,27,35
70,106,62,33,28,22,26,36
59,103,62,32,24,23,24,33
61,94,66,34,23,22,23,34
66,88,68,33,24,22,24,40
69,89,60,32,28,22,25,37
80,96,57,33,32,24,26,45
81,103,62,34,36,23,26,47
76,102,60,34,35,23,24,44
71,115,64,35,36,23,23,40
69,117,66,35,33,22,21,40
62,112,67,34,29,23,19,32
64,106,64,37,25,23,19,29
61,105,60,34,26,23,20,29
57,93,54,39,25,22,20,29
57,90,54,39,25,22,22,26
61,97,58,40,26,20,22,31
62,103,65,38,27,19,21,41
63,101,65,36,26,19,21,42
65,103,63,33,26,18,20,42
62,104,62,32,26,18,20,42
56,103,70,33,25,17,21,41
59,100,64,35,25,19,21,31
57,111,76,36,25,21,21,34
64,118,81,35,24,21,22,36
63,116,86,36,23,21,21,39
64,113,77,34,22,22,19,37
64,116,77,31,23,22,21,37
66,106,65,30,25,21,20,35
59,100,64,30,24,22,21,37
64,91,58,29,25,22,21,35
60,93,54,27,25,21,21,36
61,108,61,27,25,21,20,35
64,117,63,28,26,22,19,36
66,116,62,25,26,21,19,31
65,120,61,29,26,20,19,29
61,112,60,28,25,18,19,29
59,97,57,31,26,17,20,32
56,99,63,29,24,17,20,31
56,116,71,32,24,16,19,34
51,112,69,29,22,18,18,32
61,127,76,34,23,20,19,33
59,130,80,34,20,21,18,32
64,130,76,34,22,20,21,33
67,122,71,33,23,21,21,33
81,139,78,33,24,23,22,33
83,137,75,31,23,22,22,35
85,140,70,29,24,22,22,35
81,154,77,33,22,21,19,34
74,156,78,34,22,20,18,33
69,150,74,35,22,22,18,35
60,143,71,37,30,22,19,31
66,133,68,38,33,23,21,29
69,110,60,38,35,28,23,29
74,111,58,37,34,29,23,28
65,102,59,37,34,27,22,28
70,109,61,35,29,26,22,31
61,119,68,36,29,25,20,32
55,116,66,35,27,21,20,32
54,104,60,36,27,21,19,30
61,119,68,37,33,20,20,31
53,110,68,36,33,21,21,27
53,99,64,34,30,25,21,23
57,107,68,33,34,25,21,24
52,101,68,36,37,26,20,23
51,90,60,35,35,26,21,22
54,95,57,36,38,26,21,23
52,93,57,34,38,22,20,25
47,87,56,35,35,21,18,23
54,98,58,33,36,22,19,25
49,88,56,31,33,20,18,24
53,93,65,32,31,21,18,23
54,107,72,38,36,23,19,23
55,102,66,37,36,23,21,23
53,104,65,37,36,23,21,23
51,115,80,40,40,26,20,27
51,111,76,40,40,27,20,30
51,100,71,39,38,25,21,29
53,115,84,48,48,28,20,33
48,107,85,54,51,28,21,31
46,96,76,55,48,27,21,28
40,92,73,60,53,29,21,27
43,99,74,57,53,28,22,29
39,86,66,52,45,26,22,28
42,97,72,58,44,26,22,29
48,98,66,59,46,24,21,31
47,98,66,59,41,22,19,36
50,115,72,61,42,26,24,38
52,116,73,62,40,25,25,37
48,106,65,51,37,26,25,36
46,109,70,51,42,27,26,35
46,132,80,50,50,30,27,38
40,112,69,49,50,29,24,38
44,108,65,47,51,29,23,41
49,111,65,45,50,28,24,44
51,114,69,42,45,28,37,49
50,94,67,34,32,25,38,47
51,99,71,34,27,24,37,47
54,106,70,32,28,23,38,47
57,102,70,35,27,22,37,46
57,108,65,36,29,20,24,43
59,103,59,39,30,21,21,39
58,105,68,38,33,23,23,39
54,103,76,38,34,24,22,36
53,105,78,39,36,27,22,35
47,89,77,40,34,27,24,34
45,82,73,38,40,27,24,32
44,72,66,42,47,26,23,30
38,58,56,41,46,27,23,31
27,55,50,39,44,25,22,29
29,85,78,52,45,25,21,28
31,95,87,55,39,26,23,30
30,94,83,57,34,24,23,30
41,118,102,70,45,25,23,31
43,125,106,69,45,26,23,33
41,107,87,60,46,27,23,30
40,116,91,62,48,28,22,30
40,119,93,59,45,28,22,30
30,98,74,47,40,31,21,29
31,88,68,57,55,35,22,28
31,86,68,81,92,45,24,29
30,77,59,95,109,60,28,31
35,82,65,103,114,64,31,38
37,101,73,113,119,64,31,35
41,111,79,122,128,65,30,36
42,120,89,111,110,63,32,39
49,111,81,99,99,53,32,43
46,112,79,89,96,53,31,37
47,103,75,78,92,51,29,38
43,92,71,58,72,47,30,37
44,95,59,55,66,41,26,34
54,122,73,54,58,36,22,30
60,126,71,53,52,28,20,34
62,123,68,56,54,25,21,38
66,133,77,65,64,28,22,40
66,123,75,63,64,29,23,39
52,102,67,63,62,32,22,36
58,102,74,65,64,34,22,37
56,98,75,60,54,32,23,32
51,84,62,50,38,29,23,30
51,82,62,45,35,29,25,31
51,76,60,46,31,24,23,30
41,65,55,50,29,21,23,26
39,67,53,49,30,24,21,31
41,84,57,48,31,25,20,33
39,89,60,51,30,23,20,32
48,101,62,45,31,23,22,41
55,96,52,37,32,25,23,41
60,100,68,47,35,25,23,39
60,95,63,44,35,24,34,42
61,93,64,45,34,25,33,45
58,83,60,47,35,26,33,41
52,89,64,47,34,24,32,41
51,85,49,38,29,23,33,40
53,83,59,42,31,23,22,38
62,83,55,40,31,23,25,36
60,84,58,37,29,24,27,33
61,86,63,42,32,26,35,33
62,92,63,43,34,26,35,36
63,90,61,40,33,27,37,34
56,95,66,41,33,28,37,33
55,101,68,41,33,26,37,38
51,94,60,41,29,25,29,37
50,88,62,37,29,27,29,38
44,85,61,41,29,28,27,37
41,88,68,45,29,28,25,37
49,93,66,44,29,28,23,31
56,116,80,49,32,26,25,38
59,122,84,54,34,25,24,42
62,122,80,49,33,27,24,44
63,121,78,48,33,26,24,43
69,122,83,51,35,26,26,48
76,115,72,41,31,27,23,47
74,114,68,36,29,26,28,44
76,116,66,39,27,23,32,42
83,132,72,36,28,23,33,48
75,122,63,34,27,23,31,43
64,110,64,35,29,22,32,39
67,117,66,37,27,23,28,39
71,122,70,36,28,23,23,41
69,104,58,36,27,22,21,37
72,115,70,35,28,22,23,36
70,114,72,34,28,22,24,36
72,104,67,29,28,19,24,39
70,102,63,34,28,17,24,38
65,97,65,35,27,17,23,36
62,102,54,34,25,18,21,38
63,98,48,32,23,17,20,45
55,99,50,35,23,17,19,39
52,114,65,33,24,20,18,40
69,136,84,37,26,22,19,41
84,134,84,37,28,23,23,40
106,136,87,39,29,26,23,39
109,148,89,42,28,28,25,40
111,146,83,38,30,28,25,38
107,147,61,34,31,30,25,45
116,157,81,39,34,28,22,49
104,162,78,41,34,26,23,47
104,151,77,36,38,29,25,52
115,154,75,40,37,29,28,54
114,142,80,52,53,40,28,50
97,120,60,49,54,43,27,51
92,124,64,52,58,45,27,47
90,129,70,58,58,44,26,46
74,123,70,57,57,42,24,44
67,113,65,46,41,30,25,42
70,136,82,49,35,31,25,41
67,132,79,48,27,26,24,46
70,127,75,43,23,25,23,40
73,126,80,42,24,27,22,39
78,129,78,41,24,27,23,39
71,111,59,37,26,23,22,33
78,114,58,32,35,23,22,25
75,118,60,38,39,22,20,26
66,109,47,36,40,21,20,25
70,151,61,38,43,19,18,26
94,162,65,37,44,23,17,32
102,179,75,49,39,25,18,37
113,195,80,53,38,27,18,38
123,216,95,53,41,26,22,41
127,197,91,57,42,28,23,42
108,187,90,59,40,26,25,38
113,194,99,58,42,28,27,36
105,178,94,52,42,30,27,38
96,147,80,52,40,32,24,36
115,211,109,70,44,34,24,37
118,225,117,73,48,34,23,39
101,201,104,68,48,32,20,36
113,213,109,71,47,31,21,37
114,221,110,73,46,30,21,45
96,170,90,54,42,29,22,42
95,165,93,51,43,34,21,44
101,176,96,48,41,36,22,45
84,159,86,43,40,33,20,42
87,178,99,46,44,35,20,38
75,159,87,42,45,34,17,35
74,159,84,41,41,33,20,35
67,149,89,50,44,39,24,39
68,153,94,54,47,40,24,39
63,133,89,51,44,38,25,37
61,136,95,55,45,40,27,37
79,150,90,57,47,37,31,34
85,154,86,53,46,37,32,35
88,153,89,50,46,39,34,40
86,144,81,54,54,42,34,42
88,159,81,51,49,44,33,43
97,173,86,48,49,45,29,45
96,179,95,49,52,46,28,43
97,187,99,54,54,44,29,44
102,192,101,46,48,45,30,41
109,205,95,48,53,44,31,42
91,181,86,53,59,46,30,41
85,173,68,47,57,42,29,42
85,162,67,55,54,46,27,37
83,161,76,58,54,43,27,39
76,131,78,60,52,44,27,40
80,117,79,58,42,44,29,39
78,125,85,63,50,55,33,40
82,130,76,50,57,53,33,40
78,129,69,50,57,56,32,39
72,138,74,46,56,56,30,43
59,142,84,46,60,57,30,44
66,141,85,52,57,48,26,40
59,147,87,59,54,48,27,40
60,154,92,60,65,50,28,42
61,140,86,67,71,54,28,44
65,143,80,66,74,57,29,41
59,129,78,64,78,60,27,46
58,117,72,59,75,65,26,45
76,117,72,59,72,66,27,47
74,116,77,53,68,68,29,40
72,107,74,54,70,66,28,42
70,107,72,55,69,62,29,35
73,110,74,65,79,60,30,35
63,109,74,73,81,62,30,34
66,122,76,79,83,55,28,34
64,131,77,77,79,54,27,39
67,141,77,75,76,54,30,47
61,141,81,69,68,56,30,51
64,138,76,61,64,62,34,52
70,157,74,56,68,67,35,53
73,150,76,59,71,66,37,50
74,152,77,59,72,68,33,50
76,146,72,60,71,67,34,52
70,144,69,59,69,63,30,48
72,119,70,56,59,57,31,50
74,121,68,52,56,65,31,48
74,119,77,54,49,67,30,45
71,114,75,52,56,67,29,42
72,114,77,53,56,65,27,47
67,134,83,53,58,64,23,45
60,137,85,55,58,64,23,45
66,141,80,50,60,63,23,42
76,149,81,50,50,59,24,41
74,151,80,50,48,58,24,35
73,453,66,49,54,59,25,36
80,572,65,50,52,57,28,35
73,616,63,51,52,57,27,38
64,620,67,51,53,61,28,40
61,623,68,53,57,63,27,41
67,449,68,52,52,67,26,41
65,290,66,57,63,72,24,50
70,173,66,59,65,73,26,51
85,156,69,58,67,70,27,51
86,135,62,54,61,63,26,54
82,122,67,55,63,61,33,59
79,102,68,52,52,50,33,57
108,135,67,47,52,46,30,55
96,134,60,45,47,47,30,58
96,131,60,45,50,51,32,54
93,137,65,48,48,47,27,50
93,128,60,42,43,46,32,46
55,91,54,42,39,44,35,53
59,104,64,46,38,41,35,49
60,271,82,47,38,39,35,49
60,287,83,48,39,45,36,46
63,315,87,51,47,43,32,44
59,484,99,55,47,42,28,35
64,542,96,52,51,50,27,50
73,492,81,51,51,49,27,48
77,487,80,46,50,42,35,56
77,474,90,49,45,46,41,60
75,301,79,46,45,50,42,59
69,170,75,45,48,47,43,51
63,140,75,44,49,49,43,52
66,130,78,50,50,50,38,50
77,150,74,45,52,47,61,67
82,155,80,53,56,46,63,72
83,148,79,51,51,44,65,71
82,151,81,52,45,40,65,72
76,144,81,52,47,45,64,70
63,114,77,54,46,45,37,50
63,119,75,46,39,43,39,46
61,119,74,46,38,43,34,44
67,128,75,45,41,43,38,42
68,148,85,46,38,40,37,39
72,147,85,42,38,37,36,45
67,132,81,43,41,40,29,44
66,143,83,43,45,41,31,43
62,154,89,44,47,40,50,49
65,144,79,34,47,39,50,50
60,141,74,34,44,38,54,49
67,175,86,36,42,35,54,62
68,167,90,39,37,33,54,61
62,155,85,41,37,32,34,60
66,154,93,47,35,28,38,63
72,155,94,47,35,29,34,63
65,121,83,45,34,29,39,53
78,150,82,47,35,27,43,60
81,136,82,46,34,27,41,57
76,128,64,42,35,31,40,60
75,133,67,42,34,32,44,61
74,128,68,40,31,31,44,59
67,105,64,35,30,32,41,53
65,108,69,34,26,30,42,51
64,107,70,34,25,27,39,41
59,119,76,35,25,24,33,37
68,135,81,40,30,24,25,36
63,133,82,40,34,23,24,38
63,138,74,40,36,23,23,39
63,146,77,40,34,23,23,38
64,123,67,42,34,24,22,35
66,111,61,38,30,24,25,35
69,111,63,39,26,23,30,33
69,105,63,37,24,24,31,37
69,103,77,36,26,26,30,39
67,106,80,32,25,26,31,39
59,111,85,31,24,25,30,35
53,117,93,31,23,26,24,37
58,120,94,32,23,26,27,41
53,114,83,31,22,23,30,43
55,116,81,32,26,23,41,51
53,116,79,34,25,22,41,51
53,110,71,34,26,23,42,52
46,110,73,37,27,25,39,46
51,105,69,37,27,26,39,48
48,111,73,37,25,25,29,42
54,104,70,33,28,28,36,50
56,93,62,31,29,28,35,49
60,98,62,28,29,27,46,51
65,124,77,32,28,27,45,51
65,122,70,31,27,28,44,50
59,118,69,33,25,26,38,42
76,146,77,39,25,26,39,45
97,196,98,47,25,24,25,47
92,185,88,44,24,22,25,41
97,183,88,45,27,23,26,41
99,186,90,47,26,22,26,48
86,173,89,44,26,25,27,48
60,107,64,37,26,26,29,44
67,109,67,40,31,31,34,49
70,126,79,48,36,34,33,49
69,124,75,47,40,35,34,48
80,119,72,46,40,35,33,53
83,125,75,48,41,36,33,55
78,117,73,49,41,32,27,58
68,102,70,42,36,30,27,60
72,119,77,41,35,31,36,72
76,121,76,41,35,30,39,66
76,115,79,42,36,30,38,68
76,118,79,41,34,32,38,65
80,113,70,41,35,34,39,69
74,90,60,41,33,33,30,57
65,92,59,41,33,33,38,58
72,101,53,40,32,31,39,58
71,94,52,36,31,33,40,57
68,89,50,37,30,29,48,53
70,94,51,37,31,33,48,49
67,87,52,37,32,33,39,52
58,94,74,41,34,36,44,55
59,93,75,42,34,34,43,54
68,111,82,47,34,36,37,57
79,122,82,45,32,34,38,61
79,124,83,44,32,34,46,64
76,107,61,39,31,36,40,58
81,112,59,42,33,36,43,61
79,113,68,37,35,35,40,61
87,107,79,44,36,35,45,61
85,102,82,44,35,34,40,58
96,130,90,46,33,29,39,58
104,140,89,43,32,30,37,58
109,135,82,50,34,30,45,67
97,129,71,52,36,31,46,64
98,129,67,54,36,32,43,61
90,104,54,51,36,33,43,60
84,94,61,55,37,32,43,69
72,98,54,51,39,31,36,59
75,102,57,46,40,33,29,57
75,107,61,47,40,33,39,63
82,112,66,50,45,34,39,64
78,115,68,49,45,35,42,57
80,121,90,53,47,36,41,57
81,133,90,57,47,33,40,57
80,132,90,57,48,33,38,56
70,129,89,58,45,33,37,55
64,127,89,55,45,31,34,49
61,128,74,49,39,31,37,48
58,119,75,44,37,34,39,50
58,126,72,41,37,35,32,41
59,129,80,43,35,34,33,41
58,131,76,53,37,35,31,39
67,125,80,54,37,34,29,37
68,123,83,54,36,31,33,44
72,119,89,58,34,29,32,45
69,116,87,63,43,29,31,44
75,109,97,64,46,29,32,48
64,101,96,72,61,33,34,46
69,103,89,74,65,33,27,39
65,112,86,74,66,35,28,40
69,153,98,69,61,34,30,39
66,165,104,67,59,33,30,41
68,163,100,58,42,28,27,42
57,163,101,59,38,28,28,42
53,155,101,58,41,28,29,43
51,119,87,59,42,30,28,45
48,101,68,54,41,32,29,40
52,109,69,53,39,32,34,39
50,100,67,53,39,29,35,35
49,95,65,51,39,32,40,35
60,108,65,56,44,31,40,37
59,105,65,56,45,30,39,41
61,100,64,55,50,30,35,39
64,122,70,55,50,32,33,44
65,121,68,54,48,32,38,46
59,107,64,47,48,36,42,46
60,123,70,54,53,38,45,44
53,130,71,56,54,38,45,44
49,106,67,55,53,39,48,44
48,105,67,60,64,35,37,38
44,108,66,79,90,38,33,35
47,97,57,85,100,43,37,40
47,99,68,85,99,43,38,43
45,103,66,82,99,41,44,42
45,113,68,80,95,43,45,47
49,112,70,60,68,37,45,50
53,111,68,39,43,29,40,49
61,106,58,35,45,28,39,46
65,116,63,39,48,28,26,41
65,113,68,52,46,33,33,41
66,137,84,63,48,33,35,38
61,133,84,69,59,35,36,36
52,122,79,77,70,38,35,35
51,124,85,84,73,42,36,36
53,130,88,80,83,40,36,34
45,99,69,75,88,41,33,32
41,97,71,81,86,43,34,31
53,133,84,79,78,42,38,40
51,123,76,76,81,46,38,42
50,113,74,90,90,55,49,45
47,111,78,102,95,58,49,45
46,115,81,105,114,66,53,46
37,79,68,109,125,68,53,45
41,80,70,111,129,71,57,46
38,77,61,101,120,71,50,44
40,82,67,92,119,74,53,48
43,80,67,83,104,67,49,49
46,77,67,74,92,63,50,44
49,81,66,68,80,55,49,49
54,91,73,67,78,48,44,51
55,90,65,62,71,39,41,45
56,90,58,63,74,39,41,48
57,97,56,61,74,42,39,52
51,97,53,58,71,44,33,48
50,87,52,58,70,41,35,44
50,84,50,57,72,41,34,46
53,90,60,52,69,43,35,48
47,79,60,52,71,43,32,43
49,73,59,51,74,40,33,40
56,74,55,47,69,38,29,46
68,75,56,43,62,36,30,46
65,63,47,43,54,33,36,38
67,67,49,43,48,34,36,39
68,67,47,47,47,35,36,41
64,77,51,48,47,35,36,40
55,90,50,46,46,35,37,39
59,92,48,42,42,38,31,40
59,90,49,49,42,35,31,40
58,91,53,49,38,34,30,38
52,87,49,46,39,33,27,34
53,90,60,49,40,33,33,34
49,93,62,50,45,27,31,33
46,96,66,43,43,25,31,35
52,104,68,42,44,23,33,37
56,106,67,40,40,23,37,34
57,96,55,33,37,22,29,37
69,105,64,43,32,21,42,43
69,104,61,42,29,21,46,46
86,108,56,39,31,20,45,50
86,113,63,38,35,21,45,53
94,116,63,42,37,23,51,59
98,113,52,32,35,26,51,61
101,110,51,40,36,25,48,60
84,108,59,45,34,26,47,55
85,99,56,51,50,35,46,64
75,109,65,60,55,40,40,62
60,109,67,64,56,46,42,60
63,115,70,60,59,51,51,63
63,115,66,57,57,53,52,64
62,123,69,53,44,48,53,56
60,130,73,57,46,45,53,50
88,148,73,58,48,40,45,58
89,152,71,58,44,34,41,52
88,149,74,59,44,33,42,51
90,159,94,59,44,35,46,54
91,155,89,46,34,36,45,55
64,132,88,38,26,34,42,43
74,140,91,39,27,33,35,46
85,172,106,38,27,33,31,46
82,163,90,40,29,30,23,39
89,159,84,35,29,25,22,42
94,164,84,35,29,27,29,45
89,173,82,31,28,26,32,41
84,149,62,29,28,26,33,42
87,145,57,28,25,28,33,45
85,141,66,30,26,26,33,45
101,147,67,34,27,25,27,45
98,129,67,37,28,27,24,44
101,128,64,39,31,29,40,45
107,137,66,40,29,27,40,45
103,139,64,41,35,30,41,42
85,141,76,44,39,29,41,39
80,142,75,44,40,28,43,44
77,136,77,43,37,27,31,42
63,134,80,42,37,27,31,39
60,130,78,41,32,26,45,46
60,122,65,38,28,25,46,45
58,111,61,36,27,24,47,48
52,108,65,37,28,24,46,49
54,109,60,35,28,23,46,50
55,106,60,35,27,20,30,45
55,103,64,31,28,21,27,46
52,103,66,33,27,23,33,43
61,111,63,31,26,23,32,42
63,116,69,35,26,24,32,38
65,136,72,34,25,25,33,41
63,142,76,35,24,25,33,40
65,146,76,36,27,23,22,38
59,146,75,39,26,22,24,38
58,131,65,33,26,23,32,37
61,115,64,34,27,21,33,35
63,121,63,37,29,20,34,33
68,121,64,35,27,19,35,34
68,118,65,35,29,22,34,39
65,119,64,39,29,22,24,40
61,129,66,41,34,22,24,40
58,114,69,37,34,22,23,41
55,116,68,38,34,26,43,41
54,117,70,38,33,24,43,38
58,126,77,38,38,23,47,43
56,119,85,37,34,23,47,44
56,118,82,38,35,25,48,45
59,113,80,40,35,24,32,43
76,115,79,38,36,25,38,48
74,114,82,36,29,24,36,46
76,113,75,39,29,25,34,43
74,107,68,38,28,27,32,42
76,114,68,36,28,30,34,49
57,111,66,36,28,29,26,44
66,137,65,38,29,30,45,53
66,134,60,34,30,30,47,58
64,135,61,32,28,27,49,61
63,132,77,35,28,20,48,55
86,133,85,39,30,22,48,57
90,111,82,36,29,20,40,49
90,111,81,36,26,20,37,44
91,111,84,37,25,21,38,45
92,119,73,39,25,21,37,45
74,114,67,35,23,20,36,42
66,112,71,34,23,21,26,38
66,118,72,36,22,24,30,40
67,118,68,34,22,25,30,37
64,112,69,30,25,24,31,38
63,124,72,33,24,24,32,38
65,120,60,35,25,24,33,38
63,116,60,31,27,25,31,36
64,130,75,40,37,24,27,36
61,164,82,44,38,25,27,34
67,162,81,43,40,28,27,32
60,157,84,41,38,29,25,31
59,157,88,42,36,26,25,28
67,169,80,35,28,26,24,31
72,153,80,34,27,26,23,29
62,143,75,33,26,25,22,30
64,144,77,39,37,24,21,31
73,153,75,40,40,24,20,32
63,134,77,39,40,22,19,27
60,125,75,36,38,22,19,37
67,131,79,36,38,20,17,39
72,130,79,34,30,22,18,41
65,127,86,35,30,22,18,42
84,142,90,37,29,22,18,43
89,133,84,37,30,21,19,35
90,136,82,42,39,24,21,39
84,146,80,42,45,22,21,36
84,145,68,44,49,22,21,35
69,130,58,45,50,25,21,35
56,125,55,44,50,25,24,35
47,120,65,46,45,22,24,27
49,118,69,49,40,23,24,30
50,115,67,45,32,25,24,30
46,103,64,42,30,22,23,30
58,137,89,46,30,23,24,32
63,134,81,38,26,22,22,35
63,125,75,28,24,21,21,37
66,125,74,29,26,20,23,36
66,131,76,29,26,23,23,38
60,103,55,24,25,23,19,40
61,114,55,25,24,24,21,36
62,117,61,26,26,27,20,35
54,116,67,32,28,25,20,38
57,109,63,32,32,26,20,40
55,105,57,33,34,29,22,39
48,87,60,33,34,28,20,37
52,86,64,39,38,30,21,37
61,90,64,35,36,30,22,40
58,94,68,36,34,27,25,42
58,97,70,36,32,25,34,42
65,103,66,36,36,26,36,42
64,99,64,42,41,27,37,41
64,87,63,56,44,29,38,36
67,91,62,57,45,30,36,36
76,104,64,57,44,30,32,39
70,107,67,57,43,30,32,40
69,115,63,54,38,30,31,42
67,129,63,42,39,29,31,42
65,132,74,43,39,28,30,39
55,122,69,43,38,27,23,34
57,119,69,44,37,27,22,34
49,114,73,40,37,24,22,34
45,98,70,36,34,23,22,32
52,94,60,36,35,24,22,38
48,86,58,35,37,24,22,39
51,100,81,34,38,23,22,41
54,97,80,39,42,26,22,42
53,96,79,45,44,27,24,42
47,88,79,46,42,27,23,34
50,96,82,45,42,26,24,34
57,97,76,47,48,29,26,36
60,100,75,41,47,30,36,36
60,104,80,36,43,28,35,35
61,106,77,31,42,28,35,36
68,113,81,34,46,30,34,35
59,101,66,35,43,26,33,31
60,99,65,41,40,25,21,31
61,105,70,43,41,26,23,45
62,109,73,44,41,26,47,51
57,96,71,48,38,25,48,57
58,95,74,49,34,26,50,58
57,93,81,48,31,25,51,59
61,90,73,47,35,25,50,51
58,83,72,49,40,26,30,45
66,107,70,46,39,24,30,41
70,108,67,41,38,24,27,45
65,110,65,42,38,22,24,42
62,101,65,46,33,22,22,41
71,106,73,45,26,21,20,40
62,87,81,47,30,23,27,38
58,84,82,50,33,26,28,31
57,77,78,52,35,28,29,39
59,112,87,54,39,28,34,39
48,115,84,55,42,28,36,39
55,118,77,53,39,27,30,43
57,119,74,49,39,24,29,42
59,119,73,45,36,22,29,40
66,114,84,41,32,21,23,39
69,115,81,45,32,21,22,39
69,115,83,42,31,21,31,38
71,123,85,43,28,21,30,40
76,151,87,43,27,21,30,37
69,133,69,43,28,22,30,36
72,136,70,37,27,22,31,40
67,129,61,39,28,23,26,37
63,117,60,41,31,22,33,38
56,117,83,46,35,23,34,39
53,115,80,44,33,21,35,41
49,113,83,46,32,20,34,39
54,118,82,46,31,20,32,42
61,144,91,44,28,20,26,44
61,115,65,36,25,19,28,42
64,119,68,36,27,23,42,41
62,113,68,36,31,23,44,39
57,117,68,35,30,22,44,36
48,95,61,35,32,23,43,30
46,98,65,36,32,24,41,29
42,98,62,35,32,21,27,32
40,99,58,34,31,21,25,33
42,99,65,38,30,21,24,33
41,106,62,40,31,22,25,34
46,113,63,40,32,22,35,37
44,124,68,41,30,21,35,33
46,125,65,39,29,21,35,34
51,123,62,36,33,21,36,36
53,109,61,32,31,21,35,36
52,100,57,32,29,20,25,34
54,98,61,33,28,20,23,35
55,98,66,34,27,21,24,33
52,91,66,36,24,21,32,31
55,93,66,39,24,21,34,32
56,94,67,39,24,22,34,31
57,75,61,40,24,22,35,32
66,87,59,40,26,22,32,32
65,94,57,39,25,22,23,37
63,96,58,39,25,21,21,35
64,100,65,38,26,22,21,38
64,106,65,36,28,22,26,38
51,95,62,37,24,24,36,39
52,89,59,33,25,23,38,39
47,93,63,32,26,24,38,38
45,90,59,36,24,23,38,37
55,100,58,38,26,22,34,38
56,99,58,37,27,20,25,37
58,113,66,40,29,21,21,37
58,109,60,39,30,21,21,36
60,106,55,38,32,23,19,37
57,101,55,35,30,23,20,37
62,103,65,37,29,22,19,38
56,86,58,36,27,22,19,33
57,86,59,37,24,24,20,33
53,93,63,34,22,21,21,37
43,96,78,36,24,22,19,36
32,92,72,33,24,22,18,35
31,91,74,31,25,22,20,35
35,99,76,29,26,21,21,37
49,115,89,35,28,22,21,37
54,112,78,33,27,22,22,34
57,112,77,40,28,21,21,35
59,120,84,41,28,23,20,35
61,117,83,43,28,21,19,38
55,96,68,40,26,21,18,33
51,89,64,40,26,22,20,35
56,89,66,36,25,22,21,36
56,93,69,37,26,23,21,38
59,106,74,37,27,24,20,32
55,104,72,35,27,23,21,32
56,106,72,36,25,23,20,37
59,118,79,35,26,22,20,37
61,114,70,32,24,20,20,36
57,105,73,38,24,20,19,37
55,104,72,42,25,21,20,37
56,111,76,43,27,20,19,36
58,121,69,41,26,20,19,34
75,134,67,45,28,21,20,37
83,136,66,43,29,22,21,40
92,149,78,43,28,23,31,42
92,158,75,42,28,23,37,42
90,148,72,42,27,23,38,42
78,133,70,39,25,21,38,40
76,151,82,38,24,20,38,38
70,145,77,40,24,18,31,39
70,140,80,39,25,16,22,39
69,142,86,41,25,17,22,41
66,146,90,39,25,17,21,40
61,133,73,38,30,18,21,38
64,161,91,40,33,18,20,35
63,152,88,38,32,19,21,34
55,143,85,38,32,20,19,32
58,151,83,41,36,21,20,34
60,148,86,39,32,21,20,35
68,122,62,31,29,22,21,39
69,121,62,33,29,23,20,37
72,118,63,39,37,22,20,38
68,111,63,39,39,21,32,36
71,113,62,39,43,21,32,39
57,102,66,48,52,22,33,33
54,114,71,52,55,23,36,36
56,155,101,54,51,25,37,37
57,154,105,56,47,23,27,35
52,148,103,60,46,25,26,34
51,148,101,55,46,23,25,33
66,171,109,53,49,22,23,27
63,136,82,47,51,21,21,39
65,128,73,43,54,24,33,40
63,137,81,41,54,24,34,40
64,145,94,40,47,25,36,43
51,114,78,37,39,27,34,45
53,128,76,38,37,26,35,35
52,133,81,37,34,23,23,34
57,128,80,40,32,23,22,34
55,117,64,40,34,20,22,32
59,129,67,41,40,22,42,30
56,122,70,40,38,21,42,29
57,132,78,40,37,24,43,35
54,131,69,35,41,24,44,36
57,128,69,37,40,24,44,35
56,129,83,40,39,22,26,36
58,127,81,44,40,23,25,36
57,108,68,42,41,22,27,35
53,111,69,41,36,22,26,35
56,123,75,41,33,23,33,36
51,100,55,35,27,21,33,32
50,94,51,32,31,23,34,32
46,102,58,34,30,22,32,25
49,98,57,34,32,21,31,28
42,101,62,34,33,19,22,30
61,119,65,33,32,19,23,32
62,130,74,34,28,16,21,33
64,129,72,32,27,19,23,35
63,124,71,32,30,20,23,31
68,117,70,29,29,23,24,37
48,98,66,33,34,26,24,39
56,115,72,35,36,27,25,41
56,113,75,36,35,25,23,41
57,123,91,41,32,25,26,42
56,131,87,42,34,22,25,35
57,130,87,39,38,20,24,31
51,110,77,36,40,22,24,34
48,110,73,35,40,23,24,32
54,117,63,32,40,22,22,35
53,107,59,30,40,23,22,33
57,110,62,30,33,23,34,38
60,109,61,29,28,22,33,32
58,106,67,31,28,23,33,35
61,91,55,28,28,24,35,31
69,88,58,29,25,24,36,35
68,92,65,28,23,24,24,33
72,113,65,28,22,24,25,35
78,119,60,26,24,23,24,35
75,137,69,30,24,23,21,35
65,136,67,30,27,23,22,31
71,145,67,35,38,22,21,30
67,133,65,36,43,21,19,27
64,137,70,37,43,21,20,25
67,121,64,36,42,21,20,27
67,124,68,38,50,23,21,28
61,113,58,35,46,24,21,30
58,119,75,40,43,22,21,33
54,107,68,40,42,24,20,33
54,113,76,40,43,22,20,36
59,124,77,38,33,21,18,41
64,138,91,42,26,19,20,44
66,132,81,35,25,20,20,41
67,135,87,35,24,20,21,41
61,130,86,34,23,20,21,37
57,130,89,37,26,22,22,44
55,111,76,34,26,22,20,43
51,109,76,36,27,23,23,45
59,125,78,38,29,22,21,46
60,127,73,37,36,25,22,46
59,109,65,32,37,22,21,36
51,106,64,32,42,25,21,37
57,112,69,37,41,25,18,34
49,99,73,37,41,26,21,34
46,91,69,37,35,24,21,34
47,90,69,37,32,24,19,32
49,96,69,38,26,23,23,30
46,82,62,35,26,20,24,31
48,75,51,32,29,20,22,32
68,108,57,33,33,21,22,35
67,108,57,35,33,22,22,33
67,116,74,37,34,22,19,31
69,123,77,34,33,21,19,29
70,128,78,35,31,22,19,32
58,107,79,39,30,24,34,36
60,111,79,39,30,24,35,38
68,108,65,33,27,25,39,41
70,127,70,35,28,26,39,45
66,119,63,33,27,25,39,42
65,113,56,25,25,23,27,36
63,112,58,23,25,22,28,36
55,108,59,28,28,21,23,31
46,91,55,29,28,21,28,32
58,94,55,29,28,21,28,37
59,99,63,35,27,21,30,38
57,105,67,37,29,21,29,38
60,98,66,38,28,22,31,42
59,81,60,35,27,22,27,41
49,75,60,37,26,23,41,39
42,66,51,31,27,24,43,45
45,63,47,29,27,23,45,49
39,63,46,25,27,21,44,47
39,70,49,25,27,21,44,46
45,84,51,24,26,21,52,52
51,83,50,24,25,21,52,54
58,89,52,26,25,21,54,54
69,97,55,26,24,21,66,58
77,99,53,28,26,22,73,63
76,96,59,27,28,21,60,73
82,112,73,33,29,22,60,69
77,108,71,37,29,21,58,69
69,102,68,40,28,22,46,65
62,109,73,41,29,22,44,65
64,102,69,41,28,23,45,63
59,87,59,39,27,22,45,66
60,79,56,33,27,23,49,63
59,78,57,34,30,22,48,67
60,66,48,30,27,25,45,64
54,71,43,30,27,25,51,50
49,71,36,30,29,26,52,47
46,75,38,29,30,27,52,47
49,77,38,28,28,29,51,52
51,92,54,33,31,27,47,49
54,94,54,32,31,27,45,50
65,116,64,33,29,27,47,48
69,114,66,35,28,26,46,51
68,113,68,34,27,27,46,45
72,108,63,29,23,26,45,48
75,119,73,35,23,27,49,58
69,100,69,32,24,27,46,60
66,105,67,31,24,27,41,59
71,111,69,31,26,25,41,60
70,111,74,43,26,27,46,66
70,95,67,39,26,25,37,64
66,95,63,40,28,27,43,63
72,94,66,41,28,28,45,68
65,98,72,42,31,31,54,69
64,91,59,31,34,33,50,74
61,93,58,30,35,37,49,68
62,93,57,30,33,35,44,67
57,86,54,29,32,38,49,63
70,75,43,30,31,34,40,69
65,67,45,30,28,34,39,60
65,68,48,33,32,32,40,63
63,62,48,35,34,33,46,66
63,68,48,37,35,32,61,70
49,82,54,34,33,34,63,60
58,118,70,38,34,34,64,63
56,119,71,37,32,34,63,60
58,132,73,37,29,33,63,68
61,132,76,37,29,34,48,60
59,125,67,36,29,36,47,59
53,98,52,31,27,34,47,50
60,99,51,31,26,33,48,48
61,89,55,33,32,35,56,32
57,88,52,35,33,34,54,30
63,96,64,38,36,40,54,33
64,96,67,42,40,44,54,34
62,90,68,45,41,44,53,40
70,92,66,45,41,43,43,44
82,109,70,44,42,46,42,62
89,102,58,42,41,38,40,73
94,104,55,39,38,35,45,81
93,111,58,35,36,43,53,82
94,112,64,32,36,42,51,90
90,100,60,32,41,50,63,88
89,102,63,33,42,53,71,80
83,117,66,41,45,53,69,74
91,133,80,49,47,52,65,72
87,135,87,60,48,55,65,60
83,133,87,59,45,46,55,58
79,133,89,66,44,43,49,56
80,116,88,63,42,43,50,58
73,98,74,61,41,36,51,57
69,96,67,55,38,29,52,55
69,110,71,65,49,35,49,53
71,121,73,60,54,39,43,54
68,130,78,63,55,39,37,49
65,123,76,59,56,43,45,54
66,116,69,56,55,44,41,53
61,116,96,61,43,41,44,47
60,118,91,61,40,40,44,46
60,111,89,57,39,39,45,45
66,119,89,58,37,39,46,57
82,131,91,59,43,39,57,71
88,156,84,46,41,38,56,72
87,168,94,50,38,37,57,72
90,178,107,56,38,37,57,75
92,181,108,57,44,41,49,63
84,182,107,56,40,41,38,48
92,170,96,64,48,41,37,48
90,152,90,62,49,40,37,48
87,140,71,57,53,42,38,47
78,133,73,56,50,35,32,44
76,149,82,58,51,34,33,41
55,132,74,46,45,35,39,42
63,141,76,43,44,41,36,41
64,153,85,43,36,37,36,39
66,153,82,45,36,40,43,43
60,135,74,40,33,38,41,42
67,151,80,41,32,38,40,39
53,137,81,41,37,29,42,37
54,127,73,42,47,34,42,37
53,126,74,39,45,31,34,29
59,119,73,44,49,33,36,33
54,107,84,50,48,33,31,38
57,101,78,48,43,37,38,51
61,98,76,50,35,38,38,54
63,98,72,50,36,40,38,56
60,96,73,47,34,39,39,56
55,108,63,43,37,43,43,56
59,108,62,43,37,41,52,51
52,106,61,38,38,37,57,49
50,106,64,40,39,37,58,51
48,106,61,39,36,38,64,51
52,81,50,38,33,34,64,50
48,119,81,51,43,35,52,45
53,119,80,51,43,35,47,44
52,122,83,54,43,33,46,39
52,120,84,55,44,36,42,43
49,118,87,53,45,39,38,44
47,85,61,42,42,38,40,41
42,94,66,46,41,40,39,43
44,95,59,41,40,42,41,47
48,110,61,41,39,40,39,43
51,108,54,41,39,37,47,39
56,107,56,39,40,38,47,40
54,104,58,40,46,37,48,39
50,99,58,42,48,35,45,37
46,93,61,45,48,35,43,40
43,92,64,50,52,34,40,39
34,96,67,53,50,34,40,38
38,94,63,50,46,33,39,54
37,93,64,47,45,34,53,54
50,103,62,48,48,34,52,55
49,104,60,42,42,32,48,54
63,108,56,41,40,34,49,74
63,107,57,39,37,33,50,64
70,113,60,39,33,31,37,62
67,98,54,33,30,33,41,61
69,97,58,36,31,32,39,63
61,88,53,31,28,31,37,45
65,92,54,38,30,30,41,46
62,88,51,38,30,30,39,50
57,103,57,39,31,26,35,49
59,104,56,40,33,30,43,49
62,110,61,41,34,28,40,46
59,115,61,36,33,29,38,51
57,114,59,38,34,29,44,48
56,100,58,40,30,32,44,48
56,99,55,39,29,31,48,51
50,92,52,38,26,32,54,53
50,90,49,38,26,32,52,52
48,94,49,34,26,34,49,56
56,98,54,36,26,31,52,61
57,102,55,34,26,31,60,60
56,101,56,36,29,31,56,62
57,92,56,36,29,31,56,62
57,90,59,37,30,31,56,60
55,86,62,39,31,31,56,62
55,85,61,39,31,29,44,65
59,94,61,38,32,30,43,62
56,92,62,38,35,31,42,61
63,97,59,41,36,30,49,60
62,106,50,39,37,33,64,58
63,106,56,44,39,33,65,61
64,113,57,42,40,32,66,56
75,130,60,46,39,30,67,59
76,127,62,46,42,29,65,62
77,125,70,45,42,26,55,58
79,122,66,45,42,27,50,57
84,111,63,46,38,26,49,65
77,104,67,45,41,26,49,63
77,136,87,45,39,26,49,63
103,155,89,49,41,28,49,65
104,158,89,48,43,27,47,58
97,156,89,49,46,27,53,52
97,148,86,48,43,28,55,61
111,157,81,54,43,32,55,69
85,141,78,51,41,29,50,73
84,152,81,49,36,31,50,74
90,158,83,53,33,30,45,75
88,159,81,54,32,30,45,74
74,132,80,47,29,25,51,86
79,129,73,50,31,27,50,80
75,120,70,51,34,24,52,83
71,116,70,51,33,25,54,82
74,121,75,49,33,28,55,80
68,112,60,47,35,28,55,65
68,112,63,43,33,27,59,76
69,103,59,44,33,26,65,76
66,103,58,38,31,28,64,73
64,109,61,36,30,24,60,69
62,105,59,36,30,24,55,63
87,115,65,34,29,24,50,52
87,118,67,29,26,25,38,43
87,121,70,31,27,24,41,46
84,107,62,36,28,23,41,44
88,118,63,36,28,27,40,39
59,105,52,36,28,27,39,35
58,114,58,38,31,28,44,46
63,117,57,41,30,26,37,47
74,136,60,39,31,30,48,48
77,125,56,45,30,26,45,52
79,123,60,44,31,27,45,52
79,111,55,43,28,27,41,45
80,107,59,46,29,27,43,44
82,98,58,46,29,27,47,44
72,109,70,42,28,27,47,38
68,123,85,44,27,25,47,43
70,130,87,48,28,25,50,49
66,136,83,41,30,25,55,50
53,135,86,41,29,23,43,48
53,128,80,44,31,24,43,48
56,118,62,42,30,25,43,43
64,124,60,39,28,23,40,41
64,113,58,42,31,24,39,40
66,101,50,45,31,24,39,43
71,102,48,46,30,21,39,43
78,106,46,47,31,22,40,43
65,102,50,48,31,21,38,37
67,108,55,43,27,25,44,37
67,115,62,40,26,26,46,39
62,113,62,33,24,26,51,37
57,103,63,29,23,26,51,38
56,101,66,30,23,30,52,46
51,101,70,32,22,26,58,47
54,94,63,29,21,27,58,46
52,92,58,29,23,27,52,46
44,86,57,35,24,27,52,46
48,86,53,32,25,23,52,39
47,75,45,33,24,22,36,36
43,85,48,32,24,22,33,36
64,105,56,32,23,21,31,37
68,124,67,30,26,20,29,34
70,118,68,28,27,20,28,33
73,124,69,36,28,19,20,32
72,125,70,38,29,16,41,29
59,119,76,40,29,21,43,36
58,107,67,39,28,22,45,39
55,107,67,39,26,23,46,39
53,106,78,32,28,24,46,38
55,105,82,35,28,25,33,37
72,106,72,38,31,24,32,30
71,103,72,38,31,23,32,29
74,128,84,40,32,24,40,37
73,121,71,38,30,23,41,38
69,115,64,36,31,23,38,39
47,106,66,30,30,22,38,39
47,116,73,28,40,21,37,40
56,120,57,26,44,21,28,32
60,133,65,30,45,21,27,35
62,132,65,29,43,21,26,34
63,143,74,29,43,21,27,34
57,132,65,30,35,23,26,33
45,110,70,40,32,23,25,32
48,114,75,43,29,25,50,36
48,114,79,55,51,27,51,37
48,103,67,59,57,28,53,37
56,136,106,68,69,31,53,40
54,131,102,63,69,31,53,40
46,117,97,60,71,29,30,33
46,122,106,55,59,28,33,37
51,130,116,57,59,26,29,36
56,122,83,47,45,22,30,35
57,119,81,47,44,25,29,35
61,119,77,46,42,24,27,35
61,114,65,40,40,22,21,30
60,133,62,34,30,25,28,35
58,113,64,35,24,25,31,36
56,112,64,32,24,22,32,35
55,119,74,33,26,24,32,33
50,126,75,32,26,24,33,30
49,106,64,28,29,23,27,33
42,108,74,29,34,24,29,33
46,123,82,39,38,22,34,33
47,126,75,39,39,24,34,35
49,120,76,42,42,25,34,37
48,123,82,46,41,26,34,33
43,122,74,46,38,26,30,30
44,114,65,38,35,27,25,37
51,111,64,39,34,26,27,38
54,115,63,37,31,24,32,38
52,104,60,35,30,22,32,35
54,97,56,33,41,24,32,35
53,97,71,42,46,27,36,42
43,93,71,40,46,27,35,39
40,83,71,40,45,28,30,38
53,79,69,44,46,28,30,46
51,85,74,42,35,26,31,48
53,89,69,38,28,22,34,37
57,86,67,38,32,21,32,37
61,87,62,37,34,19,35,39
52,88,55,30,35,23,35,30
60,104,52,34,40,23,34,28
69,119,60,35,39,22,26,29
70,123,60,34,37,23,32,33
72,126,59,36,49,25,33,30
74,129,62,36,48,24,40,34
68,129,73,35,45,25,39,34
68,118,70,34,46,26,39,36
62,119,72,39,46,26,35,32
63,124,75,38,32,24,32,32
65,126,74,37,30,22,22,31
69,145,90,47,34,23,24,33
61,147,92,45,32,23,23,32
69,145,91,42,29,22,23,34
66,137,90,42,28,21,21,36
62,140,93,41,27,21,29,35
63,106,71,31,23,19,29,35
60,92,58,27,22,19,29,33
57,105,67,33,23,21,30,33
54,115,78,34,27,22,31,30
54,119,76,35,28,22,23,28
52,115,70,34,27,23,24,28
57,122,73,36,28,24,22,31
51,111,71,33,26,23,20,32
53,114,73,39,24,23,21,34
50,100,69,38,25,22,21,34
54,113,79,40,25,22,20,32
55,122,84,44,29,20,20,30
56,122,81,45,30,21,22,32
54,113,72,42,30,21,20,35
53,116,77,45,31,20,20,37
45,103,69,44,35,20,20,36
37,84,58,39,34,19,21,37
34,91,65,37,36,24,19,33
42,105,69,33,35,22,19,29
42,100,64,31,35,24,18,27
48,106,63,27,34,25,19,32
47,105,64,28,33,25,17,30
52,93,55,24,30,21,18,31
50,83,55,25,31,21,19,35
49,88,59,26,34,21,19,34
67,84,57,26,33,20,20,30
68,93,60,30,34,22,20,34
69,126,73,31,34,22,21,36
66,119,65,31,33,22,21,34
89,136,62,33,31,22,22,35
79,143,69,33,29,22,21,37
89,153,77,32,29,21,20,36
86,133,66,37,32,22,20,35
86,135,66,37,33,25,22,34
65,132,71,36,31,25,20,34
62,129,67,37,31,25,20,36
48,115,55,34,30,23,20,34
48,108,50,35,27,22,21,32
55,119,54,36,31,19,22,35
55,110,54,36,31,20,23,36
62,122,66,42,30,19,22,33
69,115,64,42,31,21,22,35
82,127,67,38,31,23,21,38
84,122,67,36,26,26,32,37
81,111,61,37,28,24,33,35
77,113,65,31,27,25,35,33
71,112,64,32,25,26,37,36
60,105,61,32,26,26,38,36
62,109,63,36,29,23,33,35
68,111,67,31,26,23,37,35
66,91,47,30,28,23,37,35
68,102,54,29,27,25,37,33
65,107,64,38,27,25,35,42
61,101,61,39,27,25,39,42
60,104,56,41,27,25,36,43
60,107,63,48,30,25,36,47
56,107,68,48,30,19,36,52
80,119,66,43,31,21,38,47
75,120,67,38,26,22,39,48
76,126,71,38,31,23,45,51
79,143,76,32,29,24,45,52
80,142,70,35,31,25,46,47
59,130,63,37,29,23,45,52
64,129,65,39,29,22,35,52
61,125,63,39,28,21,28,49
56,100,50,38,30,28,36,45
74,99,47,37,30,27,40,46
74,97,50,40,33,27,41,40
74,123,70,44,35,31,42,53
71,120,69,47,38,33,42,53
73,124,71,48,43,33,36,62
54,123,77,49,42,34,30,62
52,127,81,46,41,34,27,60
54,105,64,42,40,32,33,48
53,102,63,45,36,30,33,47
52,101,67,45,27,22,30,44
50,93,64,43,26,24,32,41
46,93,59,43,27,24,33,42
36,82,57,41,27,24,28,41
37,87,58,33,28,25,26,42
34,91,61,30,30,25,26,30
34,93,62,30,29,20,21,26
35,90,64,33,28,22,24,24
37,108,74,47,30,22,24,27
33,105,77,49,29,23,30,26
32,107,75,52,27,27,31,32
33,104,72,53,27,30,46,36
31,104,69,55,27,28,47,39
42,90,59,46,27,28,51,43
51,93,63,45,26,26,50,43
53,80,55,40,27,25,51,41
53,80,54,42,28,24,40,40
56,75,58,38,26,25,53,41
49,68,54,34,24,24,49,41
39,58,48,35,24,25,49,41
38,66,47,38,22,22,48,43
39,86,58,38,23,22,46,43
34,84,53,38,26,23,29,39
32,83,54,43,25,25,32,42
44,92,54,45,27,25,40,44
47,112,67,44,30,24,41,42
44,100,58,43,29,24,43,40
49,97,59,42,30,20,41,39
59,99,60,38,31,21,39,35
55,102,66,36,31,21,32,36
55,81,56,34,29,21,32,38
56,84,58,37,28,24,38,38
58,112,80,43,27,25,42,42
53,117,79,45,25,26,42,38
54,113,80,46,27,24,39,38
53,109,77,44,25,24,37,34
53,113,87,45,26,22,29,36
51,90,72,40,25,21,22,32
50,92,78,38,28,19,20,35
48,87,73,37,28,21,20,31
49,119,98,42,29,21,21,31
48,111,88,39,29,21,20,30
48,117,94,39,28,23,20,31
46,118,92,37,28,24,19,33
58,133,93,39,27,23,19,35
63,121,73,36,28,24,17,39
71,136,78,36,28,24,17,41
71,132,65,34,29,24,18,41
73,133,65,37,28,24,19,38
67,134,70,38,28,25,19,37
63,127,66,35,28,25,20,34
59,111,59,33,26,24,19,33
58,111,58,33,27,23,18,33
56,106,53,29,27,22,16,31
54,106,57,29,26,21,16,32
68,110,60,35,27,19,20,32
63,112,61,38,27,21,20,32
65,110,59,38,26,19,20,33
75,132,70,40,26,21,23,32
71,124,62,40,25,20,23,32
61,120,57,34,24,21,21,29
62,123,58,36,24,20,22,28
60,132,59,36,27,19,21,24
57,114,49,35,29,20,20,28
61,104,45,33,29,20,19,28
61,93,43,34,28,18,19,31
61,99,51,33,28,18,18,32
63,112,80,40,29,19,18,36
54,109,79,40,27,16,19,34
60,110,80,40,27,17,21,33
68,127,86,40,29,19,24,36
67,148,110,40,29,20,23,34
78,143,93,34,26,20,23,34
79,141,92,32,24,21,24,34
72,139,91,32,26,21,21,31
63,151,112,39,27,21,17,29
67,125,84,36,26,23,17,34
54,114,84,36,25,23,18,30
50,111,83,35,26,24,17,35
57,120,90,36,25,23,18,39
70,131,67,32,23,25,18,38
68,130,70,35,24,23,19,35
69,125,67,38,24,23,21,38
77,142,76,40,24,22,22,36
74,147,74,44,25,23,22,34
61,112,68,45,25,21,22,33
63,109,65,43,25,21,23,36
62,113,65,41,25,22,20,34
56,96,55,39,25,21,19,32
51,77,53,34,26,21,20,31
56,82,52,32,27,20,20,33
59,91,52,35,27,21,20,34
64,92,66,36,27,21,23,38
66,102,70,39,28,25,30,42
71,101,66,39,28,25,29,53
71,98,66,40,29,26,30,59
67,103,69,38,28,24,31,59
70,116,61,35,28,25,34,61
67,115,62,37,28,23,30,58
67,118,62,38,26,24,33,50
65,122,64,37,25,24,40,50
72,117,69,38,24,25,40,47
73,112,66,38,25,23,39,42
78,107,63,34,25,24,40,45
78,119,68,32,26,24,37,45
85,138,74,29,28,24,35,41
84,170,89,33,30,24,39,44
77,172,91,32,30,23,36,43
69,176,96,33,31,22,35,41
68,178,99,37,31,25,35,40
60,161,90,38,30,24,40,41
61,126,69,34,29,24,36,36
63,138,81,37,34,25,41,39
80,139,76,36,33,24,40,42
80,134,71,35,32,20,42,41
82,148,86,41,32,22,31,38
80,153,87,40,32,23,35,45
80,139,76,36,26,23,32,44
63,132,80,39,23,23,33,41
64,134,93,41,24,27,31,39
61,132,85,36,22,25,31,35
53,120,81,36,21,26,26,25
61,122,82,38,22,25,23,28
66,143,97,37,25,25,24,33
70,139,83,34,26,22,30,34
68,128,83,33,26,23,31,35
74,139,96,35,25,23,32,38
65,134,95,38,27,23,32,35
69,120,84,36,29,23,29,37
68,121,84,35,27,23,30,36
77,134,89,36,30,23,29,42
73,125,78,34,32,24,29,40
75,126,77,30,32,25,29,41
81,164,110,34,28,26,30,37
77,179,114,35,29,26,26,41
68,164,107,33,28,24,36,38
70,165,113,36,27,23,37,38
70,170,119,34,24,19,37,39
54,129,86,32,25,21,38,36
65,134,92,34,27,20,35,33
70,144,94,36,24,20,25,33
75,145,88,33,25,20,29,36
74,140,76,36,25,23,29,34
80,147,77,38,25,24,35,38
85,130,62,37,24,23,35,38
82,131,62,37,26,23,35,37
82,132,64,39,24,26,32,38
86,130,67,40,26,23,36,40
78,117,60,35,25,24,30,45
62,113,67,36,25,25,37,46
60,112,65,33,26,29,37,46
59,110,64,35,30,27,40,46
50,112,72,37,30,27,36,49
74,145,84,37,30,28,40,44
81,141,77,34,30,28,34,45
85,139,76,35,28,26,34,44
82,141,84,34,25,25,38,47
89,150,78,29,25,26,38,42
74,118,63,30,23,24,35,42
68,112,62,31,23,23,33,38
69,116,60,32,23,23,42,45
71,135,74,33,24,23,35,39
65,135,86,36,24,22,36,41
70,139,88,36,27,23,44,46
84,153,92,39,26,23,45,47
81,159,99,40,27,21,38,48
79,153,89,36,26,22,41,50
78,140,75,34,28,21,47,51
80,147,76,36,26,19,40,47
80,155,90,35,28,26,50,53
84,141,82,32,27,27,50,48
85,129,73,37,34,27,49,48
102,138,74,38,37,28,42,49
106,147,84,45,43,31,47,58
107,132,64,43,45,27,41,53
105,132,65,46,47,26,41,54
103,133,62,46,45,26,41,71
87,141,76,54,59,28,49,73
81,124,71,51,61,27,50,67
70,134,78,55,59,27,46,75
67,140,79,54,59,28,51,77
70,140,83,54,58,26,50,60
71,126,74,46,39,24,43,58
67,135,69,41,33,22,43,65
67,122,64,38,31,23,42,56
65,116,62,36,30,23,36,56
69,128,70,34,27,27,40,57
75,129,64,35,26,27,44,56
69,115,60,32,22,29,36,46
67,115,62,29,24,27,37,56
82,140,87,39,26,27,44,54
79,136,84,39,26,25,44,55
78,138,85,38,28,26,45,57
79,136,87,42,28,26,47,57
78,133,84,41,27,29,48,50
67,109,74,32,26,26,40,51
78,107,74,31,25,26,43,51
77,99,73,30,24,26,39,53
82,104,71,32,24,24,37,53
87,114,79,35,27,22,35,53
85,111,69,38,29,24,35,52
76,102,61,39,29,23,34,51
84,112,63,41,30,24,34,58
81,125,70,37,31,21,39,61
76,118,60,37,29,21,39,61
76,116,57,34,25,21,39,59
79,129,63,37,28,23,49,58
67,120,62,38,28,23,49,49
66,112,65,38,27,23,46,41
76,120,68,45,34,24,47,39
86,133,68,45,40,25,48,54
87,123,67,43,40,25,35,55
94,132,70,43,40,25,37,55
93,124,59,47,42,28,35,56
86,115,60,41,41,27,36,57
76,110,71,41,36,26,35,43
77,126,76,44,40,29,32,39
71,126,73,44,40,28,29,38
74,131,74,40,40,26,29,41
71,141,76,38,36,27,25,38
69,138,71,38,34,25,47,45
63,124,60,36,27,23,46,47
63,128,62,35,25,24,49,49
64,126,70,35,24,25,49,46
70,115,64,35,27,26,50,44
68,112,59,33,27,28,32,38
71,120,68,37,31,28,32,35
72,108,71,38,32,31,29,40
74,112,63,37,32,31,28,40
69,111,63,35,31,29,35,41
73,117,65,36,33,31,39,50
75,111,61,32,30,29,40,57
93,134,61,30,31,25,41,57
89,125,64,33,28,24,40,57
103,139,68,34,28,25,37,57
110,148,69,37,31,23,40,59
111,151,70,40,31,22,40,53
94,133,65,41,31,21,39,47
103,140,66,44,32,23,38,45
90,132,59,44,32,24,37,52
83,112,63,45,28,21,28,46
75,100,57,44,40,24,36,44
74,97,59,44,47,31,36,43
62,85,60,44,49,32,36,44
68,83,63,44,50,34,37,38
63,89,66,48,50,36,36,36
60,97,71,46,43,39,26,37
61,98,70,45,35,35,26,39
61,109,69,42,31,36,25,37
63,113,69,44,30,35,23,35
64,116,64,38,29,33,21,36
65,114,60,38,26,32,21,34
66,118,60,40,25,31,38,37
67,112,60,37,23,28,38,43
66,116,67,34,23,27,38,47
63,113,65,30,25,27,40,46
66,108,63,33,24,24,40,47
87,125,70,34,27,26,36,50
86,128,76,35,28,26,36,45
87,123,69,36,28,25,37,43
87,119,66,36,29,26,37,40
87,125,70,31,30,25,37,40
68,146,81,35,32,25,35,38
67,141,74,36,30,24,35,40
65,145,76,36,31,23,35,44
68,147,76,36,28,20,35,45
84,153,79,41,27,21,36,48
84,125,67,40,22,18,29,45
94,136,68,39,25,20,29,45
90,125,67,47,28,20,28,43
88,126,78,52,28,21,34,44
80,123,72,49,29,20,31,43
78,111,65,46,29,22,30,42
72,130,69,49,29,22,30,43
76,146,82,52,25,21,29,42
80,146,73,47,26,24,24,45
83,145,70,46,25,24,28,44
83,159,85,50,26,27,33,48
81,137,79,45,25,28,32,47
85,125,63,33,25,29,33,47
81,134,69,32,25,28,31,43
87,144,71,34,25,29,28,46
88,137,57,31,25,27,22,41
95,149,62,32,25,26,32,46
95,147,66,33,26,27,34,48
103,149,70,34,26,26,37,51
97,138,72,35,26,25,36,52
98,137,83,34,25,23,36,55
91,133,88,36,25,25,28,50
88,132,83,33,25,25,35,47
80,114,76,33,23,26,40,45
74,114,78,29,23,25,40,42
78,104,63,28,25,28,40,42
77,100,50,27,25,27,40,47
78,106,51,29,24,25,33,44
75,106,48,28,23,24,25,43
79,147,80,36,24,27,25,44
79,158,82,37,25,25,33,43
80,160,84,39,26,25,34,42
87,157,83,41,28,24,35,44
105,212,113,48,30,25,39,42
102,182,88,42,29,23,40,38
96,177,89,41,29,24,43,39
99,171,87,39,28,23,42,43
91,192,106,42,28,25,42,48
72,140,76,38,27,23,38,48
77,154,79,38,28,28,40,50
80,166,94,43,27,28,29,47
78,164,94,42,27,27,29,43
84,147,75,36,24,29,55,42
101,158,76,33,25,31,54,46
100,154,86,38,25,27,54,46
105,151,73,36,25,26,55,48
108,156,77,36,26,28,55,53
102,146,74,35,25,25,36,52
91,166,94,39,24,24,37,50
101,161,87,34,22,23,38,49
96,148,84,33,24,23,38,53
99,150,83,35,25,21,39,47
99,164,86,36,27,23,31,43
93,127,64,35,29,24,32,43
84,123,61,37,29,24,26,42
76,129,70,36,30,28,42,46
96,151,73,41,29,28,42,47
98,144,67,41,30,27,48,51
109,148,62,38,28,28,48,59
110,160,67,38,28,27,49,59
111,150,54,38,26,23,36,50
90,125,46,31,26,23,35,48
92,130,60,33,25,21,27,49
77,127,63,31,25,20,36,43
73,120,60,29,25,21,37,43
70,125,63,33,24,23,37,42
64,119,65,36,26,24,37,46
65,109,59,35,25,25,38,46
66,113,64,36,27,24,42,41
64,105,62,36,27,23,41,43
62,105,68,36,28,20,40,43
66,104,69,34,26,20,41,38
59,100,64,32,28,19,41,39
63,82,54,32,27,21,27,42
59,77,54,32,27,22,26,40
63,84,55,35,28,23,24,43
66,91,56,35,29,22,24,43
61,88,57,35,28,21,22,36
55,87,56,35,27,20,20,34
55,97,57,36,26,21,20,33
52,111,61,30,26,22,21,32
48,118,62,29,25,22,21,38
49,122,64,29,26,23,20,38
47,126,72,30,25,22,20,37
47,131,81,32,24,22,21,38
51,123,74,34,23,22,23,36
43,110,71,36,23,21,22,26
44,109,79,42,21,21,22,28
56,119,80,43,22,21,23,26
59,119,69,41,24,21,22,31
55,103,66,38,21,20,19,30
59,113,67,37,22,22,21,30
73,113,56,28,21,23,20,29
73,110,51,26,21,24,19,32
74,100,55,37,21,23,20,27
74,100,57,38,22,23,23,29
76,96,58,38,22,22,22,30
60,98,60,39,25,25,24,28
59,100,55,39,23,25,27,27
59,115,53,34,25,29,27,29
58,123,65,39,25,28,26,25
54,119,62,39,26,29,25,24
57,117,59,40,25,25,24,27
46,117,73,44,27,24,22,25
42,103,76,41,27,22,22,26
41,92,71,43,29,21,22,27
47,106,75,46,31,22,23,31
52,114,79,46,33,22,26,47
54,102,70,42,35,22,25,49
52,104,75,52,39,22,25,49
59,118,71,50,41,26,26,49
55,109,69,49,42,26,27,47
53,107,75,49,40,27,23,32
57,106,72,49,38,27,22,33
59,103,61,36,32,27,23,31
53,87,61,34,31,24,21,31
47,81,58,31,27,22,18,32
46,84,65,34,26,20,18,32
58,89,64,33,26,22,27,33
61,100,64,32,24,21,26,42
61,101,63,31,21,24,26,44
63,103,66,33,23,25,27,44
61,98,58,28,24,27,27,45
52,99,58,33,24,26,20,42
47,93,58,34,26,26,21,32
49,93,58,34,27,24,23,30
52,101,68,35,26,25,26,32
53,100,62,38,27,23,25,31
51,113,67,40,29,22,24,30
58,111,67,40,29,21,24,33
57,108,65,38,29,25,21,35
54,106,58,37,29,22,17,34
57,152,86,41,28,24,18,34
55,159,94,41,25,27,20,35
47,158,95,40,25,26,19,31
46,163,97,41,25,22,21,29
48,162,95,43,25,23,22,34
51,122,70,37,24,20,22,33
55,117,67,34,25,18,21,35
58,115,70,36,26,22,22,36
62,117,74,38,27,24,21,36
66,115,75,37,27,25,20,30
65,123,85,36,28,25,21,34
61,116,82,39,27,24,20,33
58,114,78,38,26,22,20,34
52,111,76,36,28,19,20,34
50,126,91,37,27,19,19,35
55,126,81,35,26,20,19,33
51,112,74,31,27,21,20,32
54,114,73,30,27,21,18,35
60,115,72,28,24,21,20,38
65,117,73,32,23,21,20,38
55,100,74,34,23,21,19,41
57,119,75,36,24,20,20,43
55,118,77,37,22,23,20,41
61,121,82,43,23,22,20,42
55,102,65,40,24,22,22,41
61,114,64,41,24,24,23,38
60,103,64,40,24,25,23,37
60,106,69,40,24,24,24,37
54,97,61,35,23,25,35,46
66,112,62,33,22,26,34,49
62,104,60,30,23,25,37,47
71,98,60,31,22,24,37,50
71,108,63,33,23,23,38,50
71,107,60,32,24,21,29,40
73,93,58,33,27,21,30,39
74,93,59,34,27,19,25,37
70,92,63,35,27,20,23,35
71,76,54,33,27,21,23,38
79,86,56,35,30,22,21,37
66,82,53,34,28,21,20,40
64,83,65,37,31,22,22,45
61,87,59,35,30,23,22,43
60,86,60,37,30,22,22,41
56,121,88,44,31,24,21,42
67,130,90,43,30,24,22,39
67,132,81,39,27,24,19,33
65,130,82,41,29,22,20,35
65,129,82,40,31,24,21,36
58,104,57,35,29,21,22,32
61,122,64,36,31,21,21,31
63,115,67,39,31,20,21,34
63,125,79,37,29,22,20,32
70,136,83,36,26,21,18,33
69,133,83,35,25,20,17,34
56,108,76,33,24,19,17,34
60,109,78,31,26,21,19,32
63,97,62,33,27,19,20,32
63,83,55,32,29,19,21,34
70,87,47,29,30,18,21,32
73,140,94,48,32,21,22,33
81,151,95,50,30,22,21,38
78,149,96,51,29,22,22,39
74,159,102,51,31,22,23,38
71,163,110,50,29,23,23,38
71,118,74,35,26,22,22,37
59,119,85,33,28,21,22,29
64,134,93,38,29,20,23,30
58,131,93,38,24,20,21,25
60,136,97,42,24,19,20,25
54,145,99,42,25,20,19,27
51,132,89,49,24,19,19,28
49,128,89,48,30,21,19,28
57,124,82,49,31,22,19,29
53,103,68,45,33,22,21,28
55,101,69,47,33,22,22,26
53,104,65,37,32,22,21,25
54,95,54,34,28,23,22,31
46,88,53,32,28,22,21,30
55,106,52,35,27,23,19,34
57,110,55,32,24,21,20,34
59,108,53,34,27,21,20,35
58,130,67,36,27,21,20,33
61,135,82,44,26,20,20,35
51,120,80,42,28,21,21,31
51,118,79,46,30,23,21,31
50,126,89,48,28,24,20,30
53,105,79,45,28,21,19,30
50,100,63,37,27,22,20,26
51,110,67,36,26,22,20,27
49,105,61,28,22,20,18,28
51,97,46,24,23,19,19,27
46,93,48,25,24,20,20,25
48,94,53,26,24,19,19,27
51,96,60,33,25,18,18,26
47,91,59,35,25,18,18,25
47,90,62,34,25,20,18,26
45,90,67,35,23,19,17,25
48,107,79,37,26,20,18,27
42,99,71,31,25,20,19,29
41,101,72,32,28,21,22,31
42,108,73,33,27,18,20,31
48,115,70,34,29,18,21,32
43,107,60,31,26,19,21,31
48,104,59,32,26,20,22,31
52,103,57,28,24,20,21,30
50,102,56,26,25,21,21,31
49,133,79,32,25,21,22,32
49,132,76,32,26,22,22,31
53,149,80,35,26,21,21,31
52,166,94,37,28,20,22,31
53,160,91,37,27,20,24,33
53,133,71,30,26,20,23,29
60,150,91,36,25,21,23,28
51,147,105,36,26,21,22,26
52,130,94,36,25,22,22,27
52,142,100,39,27,22,20,23
49,141,102,39,28,21,21,24
42,126,91,38,27,18,21,27
53,110,72,36,26,18,22,28
55,112,76,35,24,18,19,26
64,110,70,34,24,18,21,26
64,128,77,36,23,19,22,27
67,129,73,32,26,22,21,25
67,135,73,33,27,21,22,24
66,137,70,33,27,21,23,27
63,145,91,37,29,22,22,30
70,135,85,35,28,21,20,29
71,127,81,35,27,20,20,30
63,125,82,35,27,20,18,28
63,126,86,35,27,20,18,26
66,121,64,29,24,19,18,25
60,107,62,29,24,21,20,26
58,114,69,29,24,20,19,24
57,115,75,30,23,20,19,25
69,116,70,32,23,20,21,25
61,107,69,30,24,21,21,23
60,122,81,32,23,20,21,24
57,121,79,31,23,22,22,24
65,123,72,29,24,23,21,25
53,121,75,28,24,22,20,26
58,119,74,28,27,22,20,29
66,123,69,28,29,23,21,33
70,123,64,27,27,22,21,35
69,124,64,25,26,21,21,33
70,120,62,26,28,23,21,33
78,142,63,29,25,22,23,34
74,132,59,27,25,22,22,29
76,135,62,28,26,22,23,30
71,135,61,28,27,22,24,30
72,144,61,28,27,20,25,32
58,118,55,25,25,21,22,27
58,113,49,25,23,21,23,27
53,109,44,25,22,19,22,25
54,113,54,27,21,20,23,24
49,95,52,24,21,20,21,20
51,97,58,27,23,20,21,24
58,110,67,28,25,19,21,26
54,115,72,28,25,20,21,26
57,105,68,32,25,20,20,27
60,120,75,35,26,21,20,28
65,128,73,33,26,20,20,29
57,121,77,37,24,23,20,28
60,116,71,36,25,23,21,29
58,119,73,33,26,24,20,28
71,120,70,32,25,22,20,30
68,130,83,36,25,23,20,26
71,131,75,30,23,20,21,28
67,134,81,33,24,21,19,26
72,146,86,36,24,20,20,26
68,148,89,36,26,20,19,26
68,137,76,32,27,22,19,27
65,136,76,37,28,23,18,27
69,141,73,36,29,21,18,30
66,140,76,37,28,22,17,32
63,139,80,39,26,22,17,32
67,139,81,40,26,20,18,34
74,146,82,39,27,19,18,34
72,144,88,40,26,19,20,33
78,130,76,38,27,19,19,33
71,119,66,34,27,19,18,30
64,129,70,34,26,20,19,28
63,118,66,30,24,21,18,28
67,113,55,29,24,20,18,28
66,110,55,25,22,19,17,26
66,123,61,27,23,19,19,26
70,111,61,26,23,20,19,29
74,113,59,29,25,19,20,29
74,129,71,30,25,19,21,27
69,141,73,33,27,18,23,29
70,133,74,31,27,17,23,30
65,141,85,41,30,16,23,26
58,152,88,44,28,15,22,23
58,148,88,45,29,17,23,24
68,162,92,48,29,19,21,23
67,161,90,48,30,21,19,27
69,163,87,45,27,23,19,28
76,162,83,40,28,23,19,33
75,153,74,36,25,23,19,32
72,136,70,34,23,22,19,32
80,150,80,39,23,22,20,27
81,140,71,36,21,21,21,27
72,126,71,37,22,21,20,26
68,126,76,36,22,19,22,28
61,125,74,34,21,19,23,29
65,111,63,29,20,20,23,29
63,109,63,31,23,20,22,29
67,127,78,34,24,21,23,28
73,127,75,35,24,22,22,26
73,122,73,35,24,24,21,28
65,117,71,34,25,24,19,26
72,125,70,33,25,24,19,26
70,123,63,29,24,23,18,28
73,128,62,30,24,21,16,29
71,131,62,31,24,20,18,29
66,136,65,31,27,20,19,31
64,134,70,31,26,22,19,32
79,139,64,31,26,23,20,30
75,141,71,33,26,24,20,32
75,137,73,32,26,23,19,30
76,131,71,32,22,21,19,32
73,120,61,30,22,19,19,32
56,97,56,29,24,17,19,31
52,90,60,28,24,17,18,29
51,97,66,27,22,19,18,29
50,93,63,26,22,21,17,27
48,108,71,27,22,21,16,28
49,114,76,28,21,22,17,28
49,115,70,26,23,22,19,28
48,105,60,24,23,19,20,27
60,123,72,29,25,18,20,27
65,118,68,29,25,18,22,27
63,115,66,29,23,17,22,30
81,108,60,30,23,17,23,30
82,118,69,30,22,18,24,30
75,119,67,27,21,18,24,31
71,122,68,27,21,18,23,30
71,131,68,31,23,18,24,27
49,141,81,33,25,19,23,28
50,135,76,35,27,20,22,32
51,126,73,34,26,19,20,29
62,127,76,36,29,21,22,28
66,132,78,34,27,20,20,28
68,124,67,32,25,21,19,28
69,133,73,35,26,21,19,26
70,133,70,36,27,21,20,26
61,135,70,35,26,19,19,26
57,117,65,35,27,20,20,27
51,113,68,36,26,18,20,24
50,105,60,31,24,16,21,22
49,113,68,35,23,19,20,25
53,102,61,33,22,20,23,27
54,107,63,33,23,22,22,26
54,105,61,32,23,22,22,26
55,114,68,36,26,24,21,29
51,111,61,33,26,21,21,26
55,117,72,35,29,21,18,32
53,120,78,35,28,19,19,33
54,120,78,34,31,21,18,34
51,107,70,30,27,19,19,33
55,100,68,30,28,21,20,34
47,87,60,28,25,23,20,30
47,91,54,27,26,22,19,32
45,98,55,32,24,22,20,32
54,104,58,33,25,23,21,32
53,115,62,32,24,22,20,31
52,118,60,33,23,20,18,29
56,115,60,34,23,20,19,28
62,111,59,28,22,18,19,30
65,138,70,30,22,19,17,30
69,133,68,28,21,19,20,31
70,131,66,27,21,18,22,30
75,142,75,26,22,19,22,30
70,147,77,29,22,19,23,29
66,114,63,27,23,18,23,28
57,102,61,27,22,20,21,29
59,108,68,28,23,20,21,31
47,111,80,33,25,21,21,30
51,111,83,32,25,20,21,32
40,111,83,34,24,20,20,32
40,111,82,35,24,18,21,30
38,124,89,37,26,18,20,28
50,136,75,37,27,17,20,29
51,131,67,37,26,20,19,24
56,132,67,36,28,21,19,26
57,140,73,37,29,22,17,27
60,150,72,41,31,23,17,26
61,133,66,37,27,23,15,27
63,133,66,41,30,21,17,28
61,135,68,40,29,20,19,27
61,137,62,42,27,20,20,30
73,124,50,40,24,19,27,35
72,108,53,43,24,21,28,39
69,105,55,37,21,21,27,40
73,112,57,38,22,21,30,42
73,100,54,35,23,20,35,39
60,79,54,31,22,20,31,44
54,92,54,28,20,19,32,39
52,93,58,28,19,19,33,37
49,98,58,29,19,20,30,36
49,102,61,30,21,21,25,37
52,125,63,31,22,22,24,27
58,145,80,36,23,21,22,28
59,150,83,39,25,21,21,28
57,145,81,38,25,25,21,27
60,148,83,40,27,24,20,28
52,140,91,41,27,25,18,34
43,112,78,37,28,26,19,36
61,107,72,34,29,26,19,42
61,103,70,35,28,21,18,42
67,122,83,38,28,23,18,42
68,108,71,41,33,24,19,37
73,103,68,41,37,23,20,41
65,110,67,41,43,23,23,41
67,122,76,45,49,23,24,43
57,95,57,43,48,23,23,43
63,93,55,43,45,21,22,46
60,112,59,42,47,25,20,42
55,125,77,44,43,25,19,39
63,123,70,38,38,24,19,38
69,132,73,37,42,24,21,39
66,138,76,35,45,22,20,36
73,137,76,37,42,20,20,32
72,121,63,37,42,19,19,29
64,116,67,41,52,25,22,26
58,106,65,42,53,25,22,27
54,98,61,43,57,27,23,26
41,76,54,41,55,26,23,26
41,82,57,39,59,26,22,27
44,87,51,36,56,23,21,26
47,92,52,40,56,23,20,24
55,103,57,46,54,21,21,24
58,129,62,49,57,23,22,27
57,120,52,49,52,24,22,26
61,117,52,51,53,21,21,28
59,128,65,44,49,21,20,28
55,124,69,33,46,23,18,28
57,101,67,32,48,24,17,26
60,105,68,31,50,23,17,27
55,117,79,32,48,24,20,27
56,114,69,35,50,25,21,29
53,111,63,36,48,25,22,29
48,124,62,34,49,23,21,29
46,126,75,36,46,23,21,33
47,119,68,35,42,23,18,32
45,107,66,32,36,20,19,31
48,108,62,32,37,19,18,31
47,94,67,34,29,19,20,30
50,89,56,31,26,21,21,25
49,83,51,27,30,20,23,23
51,89,51,30,32,21,21,24
50,92,55,32,33,22,22,25
50,89,49,31,37,23,19,29
48,92,45,33,38,21,18,29
47,85,42,32,36,20,17,29
42,89,61,34,36,25,16,29
48,91,59,29,33,23,16,28
51,95,62,29,31,22,16,26
48,89,60,28,31,23,17,27
50,114,77,34,31,24,18,28
53,109,64,31,31,19,17,26
49,106,65,33,32,21,18,27
47,121,75,35,30,20,20,26
47,128,77,34,30,19,19,24
44,110,66,29,27,20,20,23
45,116,73,31,26,21,21,23
45,119,76,31,32,20,19,25
41,105,65,28,32,20,19,22
47,103,67,28,31,22,20,23
48,105,62,27,30,21,17,24
50,115,63,28,35,21,18,26
50,109,67,30,29,20,20,24
52,108,70,31,30,19,20,25
48,111,66,32,31,19,20,25
52,111,67,33,31,20,21,26
46,88,60,29,26,20,22,24
57,108,58,29,26,20,20,24
54,104,54,27,24,20,18,24
53,97,57,28,23,21,18,21
50,96,59,30,25,19,18,21
64,108,58,32,25,18,17,24
52,91,54,31,25,19,18,24
54,97,59,34,25,19,21,25
58,106,66,33,23,18,21,27
58,103,66,31,20,19,20,24
46,94,68,29,22,20,22,25
49,99,68,30,23,22,23,25
49,93,64,28,22,23,22,22
49,90,63,28,26,23,23,23
52,98,63,30,30,23,26,24
50,110,64,33,29,24,23,21
52,112,63,31,29,24,23,24
53,119,63,32,29,23,23,26
50,125,64,34,27,23,22,26
48,138,77,34,24,21,20,26
49,133,76,32,24,22,21,27
44,132,80,35,23,20,22,25
43,130,84,35,23,20,21,23
49,136,80,34,22,20,21,24
48,117,69,35,24,21,22,23
47,114,69,37,23,18,23,22
47,105,63,36,24,19,21,21
46,102,61,35,24,19,23,22
51,94,63,37,25,21,23,22
53,99,61,35,23,20,23,22
54,101,67,33,25,21,22,25
60,124,81,34,23,19,22,26
64,129,80,33,26,19,20,25
55,119,75,30,25,18,20,22
52,117,76,30,26,21,19,23
51,125,76,29,23,20,20,22
52,116,77,26,24,20,20,20
47,105,77,27,20,20,21,23
48,103,74,29,21,21,21,23
51,106,73,29,22,19,20,23
50,93,70,32,23,20,19,22
42,78,49,31,24,21,19,23
54,111,50,32,25,20,17,22
55,125,64,34,25,18,18,22
54,124,62,33,24,17,19,22
56,125,60,30,24,19,19,23
60,128,59,29,22,18,19,25
51,123,73,29,22,19,20,24
50,113,66,27,21,20,22,24
50,115,66,28,21,19,21,26
52,118,63,30,23,18,20,27
49,116,68,33,24,19,20,27
49,111,59,31,25,19,19,28
57,114,56,31,26,20,18,30
54,114,60,30,26,21,17,29
55,122,73,31,27,22,17,27
52,121,73,30,26,22,19,25
57,111,67,32,27,20,19,25
51,106,69,32,26,22,19,22
50,100,63,32,26,22,20,23
47,96,55,28,23,21,20,23
47,92,50,25,23,20,20,24
44,101,63,30,22,21,20,23
42,99,64,30,21,18,20,21
46,104,69,33,21,18,20,22
51,123,77,37,23,19,20,27
53,123,81,39,22,20,19,28
49,126,76,36,23,20,21,30
48,129,76,36,26,20,22,32
47,132,71,33,26,21,22,31
51,130,69,31,24,21,23,31
49,132,69,27,23,20,23,31
48,116,64,26,23,20,22,29
47,115,61,25,21,21,21,28
44,113,64,26,20,18,22,28
29,80,51,22,21,20,19,22
29,80,46,26,22,20,18,22
34,91,45,27,22,21,17,21
37,87,49,26,22,19,18,23
50,88,49,25,24,19,17,21
51,90,49,27,24,18,17,21
51,83,47,26,25,20,17,20
50,78,46,23,24,22,18,20
56,90,48,25,25,23,17,18
51,117,58,30,25,24,19,24
54,117,59,30,24,23,17,25
56,122,61,31,23,21,18,29
54,121,67,32,23,20,19,29
48,120,70,34,23,18,19,32
47,100,59,29,21,17,18,30
43,100,58,29,22,18,20,29
46,104,63,28,23,18,20,27
53,114,65,30,26,20,22,29
50,106,54,27,24,21,21,24
46,97,66,32,25,21,20,26
58,102,68,32,26,23,19,29
55,102,72,31,25,23,18,29
50,95,68,32,24,21,15,29
50,98,73,32,25,20,16,29
53,91,65,27,25,21,15,27
44,102,78,31,24,20,16,27
44,107,79,31,24,19,18,25
42,100,75,29,22,22,17,24
63,114,72,34,22,21,19,24
65,175,100,42,24,22,21,26
63,172,90,38,24,21,21,23
60,164,80,38,25,22,20,24
61,165,82,38,24,19,21,24
42,156,84,33,25,19,20,24
40,113,58,28,22,19,18,23
40,108,57,29,23,21,19,21
41,108,57,28,23,19,19,22
44,116,62,32,24,19,18,22
44,115,61,33,24,24,19,21
44,89,47,30,24,24,19,20
48,101,51,34,24,24,20,20
53,116,63,39,26,25,20,21
52,109,57,37,25,25,22,24
52,108,58,38,26,20,20,23
50,116,70,41,25,21,20,24
47,109,74,38,27,20,19,25
68,122,69,35,27,23,21,30
67,130,82,38,27,25,20,27
67,132,78,39,26,26,21,30
75,138,75,36,31,25,21,30
74,134,75,35,29,25,21,29
53,111,73,35,29,21,19,23
54,111,66,33,30,21,19,23
56,115,76,35,32,21,19,22
46,101,71,34,28,21,20,22
46,100,64,35,28,20,21,22
46,106,66,35,26,22,22,22
45,103,65,32,24,20,22,21
41,101,64,31,23,21,21,20
41,100,61,31,24,21,23,19
42,101,64,32,24,22,23,19
42,93,61,30,24,21,21,19
47,105,72,36,25,22,22,21
50,125,78,38,27,19,22,22
47,127,81,38,24,20,20,22
49,129,79,37,26,18,18,23
51,142,91,37,26,19,20,26
47,126,81,32,25,18,18,25
47,104,71,30,23,19,18,24
46,99,68,30,23,18,17,23
41,113,80,37,22,18,16,23
50,112,68,37,21,19,16,20
52,116,63,34,21,19,16,22
49,115,59,31,19,19,15,21
51,137,80,35,20,21,16,22
58,125,69,30,20,21,17,21
46,111,66,32,22,21,17,22
47,116,73,35,24,20,19,20
53,114,74,36,25,20,20,20
50,88,56,33,25,19,20,19
44,92,59,29,25,20,19,19
45,96,66,29,24,20,17,19
41,86,64,29,24,20,15,22
42,87,67,28,24,21,14,22
47,106,75,30,24,21,17,22
45,103,79,30,25,19,16,22
46,97,72,30,24,22,18,21
58,129,73,30,23,23,19,22
53,132,70,30,21,24,20,22
47,119,61,30,22,23,18,24
48,133,62,30,23,24,19,24
50,139,68,29,24,21,20,24
48,115,65,28,25,20,20,21
48,113,67,28,24,19,21,21
48,111,65,26,24,21,22,20
51,88,60,27,21,20,21,20
48,81,59,27,22,22,20,22
38,74,57,26,20,22,20,22
36,82,67,27,20,22,20,22
39,95,70,27,22,21,19,24
37,102,73,29,23,20,21,24
47,121,81,32,23,20,22,24
47,124,82,32,24,20,22,23
48,127,82,34,26,19,21,25
52,130,81,35,24,18,21,25
51,124,74,33,24,19,20,24
46,106,62,32,24,17,17,23
46,117,68,35,23,18,19,24
48,105,54,32,23,18,20,25
45,89,50,33,22,18,20,23
44,88,50,33,22,18,20,23
40,120,80,33,20,19,20,23
41,107,75,29,20,19,20,23
39,110,77,31,21,19,18,21
41,127,81,30,22,19,17,22
44,162,94,35,23,20,18,24
43,141,73,34,24,20,18,24
42,140,73,35,26,19,17,25
43,141,74,34,26,20,16,24
42,138,75,33,26,20,17,23
39,100,61,31,28,18,16,22
43,111,67,32,28,19,16,24
44,111,65,32,26,19,14,24
44,112,72,36,25,18,17,23
41,98,68,35,25,19,18,23
40,96,68,33,21,20,20,24
36,80,60,31,22,19,21,22
33,89,61,32,23,20,22,20
32,100,59,29,23,21,22,20
38,101,59,31,24,20,22,20
38,99,56,32,25,21,22,20
47,112,68,34,26,21,22,22
46,108,70,33,24,20,23,23
50,97,64,30,24,20,22,25
48,100,66,28,26,22,22,24
56,109,66,26,24,20,21,24
51,98,55,23,23,21,20,21
52,100,56,24,25,22,20,23
51,105,64,25,25,21,20,20
52,104,64,28,22,20,21,21
46,99,64,28,22,22,21,21
43,112,75,29,22,22,21,21
47,112,78,29,19,21,21,20
47,120,75,31,22,22,20,20
44,134,89,31,22,21,19,21
48,141,90,32,24,20,18,22
51,127,80,31,26,20,18,23
48,128,77,31,26,20,17,23
47,124,77,29,26,19,18,23
46,111,63,26,25,20,18,22
41,99,60,27,26,21,21,21
43,101,62,30,26,19,20,21
43,99,67,30,25,19,21,21
46,89,60,30,25,19,20,22
51,93,60,31,24,21,21,25
56,101,62,30,23,21,19,23
53,110,71,31,22,20,19,22
57,107,65,29,21,22,20,23
56,110,65,32,23,24,21,24
53,106,68,34,22,23,21,21
50,101,67,33,23,22,21,22
52,95,59,31,24,24,21,23
51,94,57,32,25,23,20,23
49,93,60,27,23,22,18,21
49,94,59,24,23,21,18,21
49,89,60,24,20,21,19,21
47,84,56,24,22,20,20,22
44,89,59,25,21,18,19,22
43,100,66,28,24,17,21,23
44,91,59,28,23,18,20,23
38,93,60,27,24,17,19,22
39,96,67,31,24,18,19,22
39,102,74,34,24,19,19,22
37,79,65,32,22,21,21,20
37,92,68,32,25,22,21,20
38,90,66,32,25,22,21,20
42,94,63,28,22,22,21,20
41,86,53,25,23,24,21,22
45,93,55,26,21,21,19,22
42,83,55,27,22,22,20,24
42,94,55,30,23,23,19,25
37,103,61,32,24,24,19,25
36,102,65,32,24,22,20,23
40,104,67,32,26,24,20,24
41,100,69,30,24,23,20,23
41,97,78,28,23,22,20,22
40,90,78,27,24,21,19,25
42,97,76,27,24,22,19,25
40,96,74,25,23,21,20,28
39,108,80,30,25,20,20,26
39,103,68,29,25,19,19,27
38,96,62,28,25,18,20,22
55,95,64,27,24,17,21,25
50,98,65,27,23,18,19,24
52,86,55,23,21,18,19,26
55,97,67,27,20,21,20,28
61,94,65,28,19,21,18,28
53,87,61,28,19,21,17,28
52,87,61,29,21,22,19,29
59,108,71,32,23,24,17,30
58,105,63,31,24,24,18,28
55,108,68,30,24,25,20,30
53,110,70,30,27,25,22,29
55,104,67,32,25,23,20,25
46,85,56,27,23,23,23,28
50,95,67,26,25,22,21,29
49,105,70,28,25,21,20,28
45,103,65,27,22,22,18,27
55,109,70,26,24,21,18,28
57,112,71,30,24,22,19,27
55,96,57,29,21,21,21,26
51,79,50,28,23,20,20,25
51,100,78,28,23,19,22,25
44,98,74,26,22,18,23,24
47,105,77,22,21,17,22,25
44,105,78,23,23,17,22,25
44,108,79,22,21,20,23,27
48,104,65,25,24,24,24,27
41,100,66,26,23,24,22,26
37,89,59,24,26,24,22,24
35,89,58,24,24,23,19,25
47,107,67,27,27,22,20,26
43,95,56,23,25,21,17,25
46,94,54,24,27,22,18,26
43,98,59,28,24,22,18,25
51,100,60,27,27,22,18,21
43,81,46,23,25,22,17,21
44,74,46,24,26,20,16,23
44,81,50,24,24,20,16,22
45,70,45,18,23,21,16,24
43,102,59,26,23,21,20,24
39,106,63,28,24,21,19,23
38,107,64,27,24,21,20,20
46,106,66,28,25,21,22,22
51,119,73,34,26,21,23,23
47,91,62,32,24,22,22,23
55,101,63,32,23,21,21,24
58,106,66,33,24,22,22,26
50,103,63,32,23,22,21,24
51,99,56,27,24,20,19,21
51,100,54,24,24,19,19,23
46,90,49,25,26,19,19,22
53,104,52,28,28,20,20,28
56,105,54,28,28,21,21,28
55,100,55,28,27,21,21,29
56,112,63,29,27,20,20,31
54,129,74,31,26,20,19,31
49,122,71,27,23,20,17,29
47,123,72,29,24,20,17,28
43,125,73,32,24,20,18,27
39,123,75,35,25,20,17,27
45,124,66,31,25,20,18,29
41,116,64,33,24,20,17,26
41,121,66,31,23,19,18,27
45,124,69,30,26,20,17,27
46,116,60,27,27,22,18,24
42,105,65,34,28,23,18,20
44,108,66,33,28,22,18,22
42,99,63,34,29,22,19,23
39,107,59,34,28,23,20,24
45,127,84,36,29,22,20,27
44,118,81,32,27,21,20,28
42,116,81,34,26,21,21,25
48,123,84,33,27,20,21,28
50,120,87,34,28,19,21,28
45,96,65,33,25,17,20,24
42,99,64,32,24,18,21,28
43,105,67,28,25,18,19,31
39,99,64,29,23,19,19,29
40,90,57,26,20,19,20,28
41,97,65,28,22,21,20,29
42,98,63,28,23,22,20,24
41,93,61,30,23,22,19,21
40,88,58,28,23,22,19,19
39,101,61,30,25,21,18,27
46,106,51,28,24,19,18,29
47,109,55,28,23,19,18,31
44,106,48,26,23,19,20,49
46,116,54,31,22,18,20,49
43,110,52,32,22,19,21,46
36,104,54,33,24,20,21,46
41,105,60,35,24,22,22,46
44,108,63,35,24,20,21,26
47,102,61,33,25,22,21,28
49,101,61,30,23,23,21,33
51,100,65,32,25,22,21,33
49,91,55,29,25,21,20,31
52,126,62,31,25,22,20,31
49,126,61,29,25,20,21,30
49,123,58,32,25,20,20,22
47,139,68,32,22,19,21,25
42,139,69,32,21,20,21,29
38,112,69,31,24,18,21,32
50,110,69,32,24,19,22,33
50,118,80,35,26,18,21,33
53,103,67,33,27,18,21,33
55,107,69,33,28,17,21,32
53,110,65,32,25,19,22,28
46,122,69,32,26,18,20,25
47,124,63,28,24,20,21,25
47,115,60,27,23,21,20,22
48,112,57,26,21,20,19,21
49,102,56,28,22,18,17,21
48,104,58,29,22,19,19,21
48,91,53,27,23,20,19,25
46,89,55,29,24,20,18,25
47,94,57,30,25,21,19,24
48,105,60,29,28,22,20,27
51,93,55,26,28,23,19,26
53,93,52,26,25,22,18,24
53,106,62,29,26,22,20,25
51,115,65,28,26,24,21,25
49,105,60,29,23,23,20,25
45,116,65,31,22,22,20,26
40,121,71,32,23,22,21,26
47,125,68,30,23,21,20,29
46,116,66,28,22,19,18,29
48,124,71,28,22,21,20,28
51,110,60,27,23,21,19,28
49,103,59,26,23,20,18,25
46,99,53,28,23,21,17,20
46,95,50,28,24,22,19,21
47,105,58,32,25,21,19,22
43,104,62,32,25,21,18,23
46,116,64,32,26,21,19,27
43,102,64,29,27,20,20,30
46,117,69,31,28,19,18,32
44,101,62,28,26,19,18,30
44,107,63,29,27,19,18,28
40,95,60,28,26,20,17,26
45,118,71,29,26,19,18,24
47,115,71,27,25,17,19,21
50,118,69,25,28,16,19,24
52,119,82,29,27,16,20,25
51,119,81,31,28,17,19,23
52,107,72,30,27,17,19,21
54,116,76,32,26,19,20,22
52,119,80,35,23,19,19,23
50,118,65,31,21,20,20,24
55,135,76,33,25,20,22,28
53,134,80,32,26,23,24,28
49,121,77,34,27,23,22,30
46,123,79,33,28,23,23,30
47,118,81,35,30,22,22,29
42,100,71,32,26,21,19,25
41,107,67,35,27,19,18,25
47,109,64,32,27,21,20,25
53,99,51,29,25,22,19,30
56,105,45,26,25,22,19,32
60,114,54,28,25,22,20,34
57,101,49,25,23,21,18,34
50,101,56,28,23,19,19,32
44,108,63,28,24,18,21,27
43,127,78,31,24,19,21,25
41,127,74,32,28,21,20,23
45,140,77,31,28,21,20,29
45,146,77,31,29,21,19,31
46,149,74,32,29,21,17,34
52,139,64,31,29,19,18,35
52,127,60,29,25,18,19,37
52,118,60,30,25,19,19,33
55,112,59,29,25,19,19,32
57,113,61,28,26,20,20,28
50,113,64,29,25,20,20,26
54,138,74,31,25,21,20,24
52,145,77,31,25,21,19,22
58,155,77,31,24,21,20,24
58,158,84,34,24,22,20,23
55,151,80,32,25,24,20,25
53,137,75,31,24,22,19,28
62,150,93,38,25,23,20,36
57,140,92,37,24,22,19,39
55,132,84,34,24,22,19,39
57,133,93,36,22,21,18,37
58,125,92,36,22,22,20,35
47,94,70,27,21,21,20,28
47,81,66,26,23,23,21,21
49,76,72,28,24,23,22,27
48,74,58,26,24,23,22,33
44,73,56,26,27,24,27,35
47,75,53,27,27,23,26,37
48,115,69,32,26,22,26,38
52,124,69,31,24,21,26,37
52,125,71,29,25,21,26,34
57,130,74,31,23,22,20,33
56,131,75,31,22,22,21,33
58,101,63,28,23,23,21,36
59,99,59,31,25,23,20,35
60,92,56,31,25,22,19,34
56,101,64,34,24,21,21,32
56,102,66,33,26,21,22,31
54,109,68,33,24,19,22,27
50,102,62,32,23,20,23,24
52,104,62,33,22,20,23,26
51,97,60,29,23,21,22,28
52,134,87,37,24,21,22,26
49,133,87,37,25,22,25,25
47,131,87,36,25,21,27,28
51,144,92,37,26,22,27,28
56,157,96,39,27,22,26,28
57,128,73,33,24,23,26,30
59,123,72,33,25,23,24,34
57,122,71,32,26,22,21,41
62,115,69,32,23,22,21,45
65,95,53,28,22,23,31,48
67,99,58,28,22,26,32,56
72,110,67,28,22,26,33,56
80,120,72,27,19,26,33,54
75,113,69,27,23,28,34,50
80,121,72,28,25,27,39,51
91,125,70,29,26,24,39,41
102,142,80,32,25,23,38,42
103,162,89,36,27,25,38,43
107,171,88,38,25,23,38,46
100,162,87,38,26,21,26,42
94,165,91,36,24,21,33,43
80,147,76,34,24,24,33,44
75,129,71,33,25,22,39,43
67,122,73,32,25,24,41,44
68,126,75,34,24,24,43,45
67,112,62,34,25,30,46,45
65,111,62,33,24,29,58,43
64,133,74,39,26,31,56,38
63,142,74,37,26,30,57,40
69,151,77,35,28,31,55,39
67,152,79,38,30,37,65,45
79,148,82,42,34,65,123,54
78,112,59,35,37,74,134,66
83,98,62,36,40,78,143,66
86,112,66,39,38,79,147,68
94,122,66,38,38,80,150,69
89,148,73,37,35,61,107,64
96,163,80,37,30,49,95,55
94,171,86,40,29,44,83,53
89,153,80,39,29,45,86,54
85,153,82,40,30,35,74,56
90,155,98,43,29,36,79,62
90,157,94,46,33,40,79,65
96,175,89,45,33,39,77,71
99,181,93,46,36,39,78,73
99,179,96,50,40,46,76,73
93,171,86,47,40,43,69,67
82,159,86,48,39,45,84,75
76,135,84,49,41,51,115,80
76,131,84,50,43,54,123,90
82,135,82,47,38,49,125,87
80,121,71,51,42,51,127,88
84,125,76,52,43,48,120,82
83,124,78,55,43,41,93,73
92,134,76,52,38,34,76,56
82,118,73,48,37,31,71,55
82,117,71,43,32,28,64,51
86,125,64,39,29,25,56,42
89,127,60,29,24,21,46,40
77,123,64,30,25,20,38,47
72,124,62,32,25,22,37,44
75,130,63,34,27,21,27,46
66,127,69,35,25,21,24,47
59,119,71,38,27,22,22,43
70,116,62,36,26,23,21,34
74,126,67,37,28,22,21,41
66,116,62,33,26,23,21,39
68,100,52,31,26,25,22,37
79,142,72,39,26,27,23,50
69,147,75,40,27,26,26,50
68,139,72,39,28,24,25,45
75,165,86,43,29,24,31,48
75,169,88,42,27,22,38,51
62,140,73,34,26,21,38,40
70,135,75,33,25,22,39,45
74,142,86,35,24,22,38,45
70,111,73,31,22,22,32,42
70,113,73,33,23,22,25,43
76,114,69,31,22,20,23,45
69,107,76,35,22,22,20,42
61,98,63,32,20,22,19,41
61,103,63,31,22,22,21,46
60,102,64,30,20,22,20,47
54,103,75,31,22,24,19,43
48,104,65,27,23,21,19,41
46,99,64,29,23,22,22,43
46,111,71,31,23,21,20,41
44,101,66,30,25,20,19,38
44,89,52,27,23,20,18,41
44,87,54,28,23,21,19,42
46,101,56,28,24,20,17,39
45,91,51,27,23,22,17,34
44,108,60,32,24,21,19,31
42,115,61,31,25,22,19,28
40,112,59,30,24,20,18,30
42,103,59,29,24,21,18,34
35,100,56,29,25,18,18,32
47,94,51,28,23,18,18,30
46,84,50,29,24,19,18,29
49,105,51,31,22,19,19,28
53,121,58,31,21,20,19,28
55,122,59,31,20,21,20,35
44,110,58,28,22,22,19,37
45,113,59,27,20,22,21,37
46,96,52,26,21,24,20,36
42,80,46,29,25,22,22,37
49,84,45,34,27,23,21,30
49,92,49,36,26,22,21,31
47,89,48,35,27,22,20,30
52,94,53,37,26,20,21,28
51,91,54,34,23,21,19,25
45,93,56,27,21,20,21,30
46,100,52,24,21,22,20,30
50,116,60,28,22,23,21,32
40,110,58,28,23,22,21,33
39,107,57,29,22,23,21,34
36,98,55,30,21,23,20,35
34,89,59,29,22,21,20,33
33,90,61,25,19,21,20,38
34,96,62,23,20,21,20,37
32,104,71,24,21,20,20,38
32,106,72,24,23,20,18,33
40,116,69,24,21,20,18,33
45,116,67,25,24,21,18,27
47,124,74,28,25,20,18,28
48,119,66,25,23,18,18,27
55,126,73,30,23,19,19,30
53,119,74,31,23,19,19,33
50,113,71,33,22,18,20,34
50,102,62,31,21,20,19,33
52,114,63,34,23,20,19,37
55,110,60,32,24,19,18,40
52,110,57,31,25,21,18,36
52,103,57,29,25,20,18,35
55,109,62,29,26,19,19,35
54,101,59,28,26,19,18,30
48,94,54,25,24,20,18,24
51,91,55,28,24,20,19,26
56,104,66,32,24,20,18,28
52,94,60,31,23,18,18,28
52,93,65,30,21,21,19,32
48,95,65,30,23,19,19,31
49,119,79,31,24,18,19,30
44,113,76,28,26,19,18,29
44,110,76,27,24,19,18,27
44,110,72,28,27,18,17,26
50,121,73,28,26,18,17,26
48,108,58,28,26,17,17,29
47,107,48,27,21,18,17,28
50,134,64,31,26,20,18,29
48,135,64,29,22,19,18,28
43,125,64,30,24,20,18,28
40,113,62,25,23,21,18,25
35,108,60,26,24,21,20,25
34,81,52,24,22,20,19,23
56,115,61,28,23,21,23,26
58,120,57,27,23,20,23,24
65,142,69,28,22,20,23,27
72,147,76,30,22,20,22,31
71,149,72,31,20,21,23,32
62,129,71,30,22,20,19,30
60,122,73,29,21,20,19,31
61,105,63,30,23,20,18,36
55,93,54,26,22,19,19,32
55,107,72,28,22,16,17,33
51,107,67,27,22,17,17,33
51,109,66,28,23,19,17,33
41,102,65,29,21,19,17,27
39,112,71,30,21,20,16,27
37,102,56,27,23,22,19,24
34,96,60,27,21,21,19,24
35,95,61,27,21,22,20,25
35,97,61,26,20,23,21,23
44,107,58,25,20,23,24,24
52,105,56,26,20,22,23,28
51,111,57,26,20,25,22,29
50,122,59,26,19,25,22,29
52,126,61,28,19,23,20,30
46,114,61,31,24,25,18,29
42,108,64,30,22,25,18,25
44,108,62,32,23,25,19,24
45,99,64,30,24,24,20,25
43,92,67,29,26,24,21,27
45,95,66,27,22,20,21,26
57,103,71,30,22,22,23,30
55,98,69,26,23,18,22,30
56,126,78,31,24,20,20,29
61,135,73,30,22,20,21,28
60,130,73,31,23,21,22,29
50,125,68,28,22,19,19,25
53,126,67,30,22,19,22,27
52,120,66,33,23,19,21,26
46,113,69,32,24,18,21,25
63,128,71,32,24,20,20,27
63,140,71,32,24,20,19,26
63,141,76,33,23,20,16,28
61,129,68,27,23,20,18,28
67,126,66,26,22,22,20,31
48,114,65,27,22,20,19,28
47,97,58,25,26,22,20,29
47,93,56,25,26,21,21,24
61,92,55,28,24,20,21,31
52,89,57,27,26,19,21,28
54,96,59,29,30,20,22,29
58,104,57,32,31,21,22,30
72,112,54,31,32,22,23,31
77,116,51,30,35,23,21,26
82,123,48,29,34,22,19,26
84,115,45,28,35,20,20,26
81,112,55,43,44,19,21,24
69,112,61,48,48,19,20,25
50,104,58,49,47,18,21,23
48,110,57,52,54,19,21,23
44,107,57,53,56,21,18,24
45,116,64,44,52,20,17,23
45,106,54,38,50,21,16,21
47,101,57,35,50,23,16,22
44,94,59,34,42,23,16,22
45,128,79,37,38,24,18,23
43,113,69,36,31,24,19,23
48,133,75,37,30,22,20,24
48,136,78,39,44,22,19,24
47,138,82,42,51,23,23,24
48,107,61,37,53,21,23,22
46,106,63,36,53,21,23,23
43,79,57,34,55,21,22,25
50,81,54,40,50,21,21,25
49,81,55,48,60,20,17,25
50,85,56,50,61,23,17,25
53,97,53,52,65,23,18,24
56,118,70,57,62,22,18,23
52,118,68,52,59,22,18,23
58,110,62,42,44,23,20,23
56,121,65,41,41,20,19,23
54,115,65,40,45,22,18,23
52,107,50,34,50,23,20,21
51,113,60,39,52,25,19,22
55,132,73,39,54,26,18,23
54,119,69,41,55,27,18,23
60,130,72,43,53,27,17,21
58,136,74,45,55,29,16,23
59,127,66,41,53,29,17,23
58,123,49,39,50,29,19,20
58,125,52,38,52,29,19,20
53,118,54,34,47,27,22,23
57,107,52,33,42,28,21,24
54,110,49,32,41,27,22,23
46,88,48,33,41,28,21,25
50,97,55,32,37,26,20,25
48,92,49,35,55,29,19,23
44,87,47,33,57,26,20,22
51,123,56,34,57,25,21,26
51,128,57,34,57,23,21,26
49,127,53,36,57,24,22,27
51,130,56,33,41,20,22,27
47,125,56,32,32,20,22,25
51,121,59,36,36,20,20,22
61,124,66,38,41,23,21,23
59,118,65,35,40,23,21,19
64,117,64,36,44,26,20,21
66,119,69,37,45,27,19,21
59,90,58,34,41,26,18,20
53,105,64,33,40,25,17,20
53,103,61,32,43,24,16,22
50,99,64,30,36,22,17,23
50,101,58,28,34,23,18,23
46,99,61,28,36,23,19,23
40,75,45,26,39,23,19,22
38,72,48,31,36,24,19,20
41,78,47,33,38,23,20,20
47,85,52,35,39,21,18,22
52,84,53,35,39,22,19,25
55,91,54,36,32,22,20,26
63,108,61,34,28,21,21,29
65,111,61,33,27,20,21,28
59,104,56,33,27,21,23,27
60,110,55,32,25,20,24,26
62,126,65,32,24,18,23,25
55,127,62,31,26,20,23,23
51,123,57,28,27,21,23,21
51,124,59,28,24,23,21,22
52,125,65,30,26,23,20,21
51,123,63,31,26,23,19,21
55,111,58,29,26,23,18,22
51,108,58,31,25,22,19,21
51,113,65,32,27,20,19,20
45,113,64,30,27,20,19,18
43,90,58,28,27,20,19,19
38,101,59,30,25,18,20,18
38,101,63,31,25,20,19,19
45,121,72,33,23,20,21,23
46,113,67,35,23,18,22,24
46,115,66,34,22,19,22,24
50,116,67,36,22,19,21,25
53,125,75,38,23,19,21,26
47,103,62,35,22,20,18,24
45,100,63,35,21,19,18,23
51,102,64,37,23,21,18,26
48,88,64,35,23,22,21,25
45,72,52,30,22,21,20,23
47,75,53,33,23,21,21,23
47,79,51,32,24,21,21,22
41,100,73,36,25,20,20,22
39,103,75,34,24,19,17,22
40,119,77,36,25,19,19,22
39,118,76,34,26,24,20,24
38,119,75,33,26,24,20,25
42,116,64,30,24,24,23,25
52,147,68,34,26,23,24,24
52,146,70,35,28,25,25,24
53,152,75,35,25,21,22,22
54,149,77,35,26,22,24,22
48,135,69,33,26,23,22,18
39,100,64,29,26,23,20,21
39,85,60,27,24,22,19,20
38,81,55,26,24,21,20,21
39,84,61,25,25,24,18,21
40,84,62,27,26,22,19,23
36,80,59,25,24,23,21,21
40,81,62,24,24,22,21,23
41,74,59,23,24,23,20,24
40,69,49,23,25,21,21,24
45,109,60,27,25,22,22,22
54,115,66,28,25,21,23,23
50,117,66,32,24,21,23,20
49,113,64,32,26,20,23,20
48,111,64,33,23,18,24,20
47,80,56,32,24,20,22,22
36,78,60,31,24,22,20,22
44,81,62,31,25,21,21,25
43,82,62,31,24,21,21,23
43,85,64,32,32,21,19,25
40,85,65,30,34,23,21,24
39,79,58,29,34,21,21,24
32,79,51,27,34,22,21,23
33,83,51,28,34,24,22,23
41,93,50,24,26,24,21,24
44,104,61,29,27,20,20,23
45,105,61,32,28,21,19,23
45,103,62,33,27,21,18,22
51,117,72,34,28,20,17,23
45,107,74,35,29,20,16,21
46,90,58,31,26,19,17,22
45,88,57,27,24,20,18,21
49,92,64,26,25,20,17,22
43,75,54,24,24,20,18,24
45,86,54,30,24,22,19,26
41,84,55,30,27,23,18,25
39,85,53,31,30,23,18,26
38,80,47,32,30,24,18,24
42,94,60,33,30,24,19,20
39,87,59,29,33,22,19,18
40,87,62,30,32,21,20,18
46,86,63,29,30,21,22,19
43,89,63,30,29,19,22,21
39,71,50,31,29,18,22,24
37,70,47,32,28,20,22,24
42,84,48,32,28,20,21,24
40,92,55,33,28,22,21,24
46,96,61,32,28,23,22,24
48,96,58,30,27,24,21,20
52,103,60,30,26,24,21,21
47,94,58,31,27,23,22,22
52,126,65,30,30,22,19,27
49,124,58,28,33,22,19,27
51,124,58,28,33,21,20,28
48,119,56,27,31,19,19,27
48,123,58,26,29,20,19,27
40,89,53,30,29,20,21,21
41,80,53,29,29,22,20,20
43,88,54,29,31,22,19,21
47,115,62,31,33,24,19,20
48,110,64,33,36,23,18,21
47,102,58,31,33,22,17,20
44,105,60,31,33,21,18,25
38,99,61,31,30,23,20,24
32,68,52,28,27,22,21,25
32,71,54,30,29,23,22,24
31,71,52,29,29,25,22,23
33,89,51,28,29,24,22,21
33,90,56,28,30,24,20,23
35,103,63,30,30,23,19,26
35,107,64,24,28,22,19,29
37,118,68,27,28,21,20,30
38,106,71,31,28,22,21,28
38,106,65,31,27,20,23,27
39,101,62,30,27,19,23,26
38,93,53,31,27,20,21,24
38,93,55,29,26,21,21,27
34,98,53,31,25,19,20,27
38,106,58,33,26,20,19,27
34,103,57,32,28,21,18,24
35,106,62,31,27,22,23,22
33,99,59,33,28,22,23,18
33,90,55,31,27,23,24,19
32,83,55,29,25,23,23,19
34,79,56,31,25,23,25,20
39,83,51,32,23,22,20,20
39,80,52,31,24,23,18,20
40,92,59,29,30,21,17,19
37,90,55,31,31,23,18,22
37,88,55,28,30,23,18,21
34,99,60,34,30,24,18,23
35,114,68,35,29,20,22,26
40,125,62,33,27,20,23,26
44,124,63,32,24,20,24,25
45,135,71,37,25,20,23,27
47,125,70,34,28,21,23,28
46,112,62,32,30,22,20,27
48,107,65,33,27,23,18,26
45,113,70,33,27,21,19,26
44,101,62,29,28,22,20,23
41,104,61,28,26,19,19,20
42,106,62,32,27,20,18,18
33,88,60,32,28,20,19,20
40,94,58,32,29,21,20,23
36,99,58,30,28,20,19,22
37,100,61,30,29,21,20,23
40,110,73,28,28,20,21,26
42,114,73,27,27,19,20,26
36,100,71,28,29,20,19,23
37,98,71,29,27,21,20,25
34,91,67,28,28,22,18,25
33,87,50,27,27,21,17,22
32,89,48,29,28,23,19,20
36,119,60,29,29,20,19,21
37,118,59,28,30,20,17,21
41,122,64,28,28,20,20,20
46,126,68,29,28,22,19,21
46,135,78,30,28,22,18,21
43,112,67,29,25,22,22,20
43,118,67,31,31,22,22,17
44,123,64,31,33,22,20,19
42,128,74,37,34,21,21,19
43,117,71,35,34,22,21,22
44,119,76,36,36,22,18,21
44,124,85,37,34,20,18,23
43,122,84,37,31,21,19,22
39,106,73,30,30,19,19,21
37,99,63,31,34,19,18,19
48,102,63,32,33,20,19,22
50,126,84,34,30,21,20,24
51,123,85,35,31,20,20,25
52,127,89,35,31,22,21,26
54,127,89,34,26,22,21,26
47,137,90,36,28,23,22,25
44,109,63,35,27,21,20,22
41,110,68,37,30,21,20,20
41,107,66,37,27,20,19,21
38,106,69,38,27,22,19,22
31,92,66,40,28,20,18,21
29,97,68,38,30,20,19,21
30,94,60,36,30,23,19,22
27,91,54,33,31,22,19,21
31,97,59,33,34,19,21,23
38,101,61,28,35,21,19,24
41,101,56,26,35,23,19,23
40,113,71,27,35,22,20,23
40,115,72,28,39,22,20,22
37,109,65,28,37,25,20,20
33,99,64,28,33,25,20,19
42,102,70,33,33,22,20,22
42,84,54,33,32,20,17,22
42,89,55,33,29,23,18,23
46,101,61,36,31,20,16,28
45,104,58,37,32,21,18,27
35,94,52,35,32,22,18,25
37,102,55,33,29,23,20,26
36,96,56,35,29,21,20,26
35,91,52,32,26,21,21,22
44,88,58,31,24,21,21,23
42,87,56,27,23,21,20,23
41,78,55,27,30,22,22,24
43,88,57,25,29,21,22,25
42,85,58,25,31,19,23,24
33,82,51,24,32,22,22,24
42,129,67,34,34,22,24,25
44,140,69,33,29,22,22,24
42,133,67,34,27,22,23,21
44,134,66,36,28,22,22,23
43,137,70,38,29,21,22,22
40,108,65,32,30,24,24,22
41,95,65,33,31,24,24,21
40,96,64,33,32,26,25,24
37,93,64,32,29,28,25,21
41,102,69,34,30,28,25,25
36,87,60,32,25,26,23,23
38,89,58,36,32,26,22,26
40,88,56,35,33,25,21,24
43,101,66,43,35,23,21,26
42,85,56,40,33,23,20,24
45,80,54,39,36,25,21,26
47,85,53,37,30,24,20,25
49,109,72,47,28,25,20,27
49,102,63,41,28,24,19,28
48,132,76,46,29,23,18,27
45,135,77,47,27,23,19,27
40,135,82,48,28,22,20,27
43,129,71,41,27,21,22,26
60,150,80,44,29,22,22,29
60,128,69,40,28,23,22,28
61,128,67,40,31,20,23,29
64,130,61,43,33,22,22,28
63,144,70,42,33,21,19,27
48,138,79,44,32,22,19,22
50,158,85,46,30,22,21,24
50,158,88,47,36,23,20,23
47,156,92,44,35,21,19,23
44,138,86,54,38,22,22,26
41,116,67,51,37,20,23,26
38,84,57,50,39,21,22,26
47,118,72,54,33,21,22,26
48,119,68,55,36,22,23,26
48,128,65,44,34,21,23,24
49,148,78,46,38,25,22,25
48,148,77,46,36,23,22,25
55,134,67,40,34,21,24,25
56,130,65,38,34,21,23,24
56,124,66,38,33,22,22,22
55,118,61,34,29,17,21,21
58,118,61,34,28,18,21,18
47,113,61,37,30,19,20,18
44,111,60,37,29,20,19,19
44,109,62,35,29,19,21,19
44,97,59,40,33,21,20,21
43,107,71,43,34,22,20,21
55,108,72,41,39,21,20,21
55,107,72,43,35,22,21,20
56,106,75,44,37,22,21,21
59,102,70,40,34,21,22,21
57,89,58,37,35,22,21,23
41,76,52,35,34,21,22,23
40,84,56,38,37,19,20,22
47,101,53,43,35,19,19,23
48,103,51,41,37,21,19,23
50,106,51,42,37,24,21,21
57,110,58,42,44,24,21,22
57,105,68,40,48,27,24,22
48,83,63,35,49,26,26,21
44,79,67,36,48,26,27,20
44,76,64,32,48,21,29,22
43,108,75,38,43,25,28,22
48,112,63,36,39,21,26,22
46,112,63,34,41,21,22,23
46,114,61,36,42,19,19,25
45,135,75,38,42,22,14,26
38,107,58,35,37,19,13,24
30,101,60,34,34,20,13,24
32,112,73,38,30,21,14,24
34,115,73,37,26,22,15,22
38,99,61,38,24,21,18,23
38,100,62,36,23,21,20,23
41,105,63,37,23,23,21,25
39,91,47,32,22,25,20,23
41,93,48,30,29,24,20,24
37,89,49,29,30,27,20,21
44,90,46,28,29,25,19,23
42,86,46,27,32,26,20,22
41,87,51,29,33,23,21,22
40,95,60,41,35,25,20,21
52,112,59,40,37,22,20,23
52,111,70,44,41,22,22,24
54,117,73,45,39,21,22,24
56,116,69,46,40,23,23,24
54,103,62,40,40,20,23,24
44,78,61,40,39,22,23,23
44,89,56,38,38,21,21,19
45,87,53,40,39,22,21,20
52,93,56,41,39,22,20,21
52,95,54,36,34,25,23,20
51,97,56,37,35,27,26,20
44,88,52,34,44,27,24,21
40,82,50,33,48,28,24,23
36,94,54,30,47,28,25,25
44,119,72,35,48,27,20,28
42,117,71,35,46,24,17,29
44,132,75,36,36,22,19,29
45,131,72,33,28,21,19,27
40,129,72,35,30,20,20,24
37,111,54,35,37,18,21,21
41,115,56,36,42,20,22,20
40,98,50,34,41,21,22,19
40,101,56,36,44,21,22,19
44,103,55,37,43,20,22,20
42,105,56,34,36,20,22,20
53,110,52,32,32,22,22,20
52,107,55,31,31,22,21,20
55,106,51,28,27,21,20,21
53,94,48,25,27,20,19,24
50,78,43,24,26,20,18,24
44,72,45,25,27,19,20,24
46,75,47,28,28,19,20,25
45,77,50,29,31,22,20,24
46,82,52,29,33,22,21,21
50,104,61,32,33,22,21,23
48,102,62,32,31,21,21,23
46,101,57,32,30,21,21,22
45,97,57,31,30,20,21,24
48,124,80,38,31,21,22,23
45,110,76,36,30,20,22,22
41,107,75,37,31,21,18,20
42,119,82,37,35,22,19,27
49,126,84,38,38,22,20,28
50,113,67,30,36,20,19,29
48,115,66,29,44,22,19,29
49,117,67,36,45,21,21,29
47,108,56,37,45,23,21,25
42,109,62,37,42,22,20,21
32,87,57,39,42,23,20,21
33,87,55,39,37,24,18,21
33,89,60,34,38,24,18,24
34,87,66,36,32,22,21,22
33,72,55,41,40,23,22,22
32,76,56,41,43,23,22,23
32,88,62,50,46,26,23,24
32,82,59,51,45,27,23,21
32,87,54,51,48,27,20,22
35,89,53,50,47,28,18,22
35,86,51,48,46,30,18,21
33,90,59,39,41,24,17,19
35,104,58,40,47,25,19,20
34,97,57,37,47,25,19,18
30,95,56,31,42,24,19,21
29,95,55,29,38,22,21,21
30,73,38,34,40,23,20,23
27,68,40,34,33,21,19,23
30,73,40,32,35,21,18,24
32,71,46,34,35,21,19,21
35,85,55,36,39,21,19,25
34,86,53,31,39,21,19,24
33,76,51,29,37,23,20,24
34,84,52,31,42,24,19,22
36,87,52,30,42,24,18,23
36,98,67,34,41,23,19,20
42,112,69,37,46,24,19,20
42,115,68,35,45,24,18,20
43,111,72,39,41,23,19,24
42,113,71,41,42,22,22,24
41,97,49,41,49,24,21,24
36,84,49,42,44,24,21,24
42,83,51,41,46,22,21,23
44,103,60,39,43,23,22,23
43,103,60,36,45,24,19,22
43,103,61,37,38,26,18,22
44,111,71,39,39,30,20,21
37,107,68,41,38,32,21,21
35,88,56,39,38,33,21,20
36,92,57,41,37,33,22,20
35,91,56,37,39,31,22,25
36,79,43,36,35,29,22,31
36,80,43,36,35,28,22,32
35,93,61,37,37,28,20,33
37,100,65,34,34,25,21,36
37,95,65,36,33,26,22,37
34,95,65,32,33,25,21,36
34,96,67,32,33,25,21,39
34,93,60,34,34,26,21,43
26,85,56,35,33,26,21,106
27,86,56,32,31,26,22,105
34,88,56,34,31,26,23,106
36,85,53,36,37,26,22,107
38,81,54,36,42,27,23,107
39,75,50,35,43,27,22,43
39,75,50,38,44,28,20,42
32,84,60,39,47,29,20,37
29,88,63,36,43,31,21,32
31,104,60,35,35,28,18,25
40,106,61,35,36,30,19,32
40,105,62,32,37,28,18,32
43,99,58,29,41,27,17,34
48,113,65,33,41,24,17,33
51,102,63,36,46,24,21,33
45,99,61,37,45,21,22,27
47,102,61,40,44,22,24,26
45,96,54,43,46,23,24,26
45,103,48,43,45,24,23,28
37,94,57,65,118,35,22,29
37,93,58,82,126,41,22,28
37,90,58,89,130,43,22,28
36,90,58,91,136,44,22,26
27,58,51,97,148,48,23,24
34,64,43,86,111,44,24,22
35,63,42,82,115,41,24,22
34,64,42,92,128,44,23,21
35,74,45,92,123,43,23,22
37,80,49,88,111,40,23,22
40,82,43,85,101,37,19,22
38,82,42,74,85,36,19,26
39,83,43,50,62,33,18,33
44,83,53,48,57,35,19,34
42,78,51,43,52,34,19,32
37,70,51,44,50,35,23,32
35,78,56,44,54,35,22,29
44,101,59,41,47,31,23,35
40,101,50,38,51,26,21,36
42,105,49,38,56,27,22,41
41,106,49,39,54,25,19,41
43,104,47,40,51,24,19,43
40,82,47,38,55,24,20,33
40,84,46,37,51,25,20,32
47,82,46,35,50,24,19,30
47,72,44,36,60,24,20,29
47,67,43,42,64,25,20,28
43,86,53,47,65,25,20,29
44,82,55,48,66,28,20,27
41,83,57,47,63,29,19,22
41,83,59,49,53,29,19,23
40,92,60,43,48,28,19,21
40,96,61,42,51,29,18,22
41,97,59,43,56,28,19,22
35,96,60,44,56,26,20,24
36,108,66,40,58,25,20,22
38,99,62,41,59,24,20,22
37,83,56,44,53,23,20,21
33,79,54,44,55,25,22,24
33,77,50,45,60,27,21,28
29,60,43,45,61,26,21,30
29,71,48,44,65,29,21,30
31,72,41,38,66,30,21,30
31,72,44,36,58,27,20,28
30,94,53,35,54,28,19,23
30,95,49,35,56,30,20,22
31,88,48,37,65,30,21,21
35,93,50,36,63,29,23,24
35,107,54,36,63,28,22,27
36,95,53,36,62,26,22,27
37,99,56,33,60,27,21,26
35,101,54,32,43,24,20,27
31,91,52,31,47,24,20,26
31,79,48,33,48,24,21,22
38,80,43,33,51,25,22,22
39,76,49,37,48,22,21,23
38,85,49,40,63,24,21,23
37,86,51,44,65,25,21,22
43,88,50,43,62,27,20,23
37,77,48,43,60,26,19,22
37,75,50,45,59,28,19,20
40,76,55,44,44,27,19,23
40,72,52,41,39,28,17,24
36,71,53,40,43,26,18,29
37,72,50,40,42,26,19,31
38,81,50,37,42,26,20,31
38,80,51,34,40,24,19,28
41,83,55,34,40,23,20,26
39,82,60,33,35,22,20,18
41,84,60,33,38,23,19,16
42,90,57,39,48,27,20,17
44,88,52,39,50,26,20,20
41,89,52,41,53,25,20,22
40,89,48,43,54,26,20,23
38,92,51,42,56,28,21,22
34,80,52,36,50,24,19,22
35,84,54,37,49,25,20,20
36,86,55,40,53,25,20,19
40,88,56,46,63,26,20,21
43,95,63,49,62,25,21,22
43,98,62,47,60,25,22,21
48,97,62,53,63,27,21,24
47,90,57,46,56,26,21,24
49,136,84,47,51,25,21,23
48,140,84,48,56,25,19,21
48,138,82,51,61,28,18,22
39,135,82,45,56,25,19,20
38,139,85,47,57,26,19,20
30,91,58,42,55,25,18,20
34,88,55,38,47,22,21,24
34,87,53,35,49,21,23,23
35,95,60,40,50,23,22,23
39,95,58,39,48,23,22,23
40,100,57,37,46,25,23,22
41,88,50,35,49,27,20,28
42,95,54,33,41,26,20,32
41,83,49,29,42,25,20,31
39,86,46,29,44,26,20,31
38,80,43,28,43,23,21,31
33,82,45,29,44,26,23,24
31,72,42,30,44,26,22,21
34,73,33,29,44,28,23,20
35,62,35,30,47,28,22,22
38,77,46,35,49,29,21,21
37,92,54,40,45,25,20,20
37,92,54,40,45,25,20,20
44,96,56,41,42,24,19,21
44,107,56,40,34,22,20,20
43,114,59,36,28,20,20,20
44,108,53,34,33,23,21,22
46,111,57,36,38,23,22,25
41,119,63,36,40,23,23,24
42,114,61,35,40,24,24,25
42,97,53,35,47,23,23,26
43,108,66,36,45,26,23,34
43,108,66,34,41,25,22,38
38,110,61,32,41,27,21,39
41,125,70,34,42,28,20,38
43,130,73,38,35,30,21,38
39,113,58,34,34,27,20,29
39,111,57,34,36,27,19,20
39,95,57,35,34,27,19,18
39,75,51,34,34,25,18,21
38,63,48,28,44,23,20,20
40,65,46,33,44,24,19,22
38,64,46,34,44,24,21,22
41,74,46,33,46,22,21,23
35,76,45,35,52,23,22,21
34,80,44,35,43,25,22,21
35,82,47,31,42,24,22,21
34,94,52,32,42,24,25,22
35,96,49,37,41,25,25,21
35,89,46,35,31,25,26,21
35,87,46,32,36,25,25,22
34,91,49,34,42,25,26,22
38,85,44,37,46,25,21,22
39,91,51,37,47,24,22,20
39,91,50,40,52,24,20,20
38,91,52,41,49,23,20,19
37,87,53,43,46,25,20,19
38,92,57,42,43,30,19,19
33,77,51,39,45,32,18,21
40,112,66,41,39,32,18,22
40,111,63,39,37,31,18,22
43,136,64,37,36,30,18,22
41,127,58,33,38,25,19,23
50,166,86,46,37,26,20,25
44,143,76,42,37,25,20,24
48,150,80,43,41,25,19,27
45,127,75,41,41,25,18,27
44,131,82,44,37,25,18,25
35,93,62,31,37,23,16,22
37,99,65,34,38,24,17,23
34,91,61,36,32,25,17,21
36,101,65,43,36,25,20,20
35,96,64,41,37,25,20,20
42,90,57,42,34,25,22,21
42,88,53,40,37,24,22,20
42,87,52,36,44,24,22,20
39,77,49,31,38,21,21,21
43,89,48,32,41,22,21,21
36,79,48,31,43,21,21,20
38,85,51,35,47,23,21,21
39,105,60,37,42,21,20,20
48,110,58,36,45,22,22,21
45,100,54,34,42,21,21,20
44,97,52,31,40,22,20,21
43,89,49,30,34,20,20,19
44,70,38,29,36,20,20,20
35,70,44,31,38,19,18,25
35,81,44,32,41,19,18,25
35,81,43,36,43,19,17,25
37,82,46,37,44,20,19,26
38,86,58,37,46,23,19,28
38,79,55,34,45,24,19,22
40,75,55,36,45,25,20,24
40,80,58,34,51,23,20,26
39,90,62,33,51,23,18,24
36,85,50,32,48,22,17,22
39,96,56,34,57,22,18,23
39,93,54,34,56,21,17,22
40,95,60,31,50,22,19,20
38,91,57,31,50,22,19,21
42,102,68,38,51,22,20,22
42,106,69,38,39,21,20,21
45,122,74,40,39,23,21,21
48,133,72,41,37,22,19,21
48,136,72,41,38,23,21,22
45,128,65,36,43,25,19,22
42,124,61,35,45,25,18,24
49,114,64,36,44,25,17,22
45,101,61,36,45,26,17,22
44,91,57,35,45,27,17,22
45,93,59,34,38,26,18,21
48,107,68,34,38,25,20,25
40,101,61,27,39,25,22,28
44,111,65,27,40,26,23,28
45,125,70,27,39,24,22,26
43,131,76,32,43,25,20,29
41,122,73,36,46,26,20,28
38,122,71,37,44,26,18,25
39,112,66,37,47,24,19,27
38,103,65,38,47,23,20,29
39,95,55,35,43,23,20,27
39,84,47,32,43,24,19,24
44,94,50,32,44,24,20,25
40,95,52,31,43,24,19,25
40,92,49,33,46,23,17,23
40,94,52,33,47,24,18,22
38,99,53,31,44,23,20,20
33,91,54,32,44,24,20,23
35,88,52,32,40,23,19,20
39,98,51,27,34,23,22,21
38,91,46,26,34,22,21,23
38,94,52,34,45,22,19,25
41,94,51,35,51,23,18,24
37,97,54,35,50,23,20,24
36,90,57,38,57,24,30,25
39,100,63,38,61,24,32,24
39,91,56,33,54,24,33,28
38,93,57,30,53,24,35,27
39,96,59,33,59,26,33,27
38,93,53,30,52,25,23,27
37,86,48,30,47,25,21,29
38,91,53,30,47,25,19,24
39,90,49,31,45,24,18,25
40,78,42,29,49,23,18,25
37,76,46,32,50,22,17,23
43,81,47,30,49,22,17,23
42,80,42,30,46,22,22,22
43,86,44,31,42,22,20,22
44,100,53,32,30,21,21,20
45,98,51,30,31,23,22,22
38,91,51,28,32,23,21,19
36,86,54,29,40,22,17,23
32,84,53,30,45,24,17,35
29,76,49,26,43,24,16,41
32,78,52,31,52,28,16,42
32,77,49,31,52,26,17,42
33,85,46,29,46,26,19,40
34,85,44,27,41,23,20,30
35,77,42,36,47,24,21,20
32,92,45,34,37,18,21,17
35,93,48,36,39,21,21,19
35,82,47,37,43,22,21,20
34,81,48,36,43,23,21,21
34,94,57,32,39,23,21,23
35,77,52,30,45,24,21,23
36,84,53,31,45,22,20,25
36,90,54,33,43,22,21,23
38,93,59,38,43,24,21,23
39,90,50,37,41,24,20,21
42,91,49,39,35,22,20,22
44,83,48,37,37,23,20,20
43,89,55,36,35,22,19,22
43,85,49,32,33,21,19,22
42,88,52,33,36,22,19,23
40,89,54,30,35,25,19,23
38,93,54,31,44,28,18,22
39,85,46,31,48,29,17,20
39,83,46,31,48,29,17,20
38,81,44,29,46,28,22,20
36,77,41,30,46,26,25,18
37,73,40,32,36,23,27,18
35,68,45,32,34,21,27,18
32,76,50,33,36,21,27,19
33,70,50,39,39,21,24,20
32,67,51,39,40,24,21,22
34,79,56,40,40,26,19,23
34,84,61,42,37,28,19,23
34,80,58,42,37,27,20,22
37,84,56,40,40,30,22,21
38,85,56,40,43,31,22,20
34,82,53,40,42,30,21,18
36,87,52,36,42,29,21,18
37,92,56,39,46,29,20,18
38,90,56,34,43,27,21,19
41,96,57,33,43,25,20,18
39,95,54,31,45,24,20,19
40,94,45,32,46,23,20,20
42,83,37,28,42,24,20,20
39,81,36,29,40,23,17,21
42,96,50,32,39,22,20,23
44,93,50,31,37,22,20,22
44,87,51,32,38,23,22,21
49,89,53,30,40,23,23,22
47,92,52,31,41,24,24,20
45,94,48,30,41,25,22,21
42,92,48,31,40,28,22,21
40,90,45,32,40,27,21,22
34,89,46,32,37,26,21,23
39,100,49,31,37,25,19,22
38,76,44,30,40,22,20,21
41,78,45,28,42,21,21,22
41,77,47,29,41,24,19,22
40,81,53,34,40,26,19,21
38,60,51,35,51,27,20,21
39,60,49,33,52,29,19,22
38,59,51,34,51,29,17,20
41,63,51,32,50,26,18,20
42,61,47,27,55,26,16,21
41,74,55,31,50,26,17,20
39,82,56,32,44,26,17,20
38,82,55,34,48,26,20,20
36,82,54,34,52,25,22,21
33,80,51,36,48,24,35,18
33,79,45,32,43,24,40,22
38,78,40,32,45,21,41,21
46,87,46,36,41,22,40,24
46,89,48,38,39,25,39,23
48,92,56,39,39,26,28,25
47,88,52,39,41,26,20,23
42,93,55,40,40,28,16,24
34,86,55,39,46,28,16,23
30,82,55,39,44,28,15,21
27,86,50,36,45,25,14,20
26,89,52,39,42,24,14,17
27,84,52,39,44,24,17,17
29,84,45,36,36,23,21,18
28,81,43,33,39,21,21,21
34,92,50,36,38,24,21,22
34,87,49,36,41,24,20,23
38,80,45,37,40,25,20,23
37,76,44,36,44,25,16,22
41,96,54,37,47,24,17,20
40,80,48,36,47,23,18,21
40,86,50,34,45,24,19,19
37,101,58,32,41,23,20,18
42,113,66,37,44,28,21,21
43,109,61,37,37,30,20,21
40,110,62,36,38,29,22,21
41,109,63,40,38,29,21,23
46,124,74,49,43,29,20,22
41,121,74,45,37,24,21,22
38,118,77,46,42,23,20,22
45,131,81,48,43,23,19,22
47,134,78,45,44,23,19,21
48,117,65,33,42,22,19,22
46,116,63,35,44,24,17,22
46,113,57,32,40,24,19,23
40,98,55,29,44,24,19,23
39,94,55,27,46,23,19,23
34,86,55,30,45,23,21,23
36,86,49,30,43,21,22,21
37,86,52,32,43,21,23,19
39,87,45,33,47,24,24,19
39,88,44,32,46,25,25,18
39,88,41,31,46,25,25,17
39,81,42,29,48,27,25,18
38,89,45,33,47,27,22,18
38,91,51,36,38,25,22,17
38,98,59,36,37,24,21,19
38,104,62,38,36,24,20,20
41,108,61,38,38,24,20,19
39,98,55,34,39,24,19,20
37,112,61,32,40,24,18,21
31,103,56,32,41,25,18,18
30,96,51,30,42,26,19,18
30,94,53,32,40,23,19,19
31,93,55,33,40,23,19,19
30,73,50,31,41,22,19,19
34,85,52,34,42,21,19,21
33,78,50,32,41,21,17,23
36,101,58,35,40,24,18,22
38,107,58,36,44,24,19,21
39,107,53,37,43,25,20,19
35,103,58,37,40,26,21,20
36,103,59,38,43,24,21,19
32,101,72,36,43,24,20,18
32,113,82,39,39,23,22,18
32,112,85,41,42,23,23,18
34,106,79,39,42,22,23,17
37,121,84,41,42,23,24,18
39,112,74,43,40,22,24,19
37,95,60,38,43,23,22,19
36,92,56,37,42,25,18,20
39,93,57,36,41,24,17,21
41,78,53,35,40,27,16,20
40,76,47,28,45,27,37,21
42,79,48,30,42,27,46,21
43,86,54,27,41,28,50,20
37,98,60,27,43,28,52,19
35,98,57,28,47,26,65,19
32,90,55,27,43,25,75,17
32,91,55,28,46,26,73,18
28,89,51,34,45,25,71,19
33,74,42,34,46,24,69,19
37,84,49,36,49,25,57,19
40,89,59,41,51,26,26,24
40,85,61,41,49,25,17,23
42,84,60,37,50,25,17,23
41,88,62,38,52,26,17,24
43,77,56,37,46,26,20,25
39,67,44,31,44,27,28,22
43,82,47,34,45,26,31,23
46,84,49,32,45,25,33,22
44,81,53,32,39,24,34,21
41,85,52,33,38,24,32,21
44,91,55,33,40,23,26,21
42,83,52,32,42,26,23,22
38,77,50,32,41,26,20,21
42,80,43,32,42,26,20,22
40,77,52,34,44,25,21,21
39,79,54,36,39,24,21,22
41,87,58,38,39,23,19,21
40,88,57,37,38,22,20,22
43,95,58,36,39,24,20,21
42,92,51,32,34,26,21,21
38,88,48,30,38,27,21,20
38,80,41,26,37,25,22,19
40,85,43,33,43,26,21,20
37,82,47,33,40,25,22,21
37,93,54,34,46,23,20,21
39,96,52,34,45,25,22,22
39,98,54,33,46,25,22,24
40,101,62,34,42,23,22,22
36,100,66,43,46,25,22,20
37,89,60,42,43,25,22,22
44,91,65,44,43,23,18,21
41,105,69,45,43,23,16,21
41,98,62,43,43,24,16,22
44,110,63,34,40,24,16,24
47,119,66,35,38,25,16,23
39,118,66,30,35,25,17,22
40,103,59,30,33,26,18,20
37,99,58,26,31,25,19,19
40,92,53,30,42,24,21,20
39,87,56,32,42,24,21,20
38,80,48,31,41,22,22,19
39,85,48,33,45,22,20,22
43,103,53,34,47,22,20,23
38,103,51,31,37,22,18,20
37,105,45,30,39,22,18,23
39,106,46,33,49,22,17,23
42,114,54,34,45,21,19,22
38,107,55,34,42,21,18,21
36,93,52,34,48,21,18,21
34,89,57,36,46,21,18,18
46,100,58,33,37,22,18,19
44,88,54,36,37,21,17,19
45,78,48,33,37,22,17,20
48,84,49,38,43,26,18,21
51,104,58,38,46,25,18,24
41,97,61,40,47,25,20,23
39,95,58,36,46,25,20,22
46,119,67,38,47,25,22,23
45,118,67,34,37,22,20,22
43,100,54,32,33,23,20,20
44,99,53,29,30,23,20,20
46,103,58,32,32,24,18,20
38,83,49,31,31,24,19,20
36,80,49,29,32,23,20,19
37,79,52,32,35,26,20,19
41,86,55,31,36,25,19,20
38,80,48,29,44,28,20,20
41,77,49,31,49,28,19,18
42,77,49,32,50,30,18,20
42,78,47,28,49,29,20,21
41,75,48,33,51,30,20,21
44,80,50,32,46,26,21,21
40,82,52,31,42,26,20,21
40,83,57,39,38,25,21,21
40,88,61,39,39,21,21,20
35,90,58,36,36,24,21,20
32,89,68,40,37,25,20,21
33,84,66,40,36,26,20,21
32,89,63,34,38,24,18,22
33,100,69,34,39,26,18,24
39,91,68,35,40,25,19,24
38,89,58,33,41,26,19,24
38,90,57,31,41,25,19,24
45,87,59,31,41,27,20,23
42,72,43,34,39,25,19,20
39,85,46,34,40,22,19,19
40,88,47,34,35,20,19,18
39,99,55,34,33,22,21,19
32,95,51,33,31,21,20,19
31,92,55,34,37,22,20,19
34,91,54,33,36,24,19,18
35,92,58,33,36,26,19,19
37,84,51,37,41,26,18,18
37,93,53,37,43,25,18,18
38,96,50,34,39,25,18,30
39,98,55,33,39,23,18,31
40,98,50,32,40,23,18,31
41,93,50,29,37,20,17,35
40,83,47,30,34,21,16,35
44,78,48,31,34,21,19,28
43,71,43,33,32,23,19,28
42,75,49,35,38,25,19,28
43,77,49,31,38,26,21,25
43,82,54,33,43,28,21,36
45,96,55,33,42,30,18,44
44,111,57,30,43,30,18,44
43,105,52,29,45,28,17,58
39,104,50,30,44,27,17,62
38,100,48,31,43,27,19,68
43,122,57,33,45,24,19,74
40,116,55,33,46,24,19,75
42,121,55,34,40,23,20,68
46,122,57,38,47,27,20,68
52,132,61,39,53,27,18,56
44,99,50,38,52,28,20,39
48,96,52,38,52,28,19,38
53,123,66,41,51,27,19,34
56,124,65,38,50,24,21,24
52,116,61,35,43,26,23,24
52,119,62,34,43,23,24,23
48,109,56,35,47,25,24,32
42,71,39,37,54,27,23,32
32,67,40,37,48,26,22,32
33,75,48,46,62,25,23,32
35,77,46,48,71,27,21,33
34,84,50,49,72,27,21,38
35,101,51,46,77,25,21,39
39,110,54,51,83,26,21,47
36,106,47,43,74,25,19,48
36,107,48,41,65,24,19,48
36,103,50,40,65,23,19,39
38,94,51,39,56,23,22,38
37,82,49,38,52,22,22,27
36,79,53,40,47,22,21,27
33,77,54,38,48,21,23,25
34,102,63,39,44,21,22,26
30,90,58,36,43,21,20,28
30,93,57,28,40,21,19,28
33,95,54,26,45,19,18,27
34,92,53,27,44,21,16,28
31,68,42,27,47,23,17,24
34,76,44,28,45,24,17,18
34,78,48,34,48,27,16,19
34,94,57,36,44,27,18,22
37,95,59,40,45,26,19,29
39,94,54,41,52,23,19,30
38,96,59,44,57,26,19,30
40,92,57,43,58,23,19,30
41,71,45,43,60,28,18,29
40,73,44,41,63,28,18,20
40,75,51,37,53,29,19,23
41,75,57,41,51,27,19,22
41,84,57,39,46,26,20,22
42,100,64,45,51,22,20,22
41,105,73,49,51,24,20,23
39,99,68,49,49,24,19,21
40,103,61,42,46,22,20,22
39,108,62,43,47,23,21,24
37,101,59,34,45,25,20,24
38,98,60,32,42,24,19,27
41,97,61,33,44,25,19,27
52,102,61,44,46,26,18,28
53,98,63,42,46,26,16,26
56,107,63,44,38,24,17,25
55,110,56,42,36,25,18,24
57,121,60,44,42,26,19,25
45,109,59,34,39,27,20,23
45,105,58,36,41,26,21,23
41,90,56,34,43,27,20,23
40,80,52,35,44,24,20,22
34,70,53,33,41,24,20,22
37,79,52,35,40,22,19,23
37,86,53,34,40,27,18,24
39,88,55,36,41,26,20,24
43,87,54,32,40,26,20,24
44,85,49,31,47,29,18,27
46,73,47,29,47,30,20,29
41,56,46,29,44,26,21,28
46,55,45,27,41,26,20,28
43,65,50,29,44,25,20,27
49,97,60,33,34,21,20,24
52,110,60,35,37,20,18,22
53,111,56,32,38,21,19,24
48,119,58,32,41,22,18,24
50,117,53,30,37,25,20,24
42,91,41,25,38,26,20,25
37,79,40,22,36,27,21,25
38,80,46,27,36,26,19,26
36,65,41,28,37,29,19,26
36,65,45,30,37,28,19,26
41,83,52,30,36,28,18,28
38,84,54,32,36,28,18,35
40,81,50,30,38,30,19,33
44,95,56,28,34,26,19,33
41,90,51,29,34,27,19,36
42,88,53,30,33,26,21,34
45,87,52,28,30,26,22,26
44,90,52,31,35,25,22,26
38,76,45,32,37,27,24,25
41,80,47,29,38,24,22,21
37,107,64,34,39,25,21,19
37,105,61,34,40,26,19,20
34,103,62,34,36,25,19,19
38,115,66,33,33,23,17,20
37,118,67,34,32,22,17,20
34,82,44,31,35,22,16,20
36,82,44,32,37,22,17,21
36,88,46,30,43,24,18,22
33,74,42,33,46,25,18,21
30,68,38,39,58,25,19,22
35,80,42,38,59,25,20,23
32,94,55,39,58,26,21,60
33,96,53,41,53,25,23,64
39,96,53,42,58,25,22,66
42,100,60,36,46,24,22,67
38,97,59,36,41,24,22,67
39,90,52,35,41,22,20,38
39,94,61,37,46,21,17,34
33,93,60,36,38,23,19,31
32,95,59,39,39,26,15,33
32,93,56,39,41,26,18,32
33,93,56,40,38,25,17,30
32,79,45,37,33,26,20,28
33,82,50,34,33,25,20,29
30,78,47,31,30,23,23,29
29,70,45,34,44,25,23,29
30,93,55,33,52,24,23,35
31,107,62,32,50,25,20,33
29,105,58,34,53,26,22,32
32,106,61,37,57,25,19,32
34,115,62,35,47,23,18,39
36,104,60,33,49,24,18,32
37,95,54,35,48,24,20,32
42,105,58,33,46,24,20,31
40,102,58,33,42,25,21,33
41,102,60,32,46,25,22,28
37,91,51,34,37,27,22,30
38,89,50,33,37,26,20,31
34,81,52,32,36,24,18,30
35,80,48,32,41,23,18,22
34,72,46,31,37,24,18,18
35,78,52,35,38,20,19,18
33,89,60,35,38,19,21,26
34,87,62,36,39,22,21,30
37,90,64,34,35,23,22,32
46,107,67,37,44,27,23,35
50,109,62,33,46,30,24,37
51,119,63,32,49,29,21,32
51,127,61,34,49,29,21,30
50,123,58,35,51,28,19,31
42,117,60,33,46,24,19,29
39,110,60,31,41,22,19,26
41,96,54,31,37,24,19,29
40,87,50,27,37,22,20,30
39,92,56,29,35,23,20,29
38,94,54,33,37,22,20,32
39,103,56,34,37,23,18,31
38,103,56,37,40,21,20,33
40,104,60,37,40,22,20,36
36,102,57,36,43,21,19,36
37,95,55,36,42,23,19,32
35,91,55,42,45,23,20,34
33,92,54,39,45,24,19,29
30,87,49,40,45,24,17,25
32,93,50,40,47,24,17,26
35,110,54,37,47,22,20,29
35,106,52,31,51,25,19,27
33,99,53,34,48,27,20,28
36,99,50,33,49,27,21,27
34,106,50,30,44,27,21,26
31,81,43,32,40,27,21,34
30,86,46,32,31,25,20,35
28,88,46,33,37,27,19,35
31,90,49,34,46,28,18,38
35,75,47,36,45,28,18,38
34,91,53,35,49,30,16,27
35,86,51,36,52,29,18,33
38,94,53,35,56,28,20,34
34,101,61,34,47,27,20,32
32,107,60,33,48,28,20,33
35,101,60,37,59,27,20,32
38,106,61,39,61,31,20,29
39,96,56,36,57,28,18,25
41,102,57,39,57,30,17,21
45,104,63,41,57,29,18,21
44,99,58,36,44,30,18,22
42,93,55,33,38,25,17,19
43,102,62,33,44,27,18,20
48,97,61,31,42,26,18,23
45,87,54,30,46,27,18,22
48,87,56,33,52,25,17,24
48,91,60,33,56,27,20,26
51,100,60,40,51,30,21,26
46,93,52,40,52,31,22,23
44,101,55,41,51,31,23,23
42,115,63,39,46,33,24,19
41,113,62,41,40,30,22,18
33,97,57,37,39,27,22,20
32,103,68,38,37,28,22,20
31,104,72,36,41,26,21,19
31,91,65,34,37,24,20,19
34,90,63,34,36,27,21,18
32,89,62,32,37,26,23,20
34,87,52,33,50,27,26,42
33,72,45,33,55,28,26,46
34,77,52,36,60,29,28,48
32,79,51,35,61,28,31,48
33,92,64,37,63,27,33,46
36,94,66,34,55,25,56,33
36,101,70,36,53,27,68,28
36,98,66,33,47,26,67,27
35,106,67,33,44,24,65,28
34,95,57,30,41,27,63,29
37,102,59,31,50,28,43,27
36,95,50,28,46,23,18,30
34,90,47,29,49,23,18,37
35,78,47,29,51,24,16,41
35,73,45,30,50,23,16,42
29,46,32,31,50,24,16,39
32,56,37,29,51,26,16,37
34,82,56,32,52,26,17,29
39,84,56,31,51,26,17,20
40,85,58,31,57,26,19,17
41,99,61,30,50,28,18,20
40,105,63,33,50,25,20,21
39,89,49,31,49,25,20,24
34,88,45,33,51,29,21,24
34,92,48,36,49,28,19,24
32,82,50,34,49,24,19,22
34,72,45,32,44,26,18,20
33,76,46,31,42,27,17,17
35,83,58,35,44,24,17,21
38,86,54,31,43,24,16,21
38,82,49,30,40,24,15,22
38,80,48,31,40,23,16,22
41,86,49,29,39,21,18,23
41,93,43,27,36,19,20,20
39,89,42,29,38,22,20,25
40,90,44,31,39,21,20,27
43,95,45,32,44,23,19,42
39,94,47,32,47,25,18,184
39,82,40,30,47,27,17,304
39,77,40,31,43,24,16,325
41,87,47,33,44,26,20,348
35,89,52,32,43,24,20,352
39,112,67,35,45,25,21,305
37,116,70,34,45,26,22,189
39,118,71,32,47,26,22,149
39,109,65,31,45,26,21,81
42,111,69,31,48,26,22,57
38,91,59,31,46,25,20,42
41,89,60,34,48,26,21,31
38,86,60,35,50,27,22,31
35,102,68,37,50,31,20,33
32,106,66,38,46,31,22,27
34,100,63,37,42,31,22,25
30,95,59,38,47,29,21,27
35,103,59,35,45,30,20,36
35,101,59,32,44,27,19,32
36,91,49,32,44,26,19,32
36,90,47,34,56,28,19,32
43,98,50,31,51,29,18,30
42,108,53,33,49,28,18,26
41,97,47,34,49,29,19,26
42,96,48,32,48,29,19,26
43,97,51,29,36,28,18,27
35,90,52,35,45,31,19,29
33,87,55,33,44,29,19,23
39,88,54,35,50,29,18,23
37,89,54,35,57,29,18,23
37,93,53,36,56,28,19,20
39,94,52,28,48,27,18,18
35,84,49,31,51,27,17,17
27,85,47,29,50,25,18,17
31,83,48,30,44,26,19,17
31,76,45,31,46,27,20,18
32,78,44,32,46,22,20,18
36,73,40,31,43,24,21,21
39,72,45,30,40,24,20,21
37,73,47,30,40,24,18,22
36,74,49,28,36,23,19,25
40,68,53,29,35,22,22,27
40,68,52,32,38,23,22,26
41,75,48,32,42,24,23,27
42,94,52,39,49,25,23,27
45,90,55,41,52,24,22,23
41,102,57,43,55,28,20,22
41,110,66,41,58,29,20,23
40,114,72,41,55,28,19,23
42,112,70,38,50,28,20,28
42,114,64,36,50,29,20,30
41,104,59,31,44,26,19,29
41,95,50,30,41,24,18,28
38,82,41,30,41,25,19,27
36,81,49,38,47,28,21,25
34,85,59,43,51,31,24,24
34,87,61,44,56,31,25,23
34,85,61,45,55,31,24,23
34,90,65,50,60,35,24,23
33,73,58,44,55,34,22,23
29,67,54,40,55,30,19,22
31,66,54,40,53,33,18,27
27,63,51,41,54,32,19,28
26,54,45,36,47,31,20,30
41,70,47,37,54,31,20,29
44,82,51,41,55,32,20,29
45,89,56,39,56,30,21,25
45,88,56,37,57,30,21,23
52,106,66,38,61,30,19,22
40,95,65,35,55,26,20,19
40,98,61,32,47,26,19,19
37,90,54,32,43,27,16,20
44,103,59,34,38,27,16,25
38,106,57,33,30,27,19,25
39,104,54,34,33,29,20,31
36,91,51,31,42,28,21,33
39,115,65,32,42,26,23,33
36,116,68,33,44,27,22,30
38,119,67,34,44,25,20,29
38,123,68,34,46,24,20,22
42,123,69,35,42,27,21,22
44,110,66,37,44,29,22,27
40,99,59,36,43,29,24,26
38,70,53,34,43,34,43,28
38,81,55,32,36,36,46,32
38,82,54,32,32,40,53,34
35,92,50,29,28,41,58,31
44,104,53,28,28,42,59,33
43,112,55,31,28,43,51,31
48,133,56,30,30,43,50,29
50,167,69,34,38,38,43,30
48,160,66,35,39,40,38,29
46,164,69,35,38,43,40,27
48,177,82,38,38,40,40,29
46,156,81,40,39,39,40,105
43,125,69,42,35,40,42,141
45,142,78,40,34,38,48,149
60,129,74,44,37,32,48,151
75,140,61,40,36,40,53,151
75,142,56,37,35,43,54,114
81,141,63,32,31,45,56,65
87,131,49,34,32,46,56,47
82,143,51,33,29,46,58,40
70,129,57,34,33,45,55,38
68,129,59,34,34,45,57,40
70,132,56,37,33,45,57,45
64,134,58,36,32,44,51,69
67,127,64,33,34,45,50,74
68,149,78,35,31,42,49,72
70,156,80,36,33,42,48,72
60,153,83,33,33,45,48,69
58,149,88,34,33,45,47,42
45,145,84,33,31,42,44,34
39,104,65,30,30,40,44,35
43,112,68,29,28,38,38,27
53,158,83,36,31,33,31,26
53,157,78,33,30,34,32,27
54,159,81,35,30,36,31,30
51,158,78,34,30,35,28,29
46,154,79,35,30,47,30,35
40,114,58,28,28,48,34,35
39,108,56,31,30,48,38,34
48,113,51,31,28,50,42,37
54,117,55,31,29,53,47,43
55,108,49,31,29,47,50,73
56,93,48,33,29,45,50,101
60,100,54,31,29,46,51,122
60,107,59,29,31,43,48,138
61,110,60,31,29,37,44,151
59,111,63,32,28,34,40,149
54,110,62,31,27,34,38,143
51,103,57,31,29,31,30,127
44,116,69,35,30,30,28,108
42,128,77,41,30,31,27,87
47,129,75,43,34,31,24,68
49,139,81,43,34,33,35,39
56,147,83,42,31,34,36,34
61,124,68,39,31,34,39,36
58,115,69,33,30,32,44,38
57,113,69,29,26,30,43,53
58,99,62,31,29,25,37,56
50,88,60,31,30,26,37,67
48,96,70,33,30,28,42,198
46,91,57,31,32,31,38,223
47,82,53,31,33,35,44,225
45,82,53,30,36,55,62,230
45,83,56,31,36,59,73,231
41,78,51,32,36,70,103,145
45,76,50,32,37,73,106,256
42,88,64,33,36,72,105,261
40,92,66,32,30,60,99,259
44,95,66,30,28,57,91,258
47,102,61,28,26,40,56,254
49,117,68,28,25,33,53,108
48,110,58,25,26,34,50,84
53,115,56,24,28,29,43,74
55,119,59,26,29,28,43,67
54,110,58,24,28,27,36,62
48,93,55,27,29,31,33,39
48,96,56,30,25,32,35,34
47,90,54,31,26,32,35,32
45,85,51,29,28,34,41,32
45,88,51,32,30,40,49,29
53,96,50,31,28,39,46,32
53,96,46,30,30,37,46,32
51,90,44,29,29,39,48,252
48,100,47,33,28,38,44,305
45,97,48,33,29,33,38,355
35,84,46,32,31,37,39,391
37,83,47,31,30,41,45,395
37,94,56,34,29,40,54,311
37,93,56,31,28,41,56,336
35,89,53,29,26,40,56,307
42,92,55,30,23,37,58,262
40,92,63,30,26,33,54,260
38,83,56,27,25,33,61,256
37,76,55,31,25,29,70,152
44,83,58,30,28,30,72,176
40,83,56,32,29,30,70,194
41,79,45,30,27,29,71,205
41,75,43,31,28,28,57,206
47,65,36,28,28,28,42,219
41,57,32,28,25,28,40,175
42,48,31,26,27,25,39,151
45,60,35,26,27,27,34,132
49,71,39,29,25,26,32,129
45,76,41,30,27,27,37,136
47,104,62,33,28,27,31,130
48,111,64,33,25,32,45,138
50,112,65,34,26,29,51,147
46,108,64,30,25,32,52,154
44,113,62,30,23,34,51,141
47,98,44,28,26,34,51,133
51,108,43,26,25,30,46,132
49,115,42,24,27,32,41,122
48,114,41,24,27,29,41,111
53,111,42,25,27,27,38,78
57,107,41,23,23,28,41,65
52,90,35,26,22,28,33,48
51,80,32,27,23,26,32,39
56,79,31,28,23,26,30,39
59,80,37,26,27,28,37,37
53,75,37,27,27,26,31,33
51,71,40,25,29,24,32,30
52,71,40,23,29,24,31,30
48,76,39,21,30,22,31,25
40,81,42,22,28,19,22,25
47,92,40,21,30,20,22,27
47,91,37,23,35,20,19,30
47,89,38,25,39,24,20,29
47,92,42,27,44,25,20,34
45,84,36,29,45,26,19,35
35,74,38,33,47,25,19,62
35,78,40,33,45,25,19,133
30,76,40,35,40,20,18,221
36,84,46,39,40,21,18,225
39,82,42,38,41,23,20,229
40,81,40,34,38,22,19,224
42,84,40,37,38,23,19,191
44,86,43,35,44,24,20,74
45,85,39,32,45,28,20,57
48,95,45,34,44,27,21,32
47,95,45,33,43,29,22,23
45,93,45,30,42,28,24,20
53,123,53,30,36,27,23,24
50,120,51,26,31,24,22,22
44,113,50,30,29,24,20,21
49,111,52,30,31,21,19,21
49,108,51,30,30,20,17,23
39,63,40,29,31,24,18,22
38,57,41,29,27,23,18,23
42,67,46,24,27,21,17,29
39,79,50,26,35,23,18,27
38,81,49,27,39,25,17,26
37,84,49,29,38,23,19,24
36,90,51,35,39,22,18,23
36,86,49,38,42,24,18,16
34,76,45,38,38,23,17,16
33,75,49,39,39,24,18,18
40,81,56,40,44,24,17,19
39,79,55,36,45,26,20,18
39,81,54,33,42,24,22,18
40,83,55,32,40,23,22,19
41,87,52,29,33,22,22,20
50,84,49,28,30,22,21,20
49,90,56,30,35,22,20,22
47,81,53,34,36,22,18,24
46,78,51,34,37,23,18,25
45,74,52,36,37,22,18,23
29,77,54,35,41,23,19,22
27,60,46,33,36,23,18,22
27,69,50,30,37,25,16,20
28,71,52,32,38,25,18,19
32,88,62,33,41,26,18,22
35,88,58,33,37,25,18,21
37,89,59,34,37,24,20,21
39,87,57,32,41,23,21,22
39,84,57,30,40,23,19,23
37,70,49,29,37,23,19,22
35,61,45,28,40,22,18,84
34,67,45,30,41,22,18,399
33,67,48,31,35,22,18,425
35,76,49,34,34,20,18,459
33,82,48,33,34,21,19,462
32,84,48,33,44,23,19,457
34,106,63,32,48,24,18,241
30,101,58,29,47,23,16,190
33,98,55,26,46,25,17,81
32,94,55,26,50,23,16,63
38,108,65,31,44,23,16,50
35,82,48,28,43,22,17,32
37,89,54,31,44,24,18,29
40,94,56,32,46,24,19,25
42,92,53,31,43,25,19,24
39,78,42,29,42,25,19,24
41,79,41,28,38,24,19,22
41,84,36,28,39,21,20,21
32,75,34,26,37,22,22,20
35,77,35,27,41,21,24,19
32,70,33,27,38,22,30,18
31,75,35,28,38,23,31,20
35,68,32,26,37,24,36,21
36,79,40,27,39,23,43,21
33,88,53,30,40,23,45,20
33,88,53,28,39,21,43,21
33,82,52,29,38,21,42,20
27,79,52,29,37,22,37,19
30,89,59,31,34,20,25,20
29,77,50,28,28,19,19,21
29,80,50,27,31,23,19,20
29,82,50,27,33,23,18,21
31,84,54,29,32,23,19,21
25,62,41,26,34,24,19,20
27,71,44,26,35,25,19,21
27,66,44,28,43,23,17,20
33,68,46,28,47,24,18,22
29,68,45,27,48,23,18,21
37,85,54,30,47,22,19,23
38,76,50,30,45,23,19,24
40,101,55,29,34,22,29,25
35,97,52,27,26,21,38,24
38,97,50,26,27,21,38,25
34,97,46,24,30,22,38,24
33,113,55,24,31,21,37,22
38,94,50,23,32,22,31,22
42,106,56,25,33,22,18,22
41,106,56,26,35,23,19,24
41,96,51,25,36,22,19,31
42,77,43,26,34,22,20,39
39,76,46,26,34,21,22,77
38,62,41,28,33,20,21,414
39,61,46,32,35,20,22,457
36,57,47,33,37,20,21,501
34,63,52,36,39,20,22,510
32,63,50,35,39,20,20,508
31,66,49,36,40,22,20,305
28,79,54,34,37,21,18,234
28,76,53,33,35,22,18,113
31,83,47,30,34,22,18,51
31,83,47,31,34,21,17,25
32,82,49,28,34,20,18,22
32,73,41,25,31,18,20,22
35,76,41,26,30,18,19,24
37,65,39,26,28,19,19,26
35,65,41,29,31,20,19,24
39,70,38,31,33,21,19,23
40,70,39,32,36,23,17,25
39,82,44,31,34,23,16,25
35,79,42,30,35,22,18,22
39,86,45,28,34,22,19,24
33,83,47,25,31,20,18,24
36,86,48,25,27,19,19,350
35,74,44,25,29,18,22,449
36,76,46,25,33,19,21,474
33,70,48,23,34,19,21,488
36,76,48,25,33,21,21,494
34,70,43,24,34,22,21,352
32,69,43,23,32,22,19,212
33,71,46,26,30,23,20,148
35,74,42,27,29,22,19,92
32,70,42,27,35,23,20,55
34,74,40,27,35,21,20,32
36,73,43,27,36,23,20,28
35,71,39,24,34,23,19,26
32,66,38,24,34,23,18,25
31,61,35,26,34,22,18,27
28,61,36,27,32,24,18,29
33,61,42,30,34,22,18,26
33,65,46,33,35,21,17,29
35,66,44,32,37,22,19,30
35,63,45,30,33,20,19,27
37,58,46,27,35,20,18,22
33,64,48,26,34,20,21,24
32,61,43,23,32,19,20,21
35,66,49,22,33,21,20,22
36,75,55,25,39,23,20,24
36,79,57,26,38,21,21,25
34,71,48,26,37,21,19,27
36,73,53,31,41,22,20,37
30,69,48,31,36,19,17,54
27,59,41,29,30,19,18,56
27,57,42,29,31,20,15,57
27,58,42,28,32,20,15,56
31,68,40,24,32,20,16,51
36,72,40,25,35,20,16,31
42,86,42,24,35,21,16,28
46,89,42,26,34,19,16,25
46,90,45,26,34,19,18,25
44,81,42,25,31,19,19,24
43,84,41,27,28,20,20,21
40,77,45,28,31,17,20,21
37,70,39,26,31,18,21,20
36,73,43,29,37,20,19,19
34,69,43,30,39,21,18,19
32,62,44,30,41,20,16,20
30,54,42,30,38,21,17,18
29,60,45,31,44,23,17,19
33,59,39,30,44,23,16,20
32,62,41,30,41,22,16,19
30,58,40,28,39,23,16,18
40,66,38,28,41,23,16,17
42,111,63,29,33,21,17,17
39,117,65,28,27,19,19,16
40,119,66,26,26,20,18,16
40,120,66,26,31,21,18,17
33,117,65,27,32,21,17,18
31,84,50,26,34,24,19,18
32,72,46,25,35,24,17,18
31,68,44,26,33,24,17,18
37,82,51,29,31,24,18,21
35,79,52,28,29,25,19,21
42,79,45,28,27,22,17,20
42,81,45,28,25,22,19,21
42,86,47,29,28,23,21,21
37,74,40,25,28,21,21,19
41,82,48,26,29,20,22,20
34,75,46,29,30,23,22,21
33,73,45,30,32,23,20,21
31,68,44,29,33,21,20,21
33,72,50,30,35,22,20,21
33,73,46,30,37,23,20,22
30,69,44,30,39,22,20,21
33,71,46,29,40,22,20,21
41,79,47,29,37,26,18,21
43,84,48,28,34,26,20,23
40,80,47,28,33,25,20,21
43,80,47,25,34,23,21,21
42,80,47,25,35,24,21,23
41,95,57,26,37,22,21,27
37,86,52,28,37,22,19,26
37,85,50,26,37,21,19,27
35,83,50,25,35,23,17,27
36,90,55,26,37,23,16,27
32,67,43,28,39,22,16,25
36,69,39,31,39,23,19,25
36,73,43,33,39,23,19,29
34,74,41,34,36,21,19,29
40,79,38,36,39,21,21,29
36,78,39,35,37,21,21,26
36,75,40,34,39,22,20,28
35,68,37,32,38,21,20,23
41,73,39,33,38,24,20,23
37,58,34,29,30,23,19,21
39,65,42,31,29,23,20,22
36,63,39,27,30,24,19,20
39,69,39,29,30,26,18,22
33,66,37,26,28,24,18,22
32,73,43,29,32,25,17,23
31,68,35,28,33,26,18,24
33,72,37,31,30,24,19,24
31,66,36,31,33,24,19,23
30,71,37,32,34,22,19,23
32,68,30,33,41,24,20,26
32,67,32,35,41,23,19,25
30,66,30,33,40,23,18,25
33,70,32,31,39,22,18,23
31,70,39,31,43,21,20,24
33,68,40,28,36,21,19,18
33,67,40,28,37,21,18,19
35,72,42,28,37,19,16,19
34,80,44,31,42,20,16,19
37,75,40,34,39,22,15,20
35,74,43,34,36,20,16,22
34,74,43,33,33,19,17,24
33,71,43,34,40,22,19,24
32,55,41,32,38,22,19,24
31,61,41,31,39,21,19,22
35,64,39,30,40,20,18,19
34,61,37,29,41,21,17,16
34,58,36,30,38,19,18,15
36,69,46,32,35,21,17,17
36,72,48,30,33,21,18,17
33,66,44,31,35,22,21,18
35,67,45,31,34,21,21,21
36,78,52,29,32,22,19,22
38,76,46,28,33,23,20,22
38,67,40,26,36,23,19,22
38,70,41,25,34,24,18,23
40,75,46,27,34,25,19,21
38,80,52,29,34,25,21,19
35,76,50,29,32,23,23,19
38,80,51,29,28,22,24,19
37,77,53,30,40,22,25,17
35,84,53,31,47,23,24,18
36,67,38,29,47,22,21,20
35,65,37,30,46,22,21,20
30,58,37,30,55,24,25,19
29,61,39,31,48,23,28,22
27,56,38,27,44,21,36,22
26,55,37,26,44,19,39,21
27,64,37,26,50,20,39,19
28,73,40,26,43,19,36,21
34,74,37,25,45,20,36,23
35,82,42,24,43,20,34,22
37,83,43,26,45,24,34,22
34,78,44,26,39,21,36,23
34,71,40,25,34,22,36,22
29,73,40,23,30,20,33,18
28,63,34,24,39,22,27,19
27,64,36,26,42,21,21,18
30,61,35,26,42,22,18,18
33,65,40,27,41,24,17,19
32,60,39,29,47,25,16,20
31,57,38,30,49,27,14,21
32,60,37,29,48,25,17,20
29,57,38,29,48,25,18,21
28,58,37,29,48,23,18,20
31,56,38,28,46,21,19,19
32,61,38,28,38,18,19,17
31,62,42,28,35,19,17,18
33,73,50,27,35,20,16,18
30,68,47,28,37,21,15,19
28,72,47,26,33,21,17,18
29,77,50,25,29,22,18,22
27,73,49,27,33,24,18,23
30,68,42,26,33,21,19,22
30,73,49,31,42,24,20,24
29,70,49,32,42,25,19,25
29,60,45,30,43,26,19,23
32,63,43,29,38,25,19,26
28,61,43,30,39,26,20,27
30,55,36,24,30,23,20,25
30,59,38,25,34,23,19,25
30,56,42,27,33,21,19,23
27,55,45,30,37,23,20,18
27,52,44,31,38,22,17,19
24,54,47,30,38,23,17,18
28,59,48,30,35,21,16,27
30,61,46,29,36,22,16,31
30,58,42,25,34,21,17,50
32,63,43,26,33,22,17,57
33,61,39,27,33,21,19,58
30,67,38,27,35,21,19,55
30,64,36,27,33,21,20,52
30,78,43,28,32,20,20,36
28,74,41,28,39,22,20,21
28,77,45,29,38,23,19,17
26,71,42,31,36,23,20,16
28,74,40,31,38,23,19,17
28,61,36,33,39,23,18,15
30,66,40,30,30,22,18,15
31,65,37,29,31,21,18,16
31,59,37,25,38,22,18,16
30,58,43,26,36,23,18,17
29,62,46,24,34,23,20,18
28,63,49,25,36,22,20,19
27,60,50,26,35,23,21,19
26,63,50,28,30,24,20,20
26,60,45,26,31,23,21,20
32,75,48,27,33,22,19,22
33,72,44,28,32,23,19,21
32,74,46,30,37,24,19,20
35,80,45,28,35,22,21,19
38,97,57,31,34,22,20,21
35,84,51,29,31,23,20,18
33,86,50,29,38,23,21,19
34,88,50,27,34,19,19,19
32,81,49,28,34,21,19,21
28,59,41,24,35,21,18,20
29,63,44,27,38,23,20,20
30,61,45,28,34,22,20,19
38,57,42,28,35,21,20,20
37,59,43,26,38,21,20,21
36,67,44,27,39,21,20,20
37,70,43,26,36,19,18,20
38,70,42,25,35,18,17,22
31,69,43,26,35,20,18,23
32,73,44,27,35,19,17,21
33,67,40,27,36,19,19,22
30,68,43,29,40,20,19,20
27,72,43,29,40,21,21,18
27,74,43,30,38,21,20,20
24,67,44,32,41,22,20,19
27,72,49,33,42,24,19,19
27,61,44,31,39,24,19,21
27,58,43,30,41,24,18,21
28,60,45,28,42,23,19,18
31,64,42,26,37,23,21,19
26,61,43,26,34,20,21,20
28,65,45,30,33,21,20,19
28,66,44,30,35,21,19,20
27,66,45,30,39,22,19,21
23,68,53,31,38,22,18,22
25,65,48,29,37,22,19,22
26,62,44,25,39,21,22,23
25,60,47,26,34,23,24,24
27,54,45,26,34,22,24,24
29,51,38,26,35,22,24,23
29,51,41,25,38,22,23,23
28,53,44,26,40,23,23,22
28,54,43,25,43,20,21,22
26,52,42,25,42,21,20,21
27,54,41,24,42,20,21,20
29,70,46,24,42,21,21,19
29,74,46,23,42,23,19,21
31,77,46,23,40,24,19,20
33,78,47,21,36,22,19,21
32,72,47,23,37,22,18,22
31,68,44,22,35,21,18,32
30,66,43,22,38,21,17,32
30,71,48,26,40,21,18,33
29,72,46,29,40,22,17,37
28,71,44,27,40,20,17,36
26,60,37,26,38,22,18,28
24,65,44,27,32,22,19,27
22,57,39,31,31,22,18,26
22,67,47,32,33,22,18,19
25,68,47,33,32,23,18,18
26,78,55,35,35,21,18,19
29,77,53,34,37,21,43,19
32,83,55,28,37,22,43,19
31,85,55,26,36,22,43,18
33,89,57,27,42,22,43,18
33,83,49,26,39,23,43,18
31,77,45,27,37,22,15,17
30,69,40,25,35,21,16,20
33,89,52,26,40,22,16,22
34,93,52,27,38,22,17,22
34,97,53,28,38,22,16,22
34,97,52,28,38,23,17,23
34,95,53,30,44,23,18,22
29,65,34,29,41,22,17,22
26,64,36,29,39,21,18,21
28,56,42,28,40,22,17,21
28,58,44,29,41,22,18,22
28,72,46,26,39,23,18,21
30,73,47,27,38,23,19,21
31,76,49,28,36,25,19,23
30,76,43,25,35,24,20,30
34,88,44,25,35,23,18,31
35,88,49,26,31,22,19,33
37,91,52,31,33,23,19,35
34,83,49,31,34,23,20,36
34,91,54,33,35,23,20,31
29,84,54,35,36,24,20,29
28,76,50,36,36,22,19,27
27,70,47,31,33,22,19,23
28,73,47,31,35,21,18,19
26,58,40,31,36,21,17,18
29,61,49,31,39,20,19,20
30,63,46,30,39,23,18,19
27,65,48,31,39,21,17,20
25,61,45,28,35,21,16,20
27,68,47,28,37,21,18,21
28,65,37,26,32,21,18,21
26,60,38,28,33,20,18,20
29,64,43,28,34,21,18,21
29,63,44,31,43,22,18,23
28,58,43,31,43,23,17,22
28,61,45,29,43,24,16,23
29,59,41,28,42,22,16,23
29,58,36,26,41,22,18,22
29,58,34,23,38,20,18,21
29,59,34,23,40,20,19,22
28,56,30,28,41,21,18,20
28,61,36,28,42,23,18,21
28,59,34,29,44,23,17,23
28,63,39,29,45,24,19,22
33,83,48,29,37,25,19,21
