29,100,56,40,40,196,37,23
29,102,71,39,42,212,35,24
27,89,71,40,44,208,33,25
28,87,82,39,46,192,31,25
28,88,101,69,50,190,28,24
27,75,112,91,51,189,26,24
27,65,111,93,49,192,24,23
27,64,118,96,46,193,25,26
27,69,122,102,45,198,28,26
26,64,108,86,39,190,27,25
24,68,92,62,44,217,32,24
22,61,83,63,47,213,33,28
20,63,82,58,46,198,33,24
19,58,71,47,48,193,37,24
19,65,73,48,49,201,39,24
20,62,78,48,46,197,39,23
23,70,79,45,40,175,40,21
27,83,69,46,42,203,43,26
30,91,96,67,45,227,41,27
31,98,128,78,47,233,45,29
33,97,127,80,46,220,43,30
31,110,130,86,51,229,43,31
31,106,160,97,56,221,43,30
36,119,178,90,61,204,42,50
35,121,160,81,58,191,41,51
38,123,168,82,58,197,40,57
41,112,187,81,61,217,41,56
40,114,175,99,57,211,37,56
37,99,168,112,51,196,37,43
38,107,191,142,56,218,36,44
39,138,219,153,75,265,42,62
53,163,254,162,80,266,43,73
53,161,256,149,83,268,46,72
54,171,245,140,87,300,50,73
58,161,250,119,90,302,64,72
57,138,231,116,76,252,66,61
46,107,186,114,73,244,70,59
60,119,183,137,77,256,70,73
115,147,202,167,82,252,69,90
121,161,261,201,101,324,62,105
127,173,266,201,108,350,59,101
127,172,262,196,104,343,53,97
121,164,253,179,98,329,50,89
70,119,231,145,90,301,45,68
54,97,118,80,58,195,37,41
36,60,79,57,42,153,32,36
34,47,70,50,39,160,33,31
29,39,79,50,39,167,34,25
25,33,93,54,38,171,34,27
25,35,95,55,46,184,31,26
23,35,102,61,43,178,30,26
23,44,106,73,47,176,32,25
23,41,107,68,48,207,38,25
27,55,101,72,53,243,40,22
26,56,110,80,47,253,41,22
29,66,120,85,49,257,42,25
27,71,121,79,45,562,42,24
29,78,135,90,57,784,40,25
31,77,146,109,53,982,39,26
31,75,139,105,54,1085,40,24
29,70,131,106,54,1115,41,22
29,62,118,105,53,995,38,22
27,54,102,100,40,829,34,21
22,46,83,75,39,563,31,22
28,56,96,72,49,558,31,24
26,53,102,64,46,557,31,26
28,52,102,63,47,588,34,26
27,52,93,54,48,612,37,26
29,50,99,62,50,655,40,29
24,38,84,58,40,494,38,28
25,34,75,56,39,422,37,26
25,35,78,52,37,372,35,27
25,38,88,61,35,315,31,27
22,35,76,52,31,213,28,22
22,35,83,61,33,115,30,20
21,39,88,64,34,95,30,23
23,40,86,63,40,131,30,22
23,44,78,59,40,148,40,23
23,49,83,62,41,148,42,25
24,50,87,62,44,158,42,25
24,66,84,56,43,162,42,24
21,64,82,56,39,139,40,23
22,59,81,52,38,126,29,21
21,56,85,49,35,138,27,19
20,55,79,40,33,148,27,20
22,35,76,38,34,159,28,21
22,35,84,36,32,157,28,23
22,34,83,38,32,155,28,22
23,37,81,39,33,157,26,23
24,40,81,39,32,150,26,24
22,38,79,39,34,151,24,22
25,38,71,46,35,172,24,22
25,37,73,46,35,185,28,24
24,34,62,43,34,187,28,22
25,33,72,42,32,178,27,19
26,31,72,44,29,164,27,19
23,30,79,39,31,140,25,19
21,32,87,38,31,122,25,19
22,38,89,43,30,108,24,20
23,37,77,40,31,112,25,20
22,37,91,44,31,121,25,20
23,36,88,41,27,120,27,19
23,34,75,41,26,125,25,18
23,28,75,37,30,142,29,17
21,28,82,40,32,146,30,19
21,29,64,32,34,140,32,20
21,30,65,43,36,149,30,21
21,35,67,43,37,143,31,19
22,38,67,44,35,125,28,19
22,38,69,47,36,127,28,19
26,37,70,50,34,137,27,20
25,37,65,43,32,139,29,20
26,37,85,51,44,160,28,24
24,35,83,50,43,158,30,24
24,36,76,48,43,153,30,23
20,34,74,44,42,164,31,23
20,31,74,42,42,152,29,23
19,28,53,33,28,130,29,19
19,32,60,35,29,122,25,19
20,32,67,33,27,125,25,19
20,33,83,37,28,102,26,19
22,34,82,36,32,104,26,19
21,35,83,37,30,122,25,19
20,33,79,38,32,133,28,18
21,30,71,37,31,155,25,16
21,33,66,40,30,148,25,16
21,34,68,42,27,154,27,18
20,33,69,45,27,138,28,18
23,33,72,45,27,136,25,20
21,34,73,44,30,129,30,24
20,29,59,40,35,150,29,25
20,29,69,41,35,288,29,24
19,28,63,33,36,318,29,24
19,27,63,34,38,347,30,22
19,28,75,45,37,346,25,18
21,27,80,47,31,387,24,18
20,28,73,45,32,345,27,18
22,29,78,45,34,352,29,18
21,31,78,47,30,351,30,18
20,30,66,41,29,359,32,18
22,30,66,41,32,498,32,19
22,28,75,41,37,697,29,19
22,28,67,41,34,903,30,19
22,25,64,36,34,941,30,21
23,26,71,39,33,949,33,22
21,30,68,40,34,868,37,21
21,33,64,44,27,721,38,20
20,32,72,47,26,549,35,20
22,33,73,48,29,482,35,20
21,35,70,42,33,465,35,20
22,34,69,40,33,457,31,19
21,32,64,35,34,419,29,20
22,33,56,39,35,214,29,18
22,32,59,40,34,156,29,19
21,30,63,40,31,130,24,19
22,27,71,43,30,123,28,20
21,26,78,44,26,123,27,21
22,27,82,40,31,115,30,21
19,26,80,39,29,122,32,24
20,28,76,44,29,133,31,23
18,29,67,41,28,140,29,22
22,27,68,41,31,133,29,22
22,26,79,39,26,129,24,22
23,28,77,40,29,128,23,18
23,25,79,39,27,110,25,19
23,25,84,40,31,103,28,21
20,29,77,40,29,112,29,22
22,27,63,39,30,121,30,23
20,27,66,41,27,157,29,24
20,28,62,37,31,217,30,23
21,26,71,36,28,399,26,23
22,25,82,38,29,466,27,22
21,26,83,37,31,551,26,21
21,25,85,35,34,573,25,23
22,26,87,35,33,581,24,25
22,31,76,39,32,490,23,24
20,30,75,40,32,431,24,24
20,34,76,43,29,312,24,24
19,33,79,43,28,249,26,21
19,33,76,44,31,200,27,21
18,29,72,37,31,165,28,21
21,29,64,36,34,155,27,20
21,27,69,36,45,180,32,22
24,27,64,36,48,180,31,22
24,29,72,36,46,155,29,20
24,32,74,38,49,148,31,22
24,32,67,37,47,150,32,21
25,30,60,38,41,126,29,20
24,33,59,40,40,128,28,20
23,31,51,40,41,127,30,21
23,29,59,44,50,127,34,22
22,30,66,45,54,109,31,22
20,33,73,42,53,117,32,20
20,31,77,41,52,130,34,24
20,28,81,43,51,140,33,21
21,29,87,43,48,174,29,21
21,27,85,43,44,175,32,22
21,26,78,42,41,167,33,22
22,25,80,43,40,153,32,20
25,27,75,43,49,165,31,21
23,27,76,41,46,142,30,20
27,33,74,41,50,163,29,21
27,31,71,41,53,168,27,20
26,30,70,40,51,167,27,19
26,40,70,43,53,167,29,19
26,51,62,44,63,159,29,20
20,49,64,48,62,155,28,21
23,51,81,59,74,158,38,24
24,57,81,61,82,164,40,25
22,57,87,61,77,145,40,24
21,57,94,60,86,164,41,24
23,59,96,64,92,155,43,24
22,62,93,62,86,154,38,23
22,69,90,67,80,146,37,22
23,74,90,64,82,145,36,22
24,76,82,72,65,122,37,24
24,75,78,65,55,139,35,24
24,73,67,62,68,146,35,22
26,65,66,61,80,155,42,25
29,57,63,67,80,180,43,25
30,54,64,56,80,185,42,24
31,56,62,61,80,183,40,23
30,60,78,67,65,175,39,26
28,57,76,64,47,168,31,24
24,61,72,59,42,158,29,24
22,56,78,62,39,146,27,25
21,51,82,59,40,133,29,23
20,43,73,51,36,144,33,24
22,44,82,46,39,164,33,25
22,35,80,46,39,146,34,25
22,32,71,42,38,158,37,24
21,42,76,41,39,154,36,26
22,47,80,43,42,148,33,25
20,46,78,52,45,129,32,22
21,44,82,52,44,150,34,22
22,45,81,54,47,142,29,21
21,38,76,53,47,146,28,19
21,35,65,51,45,162,26,17
21,42,69,52,54,168,28,20
22,43,66,54,57,173,25,21
21,40,66,53,54,184,25,22
22,42,70,65,62,186,27,23
22,45,100,72,75,172,26,24
22,41,97,64,73,175,29,22
24,45,99,63,77,164,28,21
25,49,100,65,83,151,32,22
26,57,95,69,78,149,33,23
27,56,72,67,67,145,36,23
29,70,66,73,64,127,35,23
27,81,73,79,61,120,37,24
27,80,75,79,59,124,33,23
25,78,81,69,66,142,33,22
24,82,76,68,75,156,33,21
20,72,83,65,76,164,33,23
22,63,75,58,76,167,32,25
21,66,74,58,72,178,37,26
22,61,69,54,64,153,35,25
22,58,69,47,56,138,34,25
24,54,60,44,52,160,33,23
22,51,64,43,51,170,30,19
23,47,63,40,52,162,24,18
24,57,70,45,53,179,27,19
25,55,65,47,60,195,26,21
24,59,66,46,65,180,27,22
27,55,61,46,65,180,29,24
26,57,60,51,62,178,32,27
25,51,49,50,66,169,30,26
25,52,58,48,61,153,29,24
25,55,59,61,65,156,34,24
24,53,55,63,63,166,33,23
22,52,55,65,67,173,35,21
23,55,59,65,62,175,35,20
23,53,54,69,66,173,38,22
24,47,59,74,56,186,34,24
22,50,65,74,54,186,35,24
25,49,64,71,47,174,30,23
24,57,70,74,47,171,31,23
23,57,70,71,32,178,28,20
21,60,69,53,35,155,27,17
23,64,66,52,39,127,30,18
20,71,71,52,47,145,32,19
19,66,65,47,56,165,31,22
21,67,67,51,66,159,33,23
23,78,69,53,78,160,33,24
23,79,69,52,79,158,32,26
23,71,64,48,76,163,30,25
24,65,65,47,68,138,30,22
23,64,59,39,61,138,28,23
25,42,54,36,41,138,27,23
23,31,60,37,41,139,26,20
23,39,62,37,39,124,27,19
24,39,57,33,40,134,29,19
23,38,61,35,41,133,29,19
21,48,62,33,47,125,29,20
23,49,58,30,44,122,28,20
24,55,60,29,46,127,27,19
24,59,65,33,47,132,26,22
23,65,70,32,47,142,25,22
22,57,66,33,44,154,25,24
21,58,67,34,43,173,27,25
20,47,62,36,39,183,26,26
19,41,56,38,37,186,29,25
20,28,44,42,40,195,30,26
22,27,44,46,41,191,31,24
22,24,45,48,43,184,31,24
23,24,49,47,44,171,31,26
22,24,59,47,44,161,27,27
21,27,60,50,42,142,27,27
21,28,69,46,37,136,26,28
21,30,85,49,39,138,25,27
23,48,92,52,39,148,27,25
24,56,89,53,39,145,28,25
23,54,97,51,37,140,29,24
23,54,89,51,40,145,29,22
23,54,69,45,37,135,29,24
21,38,68,44,37,129,28,22
20,27,67,40,39,132,29,20
21,30,57,37,39,132,29,23
21,30,63,36,35,131,28,23
22,44,66,37,39,141,29,21
22,49,61,33,38,149,27,22
22,53,62,38,36,169,27,24
21,54,68,48,37,177,24,22
20,54,63,51,38,178,26,23
19,47,62,51,34,170,25,22
19,48,65,51,34,161,27,23
22,45,62,47,37,140,26,21
22,47,55,35,36,139,29,21
25,51,66,37,35,141,27,20
24,46,68,49,40,138,28,25
23,41,70,52,41,137,28,24
24,44,78,56,44,129,30,23
25,43,82,62,47,151,29,24
22,39,72,59,48,145,29,24
25,44,79,50,47,143,30,21
27,47,75,47,47,146,30,22
26,42,74,43,45,153,27,23
26,40,84,41,43,135,27,25
27,48,88,52,45,171,27,24
27,54,85,57,55,192,28,24
26,66,103,100,59,446,29,25
26,95,116,113,69,555,30,24
27,107,119,113,72,602,33,23
27,107,116,116,85,609,35,23
27,107,113,123,87,638,37,23
26,101,99,97,87,524,38,23
26,75,81,85,77,424,37,23
24,60,60,82,74,371,35,24
22,56,60,73,60,350,34,24
21,45,59,62,44,283,32,24
21,46,51,61,40,252,28,23
20,45,54,62,42,247,28,21
20,42,55,64,47,222,30,20
20,42,59,66,44,213,32,19
20,43,62,61,48,230,31,19
21,35,66,52,51,443,32,22
21,43,60,49,50,586,33,22
21,46,61,52,44,649,31,22
20,49,63,57,43,684,27,21
20,51,65,62,44,703,31,22
17,52,64,63,40,588,29,19
17,48,66,63,43,448,29,22
17,47,64,68,39,354,30,20
18,39,61,67,40,286,31,21
19,38,61,64,36,222,29,20
20,45,59,67,40,212,33,22
22,43,65,74,39,207,36,19
22,42,75,69,46,228,32,20
22,41,76,65,47,223,31,23
24,46,84,68,51,227,33,24
23,41,94,68,45,214,31,22
21,45,89,61,45,186,27,23
21,48,93,60,44,169,29,24
21,57,94,57,43,187,30,21
21,60,94,52,42,193,27,21
21,60,87,52,46,193,28,23
21,57,87,54,47,184,28,23
24,57,75,51,43,158,28,21
23,49,80,52,42,129,27,21
23,40,74,52,44,113,29,22
23,43,73,49,43,123,25,20
22,45,72,41,44,133,24,18
19,40,76,46,46,136,24,19
19,50,67,49,50,138,29,20
19,53,63,53,47,136,28,20
19,51,60,49,49,133,29,19
19,49,68,59,48,158,30,20
21,57,66,63,45,176,31,21
22,47,62,61,42,189,26,20
20,42,64,56,42,184,27,20
20,44,67,71,41,179,27,19
21,44,65,66,43,182,29,23
18,38,64,57,43,174,28,21
21,39,64,59,42,162,26,22
21,39,66,60,42,166,30,22
21,35,59,50,44,175,28,22
20,35,59,54,42,137,28,20
21,34,67,65,43,132,28,22
18,34,68,65,43,150,30,23
18,34,66,68,44,160,26,22
35,39,67,64,40,191,26,28
37,38,61,59,38,230,25,30
38,35,77,49,38,241,26,29
38,34,77,47,37,235,25,28
39,34,75,42,41,233,28,28
27,29,84,44,45,214,27,21
26,31,87,44,46,179,27,18
25,29,75,52,45,164,29,17
27,32,78,55,48,177,30,17
25,32,78,56,45,166,30,16
23,31,68,53,42,147,30,20
21,30,72,53,40,144,29,21
22,31,58,43,41,151,28,21
21,29,61,46,43,146,26,21
22,30,67,51,41,159,23,22
22,34,72,55,40,162,24,18
23,37,71,64,39,166,25,18
24,43,78,68,40,173,25,20
22,42,73,63,37,168,26,20
23,42,72,60,37,157,26,20
22,43,71,58,39,164,24,21
20,42,71,48,43,160,25,22
20,39,64,47,48,155,23,20
22,40,65,52,50,154,22,19
20,40,61,48,49,155,22,19
20,36,60,50,49,152,25,20
23,35,62,54,50,164,24,18
21,31,61,60,43,152,24,18
21,33,60,62,44,151,25,20
23,37,59,64,46,157,26,20
24,40,59,63,42,170,26,20
23,38,54,60,38,161,26,23
25,38,57,52,45,168,28,23
24,38,54,54,48,166,28,23
23,34,52,58,49,158,29,23
24,30,50,56,51,141,27,24
23,38,53,59,51,131,28,23
23,39,54,58,43,118,26,23
23,35,61,51,38,112,25,22
22,37,70,49,37,115,22,24
22,46,70,51,35,106,24,22
22,41,68,51,35,110,24,23
22,41,68,51,38,123,26,22
22,47,62,49,43,126,27,23
23,47,55,49,43,139,30,23
22,40,52,47,41,161,29,23
23,38,55,42,44,164,29,23
23,44,51,45,50,165,27,23
22,39,59,67,46,160,28,22
19,41,72,86,48,153,28,19
21,41,75,89,50,131,28,20
19,42,73,89,48,127,26,19
18,36,72,87,44,114,27,20
18,36,67,72,42,113,26,20
20,33,49,50,41,120,24,21
19,40,70,47,40,146,26,20
19,39,75,57,39,172,27,20
19,39,80,58,39,191,26,19
20,40,96,60,38,195,25,20
19,45,98,57,38,183,25,19
19,42,90,56,35,227,25,20
21,42,94,47,41,217,25,20
21,46,100,47,40,215,25,19
21,48,90,47,41,214,26,19
22,45,91,52,45,239,26,21
23,45,95,57,48,213,26,22
21,50,90,57,42,216,25,23
20,46,89,59,42,204,27,22
24,41,144,108,43,207,25,22
22,42,153,112,46,738,33,21
22,45,149,109,48,983,37,21
22,40,155,114,54,1100,47,20
26,47,161,123,56,1119,51,21
24,49,124,92,58,1120,52,23
26,50,121,92,54,861,49,22
28,46,134,105,56,553,46,23
27,47,128,104,51,235,37,22
24,43,133,96,46,97,34,22
22,40,141,97,45,58,32,19
22,39,159,111,51,42,31,20
19,39,149,97,43,183,29,21
21,38,146,95,42,366,27,23
20,44,134,93,43,419,24,23
20,50,117,85,40,439,27,22
20,50,77,59,36,676,24,24
19,52,85,63,39,717,26,20
19,52,84,60,44,666,28,21
18,44,80,60,44,638,32,19
19,39,81,60,43,628,31,21
20,44,115,66,43,364,32,21
22,44,114,65,40,215,31,22
23,44,118,66,35,449,30,21
26,44,118,67,37,490,28,23
24,45,119,67,43,503,29,23
23,46,94,57,41,515,28,23
21,52,93,57,47,519,29,23
20,54,103,64,52,315,31,22
19,54,100,61,50,243,28,22
20,56,99,61,46,229,28,21
22,56,102,64,45,216,30,21
22,56,94,65,38,208,31,21
23,55,79,58,31,195,32,21
24,61,77,69,31,212,34,21
25,60,88,66,32,215,36,21
27,57,79,64,37,215,35,20
27,49,77,60,38,225,34,19
27,48,83,58,38,206,32,20
27,43,82,50,39,192,31,22
26,44,69,48,37,184,27,21
23,46,70,50,33,167,28,22
23,49,73,54,36,172,31,24
23,52,68,55,42,456,31,22
20,50,70,53,46,550,30,20
19,49,81,56,50,578,33,18
19,51,85,57,49,597,36,18
21,50,86,56,50,625,34,20
20,51,86,57,45,525,33,20
22,52,91,56,41,485,35,20
23,54,86,60,41,512,35,22
23,54,82,60,40,514,30,21
22,52,94,71,45,486,29,17
22,47,92,70,44,425,30,18
21,51,87,68,42,359,31,17
20,48,98,68,42,272,28,17
20,45,96,67,46,364,30,17
20,44,87,57,38,389,29,17
22,51,94,69,40,422,31,18
20,50,97,72,42,422,29,19
22,46,76,68,40,415,28,20
22,47,80,67,36,308,26,20
22,45,72,63,34,261,25,19
20,37,66,49,31,204,25,20
22,31,68,45,31,239,26,19
21,42,70,43,27,308,27,18
20,40,70,44,45,615,37,19
19,42,70,49,47,807,43,19
22,53,72,52,52,870,43,19
21,54,72,52,52,969,44,20
21,51,70,54,54,1047,43,18
22,61,84,55,41,912,37,20
23,63,88,48,39,749,29,20
21,55,86,43,35,699,26,20
21,55,81,43,34,569,24,20
23,51,102,52,33,395,27,23
22,51,94,49,35,364,25,21
21,52,95,57,35,368,24,21
23,52,96,59,35,360,26,19
23,51,99,58,33,332,26,18
22,50,78,48,30,305,24,18
20,42,82,51,28,324,26,19
21,40,85,44,29,313,25,22
19,41,85,46,28,274,24,25
20,43,88,54,31,254,26,25
18,45,88,53,32,231,28,24
19,39,79,52,34,200,28,25
20,41,73,52,35,215,29,23
21,41,69,47,35,195,28,19
20,38,59,38,32,188,26,21
22,36,59,37,33,195,22,20
23,36,58,42,35,221,27,20
21,31,60,48,36,224,29,21
22,29,64,53,37,219,28,21
24,35,71,55,44,648,28,19
22,35,72,56,44,906,30,20
22,34,72,52,40,1012,27,23
21,36,67,46,37,1013,27,23
19,32,65,39,36,1019,27,24
19,26,58,34,25,816,27,25
21,25,55,32,23,514,29,24
21,30,71,31,23,226,26,20
22,27,70,34,21,209,24,20
23,29,75,43,23,182,24,19
22,30,79,46,25,174,25,18
26,32,77,50,29,186,22,19
27,31,74,54,31,220,23,18
29,32,78,51,32,226,24,17
28,31,78,50,35,244,27,18
28,32,78,55,39,261,27,18
23,29,83,52,37,258,27,17
21,29,76,46,35,236,27,17
20,31,74,49,36,228,27,17
21,34,68,45,33,204,23,14
22,34,71,37,27,187,21,17
22,33,65,37,34,192,20,17
24,34,74,39,36,189,20,20
23,32,72,35,37,185,22,19
24,30,71,39,39,187,23,21
24,30,72,38,40,181,24,20
25,30,73,39,36,162,23,21
23,28,68,38,35,170,24,19
22,28,72,37,33,199,21,20
21,28,86,41,32,197,21,20
22,26,89,41,31,197,22,20
20,29,97,49,33,201,23,21
20,28,92,48,32,204,26,21
22,28,95,52,36,202,28,23
21,27,86,48,36,206,28,22
21,26,82,49,34,225,27,21
21,24,71,41,31,233,27,20
22,26,81,42,34,234,24,18
20,25,69,37,28,212,25,15
21,25,62,33,29,208,25,18
22,27,66,30,35,188,26,18
23,28,65,30,34,176,26,18
22,32,53,34,33,168,26,19
22,36,57,35,33,172,22,20
21,35,64,37,32,171,22,16
19,34,55,42,29,165,20,16
20,34,62,43,28,160,22,17
18,29,62,41,27,145,21,17
21,26,62,41,28,139,23,18
23,26,58,38,25,150,24,20
22,25,56,33,29,168,25,22
22,27,57,38,30,174,24,23
22,26,77,41,30,202,24,23
21,28,79,40,31,210,27,21
20,29,78,42,36,216,25,20
21,29,84,44,33,223,24,19
21,28,81,40,32,221,24,15
24,28,65,38,31,200,23,17
23,25,85,45,33,200,20,18
23,28,85,45,28,183,23,20
25,32,79,42,28,173,24,19
24,32,83,42,28,173,24,20
22,33,90,48,29,169,25,21
22,35,72,42,24,164,25,20
22,33,70,43,25,164,21,20
19,28,76,49,23,152,21,21
19,30,84,50,27,141,22,21
18,28,73,46,29,154,22,20
17,23,73,46,30,162,23,21
18,23,75,44,31,176,23,19
19,35,75,44,32,194,23,19
21,36,65,42,31,216,24,19
22,37,68,40,29,218,23,18
23,38,65,41,30,218,25,19
24,39,68,46,36,237,27,20
23,30,63,40,35,222,29,21
21,28,57,39,35,208,27,21
21,31,56,41,37,201,28,22
22,31,65,41,34,193,26,20
19,30,63,39,26,166,24,20
19,32,67,40,25,173,19,21
20,33,68,40,23,172,19,20
19,29,80,43,21,170,18,21
20,28,72,43,25,173,19,20
22,34,71,42,27,161,20,20
24,37,70,42,28,160,22,20
23,38,75,44,28,169,23,19
24,39,66,40,27,178,24,18
23,41,90,46,25,184,23,18
20,35,96,46,24,202,24,18
21,31,95,45,23,232,23,17
22,30,96,42,24,245,24,18
20,31,94,42,26,239,24,18
20,29,78,37,29,232,24,18
24,31,71,37,29,217,23,17
21,33,79,39,30,180,21,19
20,33,79,41,35,146,20,18
20,32,81,42,56,142,22,18
24,38,76,45,66,148,22,17
26,37,77,50,69,210,25,20
27,40,75,48,70,211,25,20
29,41,76,50,68,215,24,19
30,44,73,51,53,235,22,20
27,38,72,46,39,231,23,21
24,37,70,41,33,180,21,19
23,35,70,40,31,178,21,18
23,35,59,36,29,188,21,19
24,32,60,31,29,178,23,18
25,36,72,33,29,188,23,21
23,37,74,31,29,215,22,20
25,35,68,35,30,232,23,21
24,33,72,42,37,232,24,20
23,31,71,42,39,232,23,19
24,27,62,48,38,216,23,17
24,27,79,54,40,204,25,17
23,25,76,53,39,195,25,19
22,30,78,55,35,182,25,22
24,33,98,59,33,164,26,22
22,30,95,55,35,180,25,22
23,29,81,51,36,163,23,24
22,31,84,50,35,178,22,23
22,27,80,44,39,191,22,22
21,27,53,40,49,208,21,24
19,28,64,48,64,209,21,23
20,29,77,53,69,222,25,22
20,29,78,53,70,219,25,23
20,29,84,193,69,238,24,22
19,30,86,226,61,232,26,19
19,32,85,231,46,237,27,20
19,30,72,231,36,225,23,19
20,30,70,232,35,210,24,20
22,33,73,141,40,200,24,20
21,31,74,84,41,189,26,21
23,31,79,64,39,192,25,22
25,33,92,60,40,207,27,22
23,31,90,52,40,212,27,19
22,28,82,46,32,183,27,20
24,27,82,37,32,207,23,18
23,25,71,33,33,189,23,17
22,22,55,35,30,171,25,22
23,29,61,40,29,164,26,22
21,27,60,44,30,191,28,21
19,29,61,45,30,172,27,22
19,33,68,47,30,181,26,22
18,33,67,44,30,182,24,20
18,28,70,45,29,186,22,20
20,31,80,43,31,171,21,19
20,30,77,44,32,173,22,20
21,27,74,49,32,263,25,21
21,28,73,50,32,285,25,20
21,27,70,47,32,290,25,19
21,26,60,48,32,291,25,21
20,26,81,46,33,295,25,21
19,25,87,38,33,214,25,20
19,26,93,44,37,194,23,20
20,25,95,44,38,183,24,21
20,24,93,40,36,188,24,20
23,25,83,44,32,174,27,20
23,25,76,47,36,173,25,20
22,23,64,42,37,176,26,20
21,26,71,46,36,184,26,20
21,26,70,46,38,204,25,20
19,26,61,43,40,228,22,19
20,28,71,48,38,279,25,20
20,29,72,48,34,294,25,20
22,28,63,45,35,284,23,22
23,31,73,52,34,276,26,24
22,29,81,53,34,282,28,23
21,29,71,47,37,239,29,23
25,28,78,51,42,225,30,24
24,28,78,49,43,238,31,21
23,29,76,43,46,238,31,21
24,30,75,40,47,231,30,21
25,29,74,41,41,223,28,20
23,29,73,41,51,213,28,21
23,28,76,44,52,225,31,22
22,24,73,42,48,207,29,20
22,24,66,43,58,196,29,22
23,24,68,45,65,199,29,22
22,24,63,43,54,188,28,20
21,25,57,41,55,171,25,20
23,25,54,42,62,287,27,22
21,25,52,44,59,326,26,22
21,26,56,50,58,413,29,22
22,26,62,51,61,428,28,22
23,24,69,51,59,452,28,23
21,26,68,53,62,410,27,21
21,28,72,57,57,388,30,21
20,27,74,54,55,290,30,22
20,25,71,52,53,276,31,22
21,31,74,57,59,226,36,22
22,29,77,72,64,206,35,23
23,30,80,74,62,185,36,21
24,30,80,69,64,186,34,22
23,33,86,71,72,173,33,24
22,28,85,72,67,170,28,22
25,29,84,72,60,157,29,23
24,29,83,71,64,153,30,24
23,28,79,73,64,157,29,22
26,27,76,77,59,206,34,21
26,30,67,104,60,229,35,22
24,30,74,110,60,243,36,22
24,34,71,108,60,265,34,24
24,38,80,117,59,271,32,23
22,38,82,122,59,247,28,24
23,37,94,100,67,247,28,24
22,38,88,81,68,245,27,22
21,32,93,85,64,220,26,20
23,30,90,78,69,204,30,22
23,28,88,76,73,191,31,22
23,30,114,111,89,230,32,26
23,31,118,120,86,216,35,25
26,32,117,121,90,224,37,27
25,33,133,125,104,251,34,27
25,38,140,136,102,273,42,27
25,39,123,114,92,246,41,26
28,41,130,108,94,255,39,29
25,40,126,102,90,248,37,27
25,40,114,101,69,251,39,27
26,38,109,73,71,341,38,29
26,35,96,75,70,357,39,27
24,33,85,86,65,421,43,26
26,33,90,90,71,463,43,27
26,32,77,106,80,494,43,35
26,27,71,110,77,433,38,36
24,32,79,112,73,426,40,37
27,34,81,112,84,393,42,39
26,40,85,115,84,370,47,41
25,42,89,96,72,355,47,34
25,42,100,100,73,391,47,32
26,40,96,93,72,429,45,31
23,37,92,86,64,703,38,29
26,32,88,81,60,726,34,27
27,27,89,99,65,796,32,28
26,31,79,93,57,790,33,26
25,30,86,101,54,791,31,25
24,30,84,107,52,608,32,24
22,28,88,113,51,586,29,22
22,31,88,103,57,463,33,24
21,30,85,114,63,448,33,24
22,30,78,109,64,393,33,24
22,34,85,100,65,286,35,24
22,34,82,98,64,249,35,24
24,35,82,91,54,260,35,22
26,33,79,74,49,262,35,22
27,32,80,70,48,268,36,22
26,29,74,78,49,254,33,21
27,31,68,86,55,257,34,25
26,28,85,87,61,341,32,22
24,28,81,88,66,418,33,22
24,29,84,90,65,442,35,22
24,27,84,79,60,444,35,25
23,24,80,59,55,438,34,21
22,21,74,54,50,385,32,22
22,24,77,51,47,374,29,22
21,25,81,48,55,371,27,23
21,27,85,48,57,380,24,21
22,28,85,55,59,390,27,22
22,29,73,61,57,389,31,22
22,27,74,60,57,327,31,22
22,27,61,58,49,304,32,21
24,28,60,60,51,290,35,24
24,30,69,53,50,283,37,24
23,31,65,52,56,274,33,23
25,30,65,59,57,239,33,23
24,29,76,58,57,238,32,26
22,27,70,56,51,226,29,24
23,24,67,56,51,225,26,25
23,22,67,57,49,200,26,25
21,22,82,59,44,209,28,24
22,24,77,59,42,212,27,21
21,25,80,64,46,230,26,21
23,26,84,72,46,264,29,21
25,29,88,73,43,354,32,22
24,33,85,67,45,368,30,20
22,31,100,69,47,358,31,20
22,31,99,66,43,375,31,21
21,30,97,54,41,350,28,22
18,28,100,51,40,253,23,21
21,28,90,54,39,641,23,22
21,29,75,55,40,768,21,23
23,29,76,64,44,947,22,23
22,30,74,70,44,971,22,21
22,31,66,69,44,978,24,22
21,30,70,69,47,782,26,22
20,32,64,71,46,656,29,23
21,33,64,67,47,332,29,21
20,33,69,70,46,240,34,22
22,32,72,74,48,204,33,21
23,32,72,71,45,153,33,22
24,30,71,72,46,187,32,21
20,28,77,73,42,189,31,22
24,30,69,66,41,224,26,22
23,30,65,61,39,250,24,22
22,28,63,62,43,248,24,20
21,28,65,68,43,235,23,22
21,29,59,63,43,238,25,20
19,25,63,60,41,237,24,20
21,26,79,57,43,236,28,20
19,25,82,58,40,256,27,23
22,27,83,45,49,270,27,22
23,27,80,52,48,266,26,22
24,28,80,61,50,243,29,23
24,30,67,62,48,229,27,23
27,29,60,70,46,221,27,19
26,31,61,72,41,231,28,20
25,31,63,67,41,224,28,20
24,30,65,63,43,233,27,19
25,29,72,63,46,241,28,20
24,30,72,56,49,228,26,20
22,27,81,53,46,200,25,21
22,27,81,51,48,200,25,21
21,27,81,53,44,181,24,22
20,27,86,61,44,191,24,22
18,29,85,58,42,217,26,22
21,31,83,62,40,219,25,23
21,30,88,65,40,223,25,23
22,30,92,70,43,253,27,22
22,30,89,64,41,253,27,20
22,29,91,65,40,246,27,21
21,26,84,61,43,232,28,19
21,27,79,61,45,225,28,18
21,28,78,57,44,195,27,18
21,27,74,61,42,155,26,19
21,26,79,63,45,133,26,20
20,26,78,62,41,134,25,21
21,26,76,58,39,132,25,23
20,28,75,57,42,137,26,24
20,28,74,53,43,158,27,23
22,28,73,61,50,173,28,25
23,29,77,65,51,209,30,25
20,26,76,69,49,220,28,24
21,26,78,67,48,288,27,23
23,28,73,67,51,326,26,25
21,28,71,69,47,338,24,22
20,31,78,69,49,323,24,21
21,34,93,77,49,322,25,21
21,33,85,74,46,261,26,22
19,33,85,73,43,207,27,19
21,33,89,70,47,172,35,18
21,32,80,70,46,173,37,17
23,30,62,72,46,157,37,16
23,28,61,76,52,158,39,16
22,30,62,79,53,160,40,18
20,29,57,76,51,172,35,19
22,27,62,79,51,174,32,20
20,29,74,72,53,197,33,20
22,30,82,70,48,200,31,22
23,29,86,67,48,200,30,21
25,31,88,62,45,204,28,22
27,33,87,57,44,197,29,22
27,31,79,46,43,221,27,22
25,30,74,46,43,239,26,22
24,29,79,47,43,254,25,22
21,27,71,50,44,254,25,21
18,24,75,50,46,265,25,21
21,27,76,50,48,229,26,21
22,30,74,49,52,206,28,21
22,31,67,45,53,191,32,21
22,29,66,41,49,167,32,22
23,30,57,49,48,147,34,27
21,29,66,54,44,163,36,26
23,27,65,55,37,169,35,25
24,25,67,55,38,160,32,24
24,26,70,57,39,171,32,26
24,26,71,47,37,169,27,21
24,27,67,48,43,179,28,21
21,27,86,60,46,216,27,21
20,27,87,61,42,226,28,22
20,29,89,60,51,226,25,21
20,26,97,65,59,238,27,21
21,25,95,61,57,212,25,20
22,26,83,57,56,178,26,20
21,25,79,64,60,170,26,20
23,24,98,82,57,179,31,18
22,25,89,77,51,210,30,18
21,28,91,96,53,322,31,18
20,30,93,93,56,322,31,18
23,30,99,89,54,317,31,18
22,30,76,74,49,311,27,18
23,33,82,79,56,291,27,21
23,30,95,58,55,190,25,21
23,30,95,61,56,197,25,21
21,31,98,61,57,205,23,20
22,31,102,60,59,205,23,23
23,32,102,56,56,197,26,22
23,33,92,67,57,185,30,21
23,31,83,68,52,174,28,21
23,28,81,64,52,174,30,24
22,28,76,66,54,188,31,21
23,25,81,65,50,191,31,23
22,21,78,54,44,190,28,23
22,23,82,60,44,207,28,26
20,24,78,66,42,215,28,24
21,24,85,68,38,215,26,25
18,25,87,70,32,211,22,22
19,25,85,79,37,217,23,24
17,28,85,70,35,215,25,21
20,28,82,67,35,216,25,20
21,29,78,66,37,219,25,20
22,29,61,67,38,225,28,21
23,32,68,58,38,237,27,20
23,30,70,59,38,225,28,20
24,30,79,56,37,221,26,20
24,29,77,54,34,205,26,23
22,28,84,66,38,203,25,22
25,27,75,63,35,176,25,23
26,26,84,65,37,197,22,24
24,26,82,62,36,197,23,23
22,28,82,60,36,206,24,22
23,27,80,61,32,211,24,22
20,28,88,69,32,218,27,20
24,29,76,69,32,228,27,20
24,29,70,75,32,240,28,20
25,29,75,79,33,231,29,20
24,31,76,65,34,219,29,19
24,28,65,54,35,212,25,21
21,30,66,55,35,183,28,22
20,29,66,46,37,163,25,21
19,29,55,39,38,181,24,20
21,31,61,46,36,185,24,21
20,38,64,56,37,183,27,21
19,37,71,64,39,177,25,21
19,36,78,68,41,170,29,22
21,40,86,72,41,168,29,23
21,38,84,67,41,177,29,23
23,31,94,62,39,186,27,21
24,28,96,50,35,190,27,21
25,30,92,48,32,222,24,20
24,28,109,58,34,244,26,20
22,27,105,65,35,242,26,21
23,27,96,63,36,241,27,24
23,28,97,64,36,239,25,23
22,30,99,65,36,207,31,22
21,27,73,53,31,166,30,22
22,28,72,48,30,147,29,22
27,39,75,46,33,159,30,20
34,54,69,46,37,153,30,21
35,54,71,46,37,168,27,22
35,55,84,57,41,190,28,20
35,56,84,56,40,197,29,20
31,52,86,58,39,178,29,21
26,38,89,58,37,194,29,21
25,36,85,56,36,187,27,20
26,35,79,48,36,204,26,22
28,33,76,54,38,228,25,20
28,31,79,53,36,238,27,20
26,28,83,52,32,227,26,19
25,31,79,51,31,243,25,19
28,33,84,51,29,240,27,21
26,32,84,45,28,223,26,20
27,35,84,46,32,220,25,22
26,35,77,50,33,224,23,23
26,34,85,52,34,205,25,24
22,31,88,46,36,167,26,22
23,33,89,46,35,174,26,22
22,28,84,42,32,170,27,22
22,33,82,48,33,169,30,22
26,36,79,51,33,163,30,20
28,39,66,51,32,173,28,20
31,48,67,51,36,156,30,19
32,49,63,52,39,170,30,20
33,48,65,49,39,177,30,21
30,45,76,63,41,192,32,23
32,47,75,62,41,208,33,22
27,39,81,61,40,212,31,22
25,37,82,62,37,209,30,21
28,38,78,56,34,246,28,20
28,38,67,37,35,281,27,20
27,41,68,37,34,291,25,21
28,39,79,39,34,292,25,21
29,41,82,37,41,292,26,21
27,41,81,36,49,259,26,22
27,44,83,39,49,218,25,24
23,37,80,38,49,184,26,23
21,36,65,39,47,182,26,25
19,37,71,46,42,183,27,25
18,37,73,43,35,186,26,23
17,31,69,43,35,218,23,18
20,32,75,43,36,223,24,19
23,35,73,43,38,241,25,21
23,33,65,38,39,263,23,21
24,32,64,41,39,307,24,23
26,34,62,38,39,687,25,25
26,38,64,39,38,869,22,23
25,38,70,52,51,1001,22,20
26,37,71,52,50,1026,23,19
24,36,74,54,50,1013,23,18
24,35,72,58,49,797,21,17
23,30,71,58,51,594,25,19
22,31,65,48,40,319,25,20
23,32,72,53,37,197,26,20
23,30,78,51,40,201,27,20
24,34,94,59,44,200,31,22
24,35,92,60,43,190,29,20
26,35,93,58,42,177,31,19
24,33,96,61,44,166,32,18
24,37,95,67,40,147,30,18
23,38,80,64,35,162,29,17
22,36,78,62,33,163,29,20
21,33,88,71,30,174,26,20
23,33,76,64,28,221,24,19
22,30,67,57,28,253,25,18
24,33,64,48,28,235,23,18
28,38,61,47,32,251,23,19
32,43,55,45,33,245,22,19
32,45,62,47,36,214,22,20
33,46,76,48,37,190,24,23
33,42,82,52,39,194,24,25
30,38,85,52,34,184,23,23
26,41,99,48,35,196,23,23
27,40,101,48,32,193,23,22
26,39,92,47,30,204,23,19
24,39,90,48,32,214,24,19
27,41,89,53,33,209,26,19
26,34,66,54,32,204,26,19
26,31,56,52,34,202,27,21
26,33,57,53,34,188,25,22
28,31,54,50,31,176,26,21
25,29,55,48,29,175,24,21
24,30,56,44,35,175,23,20
25,29,54,46,32,166,24,19
28,29,49,45,33,193,25,19
26,32,57,46,33,192,24,19
28,32,62,43,37,201,26,21
28,33,65,41,33,197,28,23
27,35,69,41,35,205,25,22
23,33,71,42,33,184,24,21
20,31,71,39,32,201,24,21
18,32,63,36,28,184,21,20
17,28,60,34,26,225,18,17
18,24,58,33,26,250,21,19
19,24,55,33,27,259,23,18
20,24,53,31,31,262,20,18
21,22,56,39,32,265,23,17
22,23,57,41,34,230,24,18
21,25,58,40,33,205,22,18
21,25,60,41,34,197,20,18
20,27,69,46,33,178,22,17
20,30,75,48,33,178,21,18
21,31,71,48,33,185,23,20
22,29,74,54,34,184,24,19
21,27,90,56,34,180,25,20
23,26,82,53,33,184,25,22
22,21,80,49,31,179,26,22
21,20,80,45,28,175,24,22
20,21,83,45,26,188,23,22
21,24,70,41,24,184,22,22
20,23,70,40,24,188,22,20
20,23,75,40,27,198,19,19
20,25,75,41,31,199,20,17
20,24,65,35,33,184,22,16
20,22,62,33,34,182,22,17
19,25,64,39,33,183,22,18
19,24,52,39,33,191,22,19
19,23,57,39,31,200,23,20
18,24,61,41,30,194,21,21
18,24,59,39,28,199,23,20
17,23,54,34,29,191,21,20
18,25,64,36,25,176,20,19
18,26,61,37,25,169,18,21
18,25,64,38,23,193,18,23
18,27,66,42,24,187,17,24
18,28,71,44,26,186,17,24
17,26,62,41,27,180,17,22
17,26,68,41,30,180,19,23
17,28,81,42,35,163,19,21
18,28,78,42,34,160,20,20
19,25,76,43,35,161,21,21
19,26,84,45,37,158,21,21
19,23,81,45,39,158,21,19
21,26,61,42,33,149,22,18
21,24,60,40,36,153,21,19
23,29,61,35,33,147,21,19
24,28,54,37,32,182,21,19
23,29,50,42,28,205,20,19
22,25,55,41,31,232,20,20
22,28,56,40,27,248,22,19
19,24,53,39,27,251,22,20
20,26,56,43,30,255,24,22
20,23,60,39,29,241,24,21
22,27,88,47,28,219,24,22
22,26,89,49,30,201,23,21
23,27,94,51,32,203,22,21
23,28,95,47,27,176,21,19
25,28,93,45,28,160,20,22
24,25,85,41,30,163,20,20
24,25,91,43,28,170,21,20
23,26,89,40,27,163,21,19
24,24,90,39,30,155,20,20
22,27,94,45,30,158,20,17
21,29,96,45,29,156,20,20
20,27,88,42,30,149,21,20
20,29,86,45,28,162,19,20
18,29,79,44,26,160,21,22
17,27,74,38,27,181,20,24
18,25,48,34,24,175,21,23
18,28,49,32,24,193,20,23
18,29,55,39,28,209,23,25
19,29,52,39,27,258,21,23
22,30,57,44,31,270,23,23
21,31,53,45,31,269,22,23
23,29,54,47,35,264,22,21
23,27,52,39,33,246,23,18
23,29,55,42,34,193,23,18
22,27,51,40,31,155,21,15
22,27,60,50,33,206,23,16
22,29,70,56,28,192,23,21
21,26,65,56,28,210,21,22
22,24,61,52,29,219,22,25
22,25,73,53,29,248,24,25
21,24,67,45,28,215,23,24
20,23,58,33,28,227,25,21
19,24,61,32,29,232,25,21
19,24,65,37,29,232,26,18
19,22,54,38,30,206,27,18
19,22,55,39,28,200,26,20
19,20,66,43,29,192,23,20
20,22,71,44,28,170,21,21
19,24,73,45,33,167,21,20
19,25,69,40,33,160,20,21
20,25,77,41,34,159,19,19
22,28,69,37,32,170,20,17
21,27,62,36,33,160,21,17
22,24,55,31,28,167,19,18
21,23,55,34,25,170,20,17
21,24,45,31,25,165,21,18
21,21,47,33,27,150,20,21
21,21,49,34,25,152,20,21
20,23,61,46,25,162,21,21
19,23,63,45,26,149,19,21
23,22,69,46,29,165,20,22
22,22,64,45,28,177,21,19
21,24,75,48,26,181,21,18
21,23,69,40,27,169,22,18
22,26,73,42,29,185,24,18
19,25,70,44,27,194,23,18
19,26,73,43,30,196,25,19
18,27,65,43,32,207,27,20
18,28,65,42,31,212,26,22
17,26,61,42,31,201,25,22
17,26,58,39,31,186,23,22
20,26,61,45,29,174,21,20
24,22,55,42,31,170,22,19
24,22,55,40,30,154,22,18
24,22,51,38,32,179,22,17
25,20,50,39,31,193,24,19
23,22,43,35,32,186,25,19
21,21,48,35,30,172,21,22
22,21,51,40,34,190,23,21
23,23,60,44,33,172,23,19
20,25,65,46,38,163,22,19
21,25,64,45,37,173,22,19
21,25,70,49,46,189,22,17
22,27,71,51,49,184,21,17
23,25,69,47,49,187,22,18
24,25,78,53,48,200,24,19
25,26,84,61,49,208,27,20
24,30,83,61,46,195,29,20
21,29,79,57,42,203,29,22
23,31,83,58,54,212,30,20
23,32,78,58,55,242,30,20
21,32,73,60,58,249,27,20
21,33,67,59,57,276,27,20
22,32,68,67,59,274,26,18
21,30,60,78,51,281,28,21
21,29,52,75,49,238,25,21
24,31,75,91,53,223,27,21
24,29,71,89,54,194,25,21
24,29,84,103,58,184,29,23
22,31,94,102,67,173,26,21
21,31,105,117,72,192,30,22
18,28,91,108,68,192,30,23
17,28,98,112,72,196,31,24
21,31,86,101,76,203,30,23
21,30,78,97,67,191,29,22
21,34,64,82,63,178,25,21
23,32,67,76,66,174,27,20
24,32,59,73,61,164,28,20
35,29,63,73,49,144,27,19
45,32,70,80,51,145,27,21
50,35,87,80,52,148,29,24
51,36,83,79,50,163,25,24
51,37,88,91,49,172,26,23
43,40,97,85,51,190,31,25
34,37,90,74,47,188,31,23
26,36,80,82,48,182,30,21
26,37,88,81,54,182,35,24
25,36,87,66,66,184,37,24
25,36,80,69,70,190,37,24
26,38,86,71,73,198,39,25
24,33,83,58,78,207,39,25
22,34,100,86,81,221,35,22
22,32,100,87,77,229,31,23
22,31,99,87,73,217,30,21
21,29,97,91,75,226,28,21
21,32,98,91,67,216,30,22
19,29,78,80,58,186,29,22
20,34,75,80,59,169,29,22
18,30,76,80,60,166,26,23
43,31,78,89,61,161,26,24
57,32,81,91,62,190,28,26
58,32,82,79,60,196,27,25
60,29,85,99,55,199,28,25
62,40,93,104,57,201,31,24
49,40,92,100,53,195,30,23
32,41,84,114,71,189,34,20
31,44,86,122,82,189,38,23
26,44,82,121,87,202,42,23
24,38,68,123,88,208,44,24
25,36,66,120,90,213,44,25
24,31,70,106,79,251,42,27
23,28,58,102,69,269,42,25
23,29,68,94,63,261,38,24
21,25,74,89,64,264,35,23
19,25,72,89,61,275,35,23
20,27,79,97,68,246,33,20
21,29,87,91,73,238,33,22
22,31,82,87,70,228,35,22
21,37,82,87,64,217,35,25
22,38,94,86,66,207,35,25
21,37,85,77,59,211,35,26
22,35,82,76,50,223,31,25
21,33,83,75,48,239,29,27
21,27,75,72,48,253,26,23
21,28,71,70,43,240,27,23
21,29,74,75,45,223,28,21
21,28,68,74,49,211,30,20
20,27,71,72,53,215,31,19
22,27,71,69,60,212,34,20
22,25,56,73,66,213,34,21
25,26,61,69,63,210,32,21
25,27,67,79,61,202,32,21
25,28,60,72,60,186,31,22
25,28,72,83,55,173,30,23
25,30,83,85,47,172,29,23
22,29,79,80,47,168,30,23
22,27,74,71,48,166,29,23
22,27,76,78,47,163,27,22
20,28,66,66,46,166,24,20
19,29,57,58,52,183,27,21
19,29,72,66,52,185,26,22
19,29,75,65,52,187,27,22
21,28,73,53,50,189,30,24
21,27,71,50,47,197,28,24
21,23,76,59,42,204,25,23
20,21,60,53,42,218,27,22
21,23,56,62,41,217,26,22
21,28,56,63,43,221,25,22
23,29,77,74,44,214,24,22
23,31,71,66,41,195,27,23
24,34,72,65,42,178,24,22
24,34,80,61,44,182,24,24
23,31,85,64,42,177,23,23
22,30,68,54,43,178,24,24
21,30,76,58,49,171,25,24
21,31,78,62,53,179,31,25
18,29,71,63,48,176,32,22
22,29,65,67,48,180,32,22
21,28,67,65,47,175,33,22
23,29,61,63,40,185,30,20
22,26,61,69,32,185,24,19
25,26,63,69,40,188,22,19
22,27,67,63,39,181,25,19
25,29,75,66,42,175,25,20
22,27,72,70,45,180,28,19
23,26,69,66,47,176,28,20
20,28,68,64,46,166,30,22
22,28,73,68,51,177,29,21
18,26,62,75,48,186,29,21
20,28,66,68,46,184,25,22
19,28,78,64,43,184,27,21
19,27,76,64,43,196,26,19
18,28,70,63,38,203,24,19
20,29,86,58,39,200,25,20
21,28,104,78,43,192,25,20
22,30,100,86,48,188,24,22
23,29,100,84,45,171,22,23
23,30,114,84,45,164,24,24
22,31,104,85,46,162,27,22
23,31,85,68,44,166,30,22
23,30,85,56,38,176,30,20
25,31,88,55,40,180,31,20
24,29,68,54,56,222,35,20
28,25,70,62,61,244,36,22
27,26,69,61,59,241,34,22
27,25,68,62,61,238,36,25
24,24,72,61,60,240,40,24
26,23,75,63,51,215,37,23
22,27,68,47,45,194,36,24
20,26,70,48,50,204,36,24
21,27,76,57,59,222,34,22
21,32,76,65,58,215,31,24
19,32,75,65,56,208,29,23
20,29,85,75,58,211,25,20
21,35,86,80,57,200,28,20
19,37,87,75,48,173,27,20
20,35,84,72,49,194,25,18
21,36,84,72,49,189,25,18
22,36,75,63,46,180,26,18
21,30,77,59,48,206,25,18
23,29,68,59,46,206,25,18
23,28,69,54,47,197,27,18
22,27,76,53,44,200,24,19
23,28,84,66,47,206,26,19
23,30,86,61,49,206,27,20
22,40,104,67,51,220,27,19
22,39,103,71,50,214,27,19
22,42,107,84,59,210,27,20
21,40,102,74,58,209,27,19
21,38,99,77,51,182,24,17
22,29,80,69,48,169,25,18
24,30,79,85,48,174,23,19
23,28,65,70,38,157,24,18
22,33,62,69,39,156,22,20
21,35,67,71,40,177,24,20
21,38,69,81,41,177,25,20
20,35,72,73,41,192,26,20
20,39,73,74,39,195,28,21
21,46,81,73,36,199,27,20
24,62,72,67,41,206,27,22
23,63,68,61,39,213,28,20
22,64,68,51,41,214,27,21
23,63,66,59,40,214,25,21
23,57,58,74,43,218,26,21
20,40,61,80,39,213,26,21
21,35,61,78,38,203,26,22
22,32,54,77,41,198,27,21
21,30,65,71,41,193,28,20
22,28,62,59,38,192,27,20
23,26,61,50,40,177,27,21
23,25,79,76,50,173,25,21
21,34,83,76,45,153,22,21
22,44,88,99,51,161,23,23
23,45,98,98,54,151,26,24
21,46,103,98,53,164,26,23
21,47,95,87,45,161,30,23
22,43,98,89,46,174,31,25
23,31,99,68,44,182,30,24
21,29,94,65,39,178,27,22
23,30,89,70,39,169,28,25
24,29,90,78,40,214,23,23
23,31,91,74,41,233,25,22
22,35,77,68,37,248,25,24
23,36,73,69,38,258,29,24
22,35,82,71,38,258,27,21
20,34,78,58,36,231,29,23
21,33,71,59,32,215,26,25
21,31,82,64,32,192,28,23
21,31,83,70,31,173,26,23
21,30,70,64,32,182,27,23
20,31,67,60,32,181,27,22
20,30,66,63,33,176,27,23
19,29,51,56,32,170,23,21
19,29,48,48,33,187,26,25
21,29,53,67,41,202,25,25
20,29,57,64,41,206,26,24
19,31,65,62,43,204,26,22
24,31,69,64,46,222,30,24
22,29,75,68,47,234,29,21
22,31,78,67,44,219,30,23
22,31,75,69,45,226,28,23
24,31,72,70,43,232,26,24
20,32,70,72,43,221,26,23
23,38,63,68,38,200,26,24
22,41,66,55,36,203,26,22
22,43,70,57,37,180,27,23
24,43,67,54,35,167,27,21
26,44,77,60,37,181,26,22
25,42,77,60,37,176,25,20
27,43,75,58,35,174,26,24
27,41,81,56,32,182,25,23
24,41,95,59,32,191,25,23
22,39,87,56,34,178,28,22
24,37,86,57,34,205,30,25
23,33,91,57,34,206,28,21
22,31,81,53,34,214,30,20
22,29,79,55,35,214,30,21
22,29,80,50,30,395,30,22
19,27,78,47,31,464,28,20
17,26,77,52,29,494,28,20
19,26,83,53,37,651,28,22
18,26,70,47,37,739,28,22
19,23,79,51,38,750,27,20
18,26,102,64,38,723,25,20
22,25,117,65,40,713,24,22
20,25,119,65,33,574,23,20
21,29,125,66,32,452,21,19
22,30,120,65,31,286,21,23
24,28,108,58,30,234,22,23
24,35,82,49,30,188,25,22
25,35,78,52,28,178,25,22
25,33,87,52,27,185,27,23
29,38,87,46,30,198,28,21
30,41,85,40,31,226,30,24
27,37,92,41,29,244,28,24
26,39,92,35,28,262,27,23
27,40,75,34,31,290,27,22
26,39,76,49,27,316,26,22
24,38,83,55,27,310,23,19
26,39,77,54,29,310,23,19
26,41,79,57,33,295,23,21
26,40,83,61,32,269,22,23
23,37,81,50,36,241,23,22
23,34,78,50,37,228,22,20
21,33,84,55,35,216,25,21
19,27,82,54,36,215,25,19
17,25,79,49,36,220,26,16
19,27,88,55,32,200,25,19
24,39,80,47,33,197,27,19
25,40,74,45,35,212,27,20
26,39,74,56,30,227,29,22
26,40,69,55,31,242,28,23
25,39,59,51,33,257,31,24
20,29,59,52,30,257,31,23
19,30,62,54,30,258,28,22
18,30,62,40,30,251,28,21
18,30,64,40,32,236,27,23
19,33,76,41,32,215,25,20
18,30,86,47,33,274,24,20
20,29,85,49,32,254,27,20
19,28,87,54,34,247,27,20
21,28,95,60,31,268,25,18
20,26,88,63,29,280,25,19
20,30,82,64,29,244,26,20
18,30,83,62,32,256,25,20
19,31,80,60,32,254,24,19
18,31,75,57,33,228,26,20
21,30,73,53,33,221,24,19
21,26,71,45,34,196,24,18
21,28,72,42,36,202,23,18
20,28,78,44,35,244,25,19
21,27,79,43,39,282,24,18
18,26,81,49,44,281,25,18
21,29,87,52,43,284,24,19
21,27,88,55,40,296,27,21
22,26,85,50,41,289,25,20
20,24,82,47,36,255,25,21
22,25,98,47,31,287,25,22
21,26,88,43,31,281,27,24
21,25,86,37,31,257,25,22
21,27,97,42,30,248,26,22
22,28,100,43,33,239,25,21
21,27,80,37,36,188,25,21
20,24,78,37,35,207,21,18
22,24,90,39,36,227,26,20
20,24,73,38,35,205,25,19
23,24,74,43,34,212,26,19
22,26,77,47,33,250,26,19
22,27,80,47,35,261,29,19
21,29,76,47,32,245,27,18
22,29,84,46,34,253,27,19
19,27,80,43,33,276,28,20
19,27,75,38,30,386,27,19
19,27,77,43,27,516,27,17
21,27,71,47,32,580,24,22
21,27,66,46,31,593,26,20
22,27,62,44,32,588,24,20
22,29,69,46,33,511,25,22
21,28,64,42,33,361,23,23
17,27,61,38,32,246,23,20
19,26,58,40,36,212,26,21
18,28,60,42,36,201,28,22
18,27,61,46,35,187,30,22
20,28,71,49,35,187,32,24
21,27,70,49,33,209,33,21
20,28,70,49,28,211,32,23
21,26,72,51,31,203,33,23
21,24,63,44,30,197,29,20
21,23,62,43,32,198,29,19
21,24,62,40,33,192,29,21
19,25,74,45,37,210,28,20
20,25,77,43,34,213,28,22
21,27,80,55,35,222,30,23
21,28,80,59,38,233,30,24
21,28,87,66,47,256,30,24
23,26,81,62,46,239,31,23
22,28,76,69,48,235,27,22
23,26,75,63,53,245,27,23
23,26,69,66,50,231,25,22
23,24,70,76,43,184,23,23
22,25,70,78,44,186,21,23
23,24,71,74,46,175,23,24
20,24,80,75,42,172,22,23
22,23,85,70,42,174,24,21
21,25,78,64,41,179,23,22
23,29,92,62,41,184,25,23
20,27,91,60,42,215,27,20
23,28,88,75,44,213,30,22
22,28,82,73,42,211,28,22
24,27,85,62,42,212,31,22
21,23,63,60,45,416,31,20
26,24,67,64,39,473,29,21
24,26,65,50,39,475,28,20
23,27,68,61,42,487,27,19
22,28,62,63,43,489,26,18
24,28,67,74,39,331,25,19
20,30,65,73,41,235,26,22
19,31,64,69,44,229,24,22
22,30,59,62,46,203,28,23
23,32,61,63,45,192,28,27
22,33,66,56,46,195,26,26
25,34,68,62,47,168,27,23
26,30,65,74,49,181,29,26
23,31,70,82,47,194,29,27
24,27,63,80,54,198,29,23
24,31,64,93,60,199,35,26
20,31,69,96,63,222,39,27
21,33,71,87,58,208,37,26
21,33,69,81,60,207,36,28
21,35,74,84,55,210,36,27
22,32,74,77,55,219,30,27
25,31,67,76,58,221,27,26
25,30,70,91,62,213,27,27
25,33,77,97,60,200,26,23
24,32,76,98,63,206,26,27
23,29,84,103,62,193,28,24
22,29,94,99,64,179,28,25
21,32,96,91,63,193,31,24
19,29,99,87,65,195,32,24
20,31,98,84,62,182,32,21
21,35,88,73,65,204,35,21
21,36,77,75,65,205,32,20
24,34,84,69,65,204,28,19
25,35,74,70,69,223,32,21
26,34,74,76,70,224,31,19
25,31,78,80,64,196,28,22
26,31,87,85,57,200,28,23
23,33,86,89,62,205,29,27
24,32,98,93,67,199,27,25
23,32,108,91,67,205,29,27
26,33,105,89,75,210,30,25
24,33,99,103,78,252,32,26
25,32,98,104,73,300,32,22
24,33,90,104,68,309,29,24
24,33,83,109,70,304,32,24
22,31,87,105,63,308,34,24
21,35,87,86,64,271,39,26
20,33,73,80,68,212,41,27
20,33,75,88,70,203,43,28
22,33,77,87,73,217,40,27
21,34,80,87,74,198,36,27
23,30,87,97,77,212,34,25
26,30,92,97,75,211,35,24
26,28,87,88,69,199,32,22
25,28,80,98,64,187,34,23
28,26,71,102,71,187,35,24
27,27,63,92,61,182,32,24
27,31,76,101,63,200,29,23
26,31,81,100,64,211,32,24
25,32,81,81,61,227,31,24
22,32,90,80,50,232,30,22
22,34,88,84,52,220,29,21
20,35,79,75,49,202,31,23
19,35,81,79,43,192,32,25
19,34,81,81,46,180,31,23
21,32,76,81,41,172,30,24
20,30,75,83,43,173,32,23
22,30,78,82,43,172,29,22
24,33,75,78,45,167,26,19
23,32,75,79,42,174,27,18
25,34,77,76,45,185,27,21
25,33,76,65,44,196,29,22
25,31,72,59,44,218,30,23
25,27,76,57,48,234,30,25
25,27,75,55,50,222,30,25
23,26,75,52,48,213,32,23
23,27,80,48,45,203,29,25
24,28,77,59,42,343,28,24
22,28,82,65,36,438,30,23
22,27,82,64,39,460,30,22
24,33,79,69,39,462,28,22
24,32,77,72,41,469,26,20
24,29,77,65,41,363,29,20
25,31,74,61,44,230,25,20
24,31,72,73,45,184,27,21
22,24,73,68,46,190,27,22
22,24,70,65,45,178,29,22
22,25,73,72,49,192,27,23
21,24,60,68,51,186,29,21
21,25,61,60,47,175,28,21
20,28,57,60,46,167,26,19
20,31,71,64,48,175,26,20
19,32,66,64,46,167,28,18
20,32,68,65,41,184,29,18
21,31,89,64,42,223,29,19
23,31,91,81,47,234,32,20
23,30,80,81,46,222,31,20
24,27,85,78,46,233,29,21
25,25,88,77,48,227,27,22
26,28,67,74,46,195,29,22
24,24,69,59,43,176,26,23
23,22,76,71,44,172,25,22
24,26,76,69,47,151,25,22
22,27,81,75,44,139,25,22
21,25,80,75,52,159,21,20
21,25,79,76,49,161,20,21
20,26,72,69,46,176,21,21
20,25,73,69,42,191,20,22
20,28,66,65,42,193,19,22
21,29,64,68,35,198,23,23
21,30,67,66,34,213,25,21
22,29,66,55,39,218,25,22
21,29,66,52,36,203,25,21
21,28,65,49,37,218,26,21
19,27,67,52,38,207,23,22
21,28,66,55,40,194,22,22
23,29,76,59,37,181,21,20
22,27,72,63,38,186,21,22
23,26,73,69,38,167,22,20
24,27,77,62,37,165,24,21
22,28,76,63,40,162,24,21
20,26,72,61,46,176,25,22
20,26,75,79,49,187,25,21
20,30,77,74,52,192,25,21
20,30,79,74,51,183,26,19
21,28,77,69,49,184,26,21
22,29,80,77,45,169,25,23
22,30,79,55,43,162,25,23
21,27,77,51,41,182,27,24
23,29,71,50,44,210,27,23
22,29,69,54,44,227,26,22
23,29,63,48,44,236,28,20
24,29,69,50,43,234,28,20
24,29,66,50,41,243,26,19
21,27,69,56,41,229,24,21
23,26,68,54,45,224,24,21
21,25,68,53,46,212,23,21
21,26,64,57,44,212,28,21
20,26,63,62,45,169,28,21
22,28,63,56,46,160,28,19
21,30,66,62,47,154,28,20
23,29,61,59,44,163,28,21
22,30,54,54,46,170,23,22
23,30,65,56,45,209,25,23
22,27,64,55,41,218,25,22
22,28,65,50,34,224,23,19
21,28,72,55,34,229,26,19
21,26,72,64,32,224,26,18
22,27,73,65,35,223,26,16
23,27,72,65,39,242,26,17
23,28,83,67,40,251,26,18
25,28,83,73,44,252,24,18
24,30,83,65,48,263,24,19
25,30,76,64,45,241,22,20
24,32,79,73,44,225,21,20
23,31,74,74,43,208,21,19
22,33,82,62,39,200,22,19
23,31,83,63,35,189,21,19
19,31,88,60,37,196,24,19
19,28,87,54,37,192,28,20
20,29,92,50,34,195,27,21
18,30,83,53,36,210,26,19
19,31,80,51,32,205,28,19
21,30,73,54,33,209,25,18
21,32,68,47,33,202,22,19
20,31,51,47,39,214,23,18
21,28,48,43,39,200,25,19
19,25,63,48,44,208,26,20
21,25,62,49,42,208,25,20
21,23,63,59,45,222,25,18
22,27,84,62,44,212,25,19
22,28,84,62,43,219,22,20
23,29,77,75,40,216,22,21
21,31,76,74,38,206,22,20
21,35,92,70,35,204,21,21
20,35,78,66,36,199,22,21
20,34,79,70,45,223,23,21
21,34,92,54,45,222,23,19
21,32,93,52,46,218,23,20
20,30,80,51,47,213,25,22
20,26,81,60,46,214,24,21
21,28,89,60,43,188,25,22
20,29,76,60,43,188,26,22
21,29,84,74,51,195,28,22
22,28,86,71,51,193,26,21
21,27,81,66,52,195,27,22
21,25,72,62,49,195,26,21
23,24,76,63,53,200,29,23
22,21,66,51,45,205,30,22
21,20,66,61,42,209,31,23
22,21,68,62,42,226,32,23
23,23,66,63,43,225,32,24
23,24,57,60,41,221,32,24
22,27,59,61,43,222,31,24
24,29,60,53,48,231,30,24
24,29,67,48,47,211,28,23
22,29,75,53,47,217,28,23
21,28,77,67,45,220,24,21
21,27,78,69,43,218,22,22
20,26,75,71,38,200,21,24
20,24,65,75,39,209,22,24
19,28,58,76,40,203,23,25
20,27,56,69,40,194,25,25
19,28,59,64,42,200,25,24
19,27,60,64,48,215,25,22
19,29,61,62,48,220,26,21
21,24,64,67,47,224,24,21
20,26,66,63,46,236,24,19
22,25,64,63,46,266,24,20
24,27,68,68,40,273,26,21
26,25,70,74,38,272,25,22
25,26,65,63,36,263,26,21
26,26,61,62,37,247,25,22
24,26,79,63,34,196,25,22
22,24,70,56,35,182,25,19
20,27,67,55,36,198,28,20
19,28,69,54,35,193,30,20
18,28,70,54,35,204,30,19
19,26,50,58,35,222,29,20
21,27,56,69,35,241,27,20
20,25,64,65,33,245,24,21
22,23,61,68,35,254,21,22
21,24,61,72,33,252,19,23
22,28,79,72,34,244,20,23
19,28,84,59,32,229,18,23
19,28,79,57,30,213,19,22
19,28,78,57,28,215,22,23
22,27,82,56,31,210,25,21
21,25,69,57,37,228,28,22
21,25,70,58,41,211,28,23
22,25,71,62,43,197,30,22
21,24,73,60,48,178,30,20
20,22,74,66,47,181,29,21
20,24,70,57,43,151,27,19
21,23,64,58,40,172,28,21
20,24,72,56,39,179,25,22
22,24,68,57,34,178,23,23
22,26,78,62,36,185,22,23
23,23,75,66,39,195,22,24
21,24,79,65,38,184,21,21
24,24,74,65,37,185,21,21
24,24,81,67,40,208,24,20
23,23,65,57,38,219,26,20
23,26,68,55,40,233,27,20
23,27,58,53,42,243,27,22
20,27,57,51,40,243,27,22
20,29,54,60,39,246,26,23
21,29,62,54,39,232,25,23
20,28,68,56,36,209,24,23
20,27,77,56,35,194,23,22
18,27,76,54,39,182,22,22
17,25,77,40,37,164,22,21
17,28,77,45,37,158,23,22
16,29,79,59,34,169,23,21
20,29,72,61,35,175,25,22
21,29,72,61,30,182,26,20
23,32,74,62,36,185,27,20
24,30,72,68,40,192,25,19
25,28,63,55,42,189,23,19
23,26,66,53,43,187,23,18
22,27,71,59,46,186,24,20
23,24,66,59,43,174,24,21
22,27,66,52,41,185,24,22
21,28,63,57,43,197,26,21
21,30,68,60,41,207,27,21
23,31,63,56,44,229,26,20
23,31,61,57,45,239,28,18
21,31,68,69,47,231,29,19
21,31,85,74,46,227,28,20
20,29,83,71,45,211,27,21
19,26,81,72,41,184,28,20
18,25,88,72,40,174,25,21
21,25,84,63,39,172,25,20
20,27,67,53,39,172,24,19
22,28,67,54,41,174,23,17
24,30,78,57,42,176,22,18
24,31,73,59,40,171,27,19
22,29,67,53,36,171,27,19
22,29,70,59,36,175,27,20
21,28,65,56,34,178,30,22
23,26,54,53,38,189,32,23
23,24,68,49,41,219,30,23
22,25,68,51,44,217,29,22
24,25,70,60,46,208,31,22
24,24,69,64,50,200,29,20
21,31,84,69,54,192,30,20
20,32,70,70,53,168,29,20
21,31,73,77,58,165,29,21
20,29,73,69,56,168,28,23
21,29,77,73,52,175,28,23
23,25,71,67,46,174,25,22
24,25,86,75,44,175,24,22
25,27,84,68,36,178,24,21
25,27,86,65,35,186,23,19
24,29,85,66,38,183,24,19
22,28,87,80,39,177,23,22
21,28,78,74,41,325,24,23
20,27,77,72,40,374,25,24
20,28,75,76,39,395,27,25
20,28,77,74,38,406,25,26
20,29,64,59,39,420,25,23
19,30,70,59,35,318,25,22
19,28,72,65,40,270,24,21
19,30,67,59,42,226,23,21
19,28,72,54,42,212,24,19
20,26,73,68,40,182,25,21
19,27,62,67,42,176,24,20
20,29,63,64,43,158,26,20
19,30,67,64,42,165,25,19
20,31,57,66,40,154,24,20
20,32,58,62,38,157,26,18
20,31,58,60,37,174,25,19
19,29,73,63,33,183,25,18
20,28,75,64,36,182,26,19
20,27,74,59,38,197,27,20
18,25,71,54,37,200,25,20
20,27,84,60,38,198,27,21
20,27,71,54,37,195,24,22
21,27,68,63,34,198,25,21
20,29,73,64,34,190,25,20
21,31,77,62,35,211,26,21
21,29,68,55,33,202,25,20
21,29,72,58,32,194,27,19
21,28,70,53,34,194,25,21
22,25,64,51,35,200,27,22
23,23,65,50,39,176,25,22
23,21,62,56,40,180,24,23
22,26,65,55,42,188,25,24
22,24,67,56,38,182,23,22
21,26,71,58,36,178,21,21
19,24,69,58,33,178,22,21
19,26,66,53,35,180,23,22
21,25,65,54,41,191,22,21
20,26,63,51,43,199,22,20
20,26,65,49,43,195,23,22
20,26,72,48,45,206,24,23
21,25,74,68,47,211,31,23
19,25,69,68,45,200,31,24
19,25,78,68,42,199,31,24
20,25,74,68,43,217,31,23
21,30,68,71,38,208,32,21
20,31,71,57,35,202,24,19
22,28,75,54,36,198,25,17
21,33,78,65,39,199,25,21
21,35,89,71,41,184,23,20
21,36,86,70,44,189,22,20
22,34,91,65,43,185,24,21
21,36,94,68,40,182,24,22
23,32,84,57,39,176,26,21
22,30,74,48,36,179,29,21
24,31,73,48,33,185,29,21
25,35,65,51,31,193,28,20
29,34,66,48,34,199,28,21
27,36,65,47,32,193,27,18
28,38,67,48,33,199,26,21
27,33,70,50,32,201,26,21
26,31,65,44,33,204,26,21
25,38,59,46,37,204,25,20
28,37,67,46,38,220,27,21
27,34,68,46,36,204,25,21
27,37,66,45,36,193,25,20
26,37,79,45,36,175,25,18
25,32,75,40,29,168,28,19
23,33,68,38,28,160,27,18
25,36,77,48,32,167,27,17
25,35,74,50,31,160,27,18
26,36,71,61,34,170,29,18
29,49,87,65,42,194,28,19
29,49,89,66,43,186,29,21
28,46,86,60,40,199,29,22
29,48,89,55,42,214,31,23
27,47,82,46,41,212,29,23
22,30,66,42,32,220,31,21
21,30,66,47,33,238,29,20
20,29,59,52,34,229,29,18
20,27,66,55,36,513,26,20
23,30,73,56,38,795,26,25
23,32,70,61,39,1098,24,25
24,31,79,59,35,1128,25,24
26,33,78,64,36,1129,25,25
28,38,77,65,36,1030,27,23
25,35,75,65,32,838,26,17
25,35,76,60,36,354,24,20
26,38,73,62,41,323,23,22
24,37,76,53,40,346,22,22
22,32,68,51,39,378,18,23
24,32,72,48,38,414,17,25
24,29,80,51,34,440,18,22
22,25,76,48,28,562,21,21
22,24,78,49,28,690,22,20
21,25,81,49,28,736,24,20
19,25,75,58,27,722,27,19
19,28,73,60,26,709,27,20
19,26,74,59,30,599,28,20
19,27,70,59,29,423,29,21
19,25,68,58,29,305,30,20
19,26,68,54,31,281,29,20
19,23,68,53,32,264,27,21
19,22,63,50,30,202,25,22
19,24,57,47,29,193,22,22
18,25,57,46,29,177,21,22
19,26,64,46,28,168,19,21
20,27,56,41,28,166,19,20
20,27,57,41,27,163,21,19
20,27,82,47,29,168,22,21
20,28,84,50,30,188,21,21
20,28,75,45,30,186,22,21
20,27,78,45,29,182,24,21
19,27,81,48,30,193,22,22
20,25,61,43,30,201,23,19
20,24,66,39,28,184,23,17
19,24,77,44,28,187,22,18
18,23,75,45,30,208,22,19
18,24,72,45,27,209,24,16
17,24,73,48,27,219,23,18
19,24,66,46,27,230,23,19
24,22,56,45,29,228,23,18
24,24,57,45,26,209,23,17
25,24,71,45,28,216,21,17
24,25,68,43,28,197,22,18
23,25,74,58,29,193,22,18
21,25,76,54,26,185,21,19
22,27,75,53,28,194,22,19
21,28,60,51,29,177,24,21
21,28,63,50,26,172,22,20
21,27,62,37,26,157,22,20
20,28,66,45,31,179,24,20
21,31,71,50,31,190,25,20
21,30,76,50,31,216,26,19
23,30,77,48,33,220,26,19
23,30,70,45,32,229,26,20
22,29,64,39,30,235,25,18
19,24,55,29,28,221,23,18
20,26,54,34,28,198,24,18
17,27,48,35,28,207,24,19
17,27,54,40,29,197,23,19
18,25,61,46,30,182,24,19
21,28,64,46,31,183,22,19
23,28,64,45,33,178,19,20
24,28,64,46,31,173,18,19
24,28,66,62,31,183,21,19
23,30,54,58,27,180,20,19
23,27,57,61,25,173,19,19
20,25,56,58,24,186,19,19
20,24,57,60,26,192,20,19
20,25,56,68,27,184,18,19
22,25,60,68,27,182,21,20
21,26,61,70,30,196,23,20
22,25,61,71,30,184,24,20
21,26,62,70,31,191,25,20
21,26,64,56,30,204,26,23
20,24,72,64,33,245,24,23
20,27,72,64,31,264,24,22
20,26,70,66,32,263,23,21
19,25,75,66,28,245,22,22
21,24,76,56,31,234,21,20
21,23,73,46,28,190,22,21
23,24,70,43,30,167,21,22
23,28,82,44,29,181,21,21
24,28,77,46,32,194,22,21
23,29,83,45,34,217,21,19
24,32,84,51,33,213,23,18
21,30,87,50,32,209,24,17
19,27,78,48,31,211,22,18
19,28,82,48,30,209,21,19
19,28,74,49,32,212,21,20
19,25,73,43,34,219,20,18
19,27,71,44,39,212,21,21
18,27,68,40,39,196,24,20
17,25,62,39,44,197,25,20
18,29,62,40,42,176,25,21
18,28,58,39,41,173,24,22
17,26,56,38,36,168,25,20
19,24,57,38,41,180,24,20
20,26,69,40,34,182,24,18
20,23,72,42,32,182,23,18
19,24,74,42,33,180,23,18
21,25,74,39,34,180,21,18
22,26,74,41,30,185,22,18
22,26,67,42,31,173,22,20
21,24,56,40,29,169,23,19
21,23,52,36,28,164,23,21
21,22,59,37,29,173,23,21
20,22,71,49,27,162,22,20
21,21,69,44,26,171,22,19
22,21,73,45,25,181,20,19
21,23,78,49,26,208,22,19
20,24,75,53,26,212,23,20
20,24,64,42,30,221,23,20
17,24,68,47,31,227,22,19
20,27,72,49,32,221,24,20
19,25,72,47,32,205,22,18
19,27,73,43,32,189,21,18
20,26,74,43,31,183,21,17
22,25,72,40,32,172,22,18
20,24,73,45,33,167,23,19
21,26,70,45,34,158,22,20
22,24,68,43,34,170,24,19
21,25,74,52,33,166,24,20
20,30,78,60,30,174,24,21
21,31,83,59,32,171,23,20
20,34,92,62,31,176,25,20
19,36,98,67,31,200,24,21
18,37,92,63,42,217,24,21
18,34,86,57,53,216,27,20
18,33,76,54,66,220,27,22
20,30,70,59,72,231,28,25
20,39,62,54,74,238,29,24
22,40,66,54,69,240,30,24
22,40,68,55,62,246,28,24
24,40,76,57,46,340,28,23
23,41,70,51,40,340,27,19
23,36,100,60,37,319,26,18
22,35,98,56,35,301,24,19
21,36,100,55,41,293,25,19
20,65,115,61,55,213,33,21
21,86,118,60,66,200,33,21
25,112,98,59,73,201,34,24
25,115,120,67,76,216,35,24
26,117,119,66,78,227,35,24
26,105,98,61,81,219,30,22
28,109,102,67,88,245,33,32
26,84,99,68,94,269,35,33
28,102,87,69,97,301,37,33
29,104,86,72,97,305,39,34
34,121,99,77,97,347,44,37
34,117,90,80,100,381,45,33
34,122,90,81,99,391,47,33
35,107,79,74,98,378,51,34
35,130,81,79,109,392,51,34
32,119,72,77,111,347,45,33
33,115,82,85,103,343,49,34
33,114,89,92,105,391,48,39
33,137,103,95,110,390,42,36
33,113,102,94,98,381,43,39
32,110,100,99,89,408,47,38
30,102,99,94,83,365,41,34
28,103,104,88,71,311,46,31
26,67,97,99,72,334,46,31
28,76,114,111,88,363,45,35
27,84,122,110,92,335,42,34
30,87,122,108,93,344,52,45
30,85,126,106,98,320,50,46
29,83,120,97,93,281,50,46
27,78,103,92,82,257,52,43
27,70,107,101,78,247,54,44
23,66,108,122,81,236,44,36
24,61,112,125,71,240,40,32
24,60,120,152,74,302,44,31
26,82,158,150,79,289,49,31
25,96,177,148,80,299,48,28
34,109,200,150,84,332,55,30
36,124,204,172,95,422,55,32
39,133,216,155,104,458,55,33
41,128,252,211,112,499,56,33
44,133,249,214,119,550,62,34
40,164,268,228,114,544,57,32
39,203,262,214,106,480,57,30
37,210,256,219,97,409,56,29
34,207,210,165,89,358,51,27
35,203,195,163,104,358,52,32
35,191,140,140,120,343,55,30
34,195,135,137,125,348,64,29
35,220,133,130,124,360,67,29
35,230,110,132,127,367,66,29
31,229,125,122,112,290,64,23
29,214,127,100,98,288,66,25
29,171,133,108,99,292,59,25
29,138,151,140,116,317,63,26
30,146,160,138,119,306,63,27
34,206,194,143,116,307,67,29
33,240,201,147,114,307,62,28
35,256,196,138,112,294,61,27
35,245,179,103,107,252,53,29
37,230,185,141,103,257,64,32
33,174,156,195,107,294,62,34
37,118,177,235,112,295,67,34
34,62,203,252,110,305,67,35
34,85,205,264,96,292,70,35
29,142,197,258,87,277,57,32
31,146,182,221,83,253,51,31
29,144,151,180,79,273,43,30
29,143,153,167,78,264,47,33
29,133,162,151,104,292,44,31
30,67,175,167,103,306,43,29
32,65,174,186,106,276,49,25
31,66,177,197,104,261,49,28
35,69,154,196,107,286,48,26
38,67,141,192,84,254,55,26
38,71,128,193,82,229,60,25
36,71,129,175,78,231,56,25
37,71,143,164,79,228,56,23
32,64,136,199,72,179,61,23
28,63,136,220,76,208,59,35
32,59,125,192,75,229,65,44
32,46,145,197,72,221,65,45
31,45,128,223,77,244,69,46
33,52,141,191,77,274,62,45
33,63,144,171,67,263,61,37
30,190,149,179,67,257,49,27
27,243,127,177,65,288,50,26
27,271,156,146,59,294,43,23
26,276,146,146,65,283,41,23
26,274,136,137,68,274,38,22
22,206,137,125,75,259,42,20
30,141,139,126,80,229,41,28
31,71,116,127,80,203,39,30
30,43,112,112,73,185,43,33
30,35,116,115,71,186,46,34
30,33,116,131,66,208,40,33
25,31,125,120,59,228,37,29
31,30,124,110,55,214,38,30
30,29,120,138,60,213,34,26
30,29,133,139,61,216,29,28
31,34,159,138,56,202,30,30
29,37,153,156,57,178,37,29
23,38,142,162,55,256,34,25
22,40,153,144,52,304,34,26
23,39,141,141,52,374,35,25
23,36,104,127,52,397,35,23
25,36,97,140,59,423,29,22
23,53,99,131,57,377,31,22
27,52,82,123,59,340,31,23
25,54,97,125,58,261,28,20
22,54,104,130,62,227,28,22
22,53,109,102,49,179,32,23
21,38,105,100,52,199,32,24
18,36,104,103,54,209,31,23
19,33,98,108,54,211,32,23
22,30,86,95,51,209,35,22
22,28,78,128,57,222,37,20
22,31,86,144,55,208,37,19
21,32,102,418,49,207,42,21
21,32,94,506,48,211,42,21
19,35,92,517,48,222,41,22
19,36,110,517,52,247,36,23
20,33,106,520,52,275,35,23
23,32,91,344,60,281,29,20
25,32,95,191,60,285,29,21
26,32,98,166,60,288,27,21
29,33,77,138,53,257,27,21
28,31,79,113,55,239,27,24
26,38,94,104,45,230,27,25
25,38,93,106,49,223,26,25
24,37,106,96,50,214,25,25
20,34,108,87,49,205,23,24
23,35,112,100,47,193,25,21
22,28,103,107,50,184,24,23
22,32,99,111,50,185,25,21
22,33,90,123,49,198,26,20
23,35,117,123,49,190,28,22
23,35,116,115,48,211,26,24
23,36,118,103,51,221,27,22
23,38,127,112,55,226,27,23
23,42,122,96,52,222,27,24
25,42,92,102,50,233,28,22
24,44,129,105,50,229,39,22
25,44,124,105,49,235,43,22
24,39,122,92,40,235,43,23
23,36,121,92,42,234,42,23
22,38,125,81,43,228,42,23
20,37,99,68,40,215,33,23
20,42,103,74,40,191,29,24
21,49,103,71,41,174,29,23
24,49,112,68,40,161,29,22
22,53,110,71,43,162,28,20
24,57,106,78,42,157,28,20
24,54,114,71,43,174,27,20
25,52,107,64,47,176,27,21
23,59,99,68,48,336,28,21
23,56,95,74,47,472,30,20
24,57,84,67,49,583,31,21
23,101,71,78,48,732,31,19
22,132,70,85,57,774,34,19
23,138,75,95,59,726,43,21
22,140,77,93,59,647,42,23
20,141,75,104,59,555,41,23
20,124,68,97,56,347,41,23
19,98,79,93,48,246,38,22
19,92,92,79,46,236,32,21
20,90,101,86,52,254,32,21
22,90,113,81,54,247,34,19
23,76,119,89,53,245,34,20
23,112,123,95,49,269,38,20
23,111,113,107,52,302,37,25
27,112,108,97,45,293,37,25
29,124,114,124,58,309,39,29
30,132,121,119,60,294,41,29
31,101,115,125,62,299,41,31
32,106,126,125,67,280,47,28
30,121,130,132,73,312,47,28
29,114,113,103,65,300,45,27
28,110,128,109,66,318,46,30
28,108,132,105,67,425,46,30
28,96,119,94,59,450,43,30
28,89,116,87,52,434,42,30
29,89,138,90,52,438,43,32
28,92,130,87,52,442,40,29
28,88,123,77,51,343,40,27
28,102,137,81,52,302,36,27
30,107,146,81,54,310,38,27
26,103,147,87,50,321,44,24
28,100,157,97,51,315,44,26
30,101,159,110,49,344,47,28
28,88,153,118,48,348,50,30
31,82,157,124,45,366,50,28
34,84,138,123,47,367,42,28
34,83,116,120,46,366,42,27
34,88,113,114,44,329,38,24
36,90,113,115,53,332,35,21
34,84,102,110,58,311,37,23
34,80,124,105,55,303,36,23
33,76,127,93,57,315,38,24
33,69,129,97,58,320,38,27
34,70,128,111,51,307,38,26
31,66,124,116,46,289,34,26
31,67,108,117,47,267,35,25
31,82,114,130,48,247,37,26
38,88,136,138,56,245,34,27
35,85,136,115,59,269,43,26
34,81,139,109,60,296,45,25
32,78,145,114,64,709,46,25
32,69,149,97,61,1018,45,23
26,63,127,74,53,1025,48,20
27,65,124,81,47,1030,41,21
27,63,117,78,47,1025,39,22
27,61,103,78,40,802,37,23
28,52,88,78,41,332,35,21
26,45,87,80,43,468,29,22
28,48,121,88,53,500,32,23
28,51,128,105,50,536,30,21
30,50,131,98,51,615,30,20
27,43,135,100,51,638,29,22
28,48,144,106,51,525,30,24
26,42,120,90,43,461,27,22
25,38,120,72,42,411,26,23
25,39,118,78,40,263,31,25
26,47,122,79,35,176,30,25
24,46,119,84,34,179,34,25
26,50,122,86,30,194,35,26
24,50,124,87,35,203,34,26
23,49,117,81,39,210,32,25
20,41,105,76,41,209,33,25
22,40,99,66,41,190,29,22
20,38,115,70,45,202,31,20
21,39,112,64,42,232,31,20
23,40,130,68,39,240,29,22
24,47,131,77,40,241,33,21
23,49,131,72,39,241,31,21
23,48,132,100,37,234,29,21
22,45,126,103,37,196,28,22
19,45,116,99,39,235,30,19
20,39,115,93,36,233,25,19
20,33,118,98,39,240,26,19
20,31,94,63,37,237,26,19
22,34,95,61,40,250,26,19
22,32,85,66,38,195,27,17
22,34,91,69,38,199,27,17
21,33,80,62,32,187,29,16
22,33,81,62,35,178,30,16
21,28,78,58,32,166,30,16
21,29,93,55,33,193,28,17
21,26,87,52,35,192,26,19
22,27,95,49,35,212,25,21
20,26,88,55,31,222,23,20
21,28,104,61,33,224,25,20
21,29,94,55,32,232,25,21
20,29,88,56,30,238,26,20
19,34,87,66,33,222,28,19
19,34,88,65,33,259,27,22
20,35,72,78,34,251,31,22
19,34,68,80,33,238,29,22
21,35,87,83,36,241,30,21
21,29,80,75,35,235,30,21
22,30,80,71,36,227,31,19
22,27,83,53,35,240,28,20
21,29,86,53,37,223,27,21
21,29,67,48,36,219,25,21
21,32,71,62,35,222,25,23
20,32,71,63,36,190,26,23
20,32,72,61,33,199,25,22
21,32,90,64,33,200,26,21
22,33,91,69,32,186,28,22
21,31,97,66,33,185,27,21
24,31,103,67,33,185,26,21
23,31,102,71,37,168,27,20
22,30,92,70,36,176,26,21
22,28,99,70,37,195,26,21
23,29,91,62,37,201,25,20
21,29,83,62,37,206,24,20
23,31,79,60,35,208,22,20
22,31,70,71,35,202,23,19
21,30,68,70,34,193,23,20
19,31,70,74,37,207,24,21
18,31,76,75,37,220,23,23
17,29,85,73,40,212,25,23
17,29,88,60,40,208,26,25
17,28,84,55,39,280,27,25
18,26,86,58,39,343,27,25
20,29,82,55,37,351,28,22
20,29,75,56,35,402,27,23
21,28,72,55,35,423,25,20
22,30,79,60,37,382,24,20
22,31,92,62,42,341,25,19
25,30,88,65,43,334,26,20
25,29,99,63,42,305,25,19
24,29,100,64,43,352,27,19
24,28,95,63,44,624,29,18
23,27,78,56,36,654,26,20
22,29,93,60,38,646,28,20
21,28,82,59,37,635,29,19
23,29,91,60,37,598,28,20
23,29,91,59,36,303,27,20
24,30,91,56,37,193,29,20
23,26,81,50,37,206,26,20
22,26,81,51,36,195,27,21
22,25,68,50,38,193,27,21
22,27,69,46,38,200,28,22
21,28,76,52,41,206,27,22
21,30,72,56,40,189,29,24
22,30,73,56,40,186,28,22
21,32,76,55,41,183,30,22
20,29,76,56,37,180,28,21
21,27,87,51,32,188,26,22
19,27,86,56,31,190,26,19
19,30,104,59,30,190,25,19
19,30,103,59,28,202,25,17
20,30,101,63,31,206,28,18
19,30,90,63,33,191,28,16
23,30,93,54,33,195,27,18
23,28,75,50,35,203,25,20
23,28,76,59,36,203,27,20
26,32,78,60,33,185,25,20
27,34,87,61,30,179,25,19
23,35,86,60,31,175,25,19
24,37,88,66,31,162,29,18
24,38,94,61,30,159,26,18
23,36,95,56,35,173,25,17
23,34,88,54,36,185,23,19
23,35,89,57,38,201,25,20
23,31,89,53,35,203,23,20
21,27,88,58,38,207,22,21
19,26,83,62,39,221,24,21
22,28,86,68,39,218,24,21
23,26,93,68,39,203,23,18
23,28,96,70,45,216,26,21
24,29,92,65,41,206,27,23
24,30,102,62,37,185,26,25
23,29,104,60,38,187,26,24
21,29,97,55,36,188,25,25
19,28,90,50,30,176,22,24
21,29,97,65,34,181,24,21
20,29,93,64,31,177,22,21
18,28,94,62,30,183,22,22
21,28,112,69,29,198,21,21
22,28,112,71,31,190,22,20
21,28,108,56,27,182,21,20
22,28,106,57,27,176,22,19
23,28,97,58,30,163,21,17
22,28,92,52,28,140,24,19
21,29,94,53,30,162,22,18
22,30,103,54,33,176,24,18
21,32,115,63,34,212,25,19
22,35,119,66,33,221,27,21
22,36,114,69,39,234,28,20
23,35,112,69,38,236,28,20
22,33,99,68,35,227,28,20
24,33,96,64,36,200,25,20
22,30,93,67,36,189,27,19
22,28,85,64,32,177,24,19
19,29,90,63,33,160,26,22
19,28,93,64,37,166,26,24
18,25,79,58,35,166,30,25
20,26,81,46,39,179,31,26
20,31,101,54,43,186,33,27
21,32,95,53,41,203,31,24
21,33,96,60,40,199,30,24
19,34,112,81,45,216,29,22
21,32,109,83,41,222,27,21
21,27,96,82,35,225,25,20
20,25,103,85,39,224,25,19
22,25,113,79,43,237,24,18
23,25,102,65,39,243,22,19
21,26,106,65,39,245,22,20
20,29,102,58,37,245,23,19
21,27,97,54,36,236,24,20
20,27,102,66,29,225,25,20
19,28,95,58,29,213,25,21
18,28,92,55,30,202,26,20
16,28,99,69,31,190,25,21
17,29,97,70,30,194,24,20
20,27,73,59,28,185,27,21
21,31,96,66,30,174,27,20
23,31,93,76,31,167,26,20
22,28,92,66,31,167,25,20
23,27,95,66,33,173,26,20
20,29,101,67,33,179,24,21
19,23,84,61,34,208,27,20
19,26,83,57,34,224,28,21
20,27,73,54,33,235,31,20
20,28,78,54,33,240,31,20
20,28,73,61,36,266,30,19
21,31,81,67,34,258,29,19
19,30,86,62,32,253,28,19
20,29,103,71,33,243,25,20
20,30,101,72,31,221,26,21
20,31,100,72,30,192,26,20
20,31,103,77,33,175,28,21
19,31,98,74,35,187,31,21
20,30,80,70,35,192,30,20
23,35,80,69,35,197,30,19
27,39,87,68,34,191,33,20
29,43,91,63,32,195,28,20
30,43,93,65,28,186,25,19
31,45,95,68,29,181,27,19
27,42,101,66,33,199,27,20
23,36,98,58,37,221,27,21
22,31,83,61,44,232,28,21
22,31,79,62,47,239,33,22
22,33,84,57,49,254,33,21
23,31,70,56,48,253,35,22
26,32,67,65,44,242,34,21
27,35,67,60,36,227,36,21
28,40,66,57,33,213,36,23
27,48,64,58,38,212,36,23
27,50,75,62,41,210,34,23
25,50,73,71,51,217,35,23
25,49,72,68,56,219,34,24
22,43,82,74,58,216,33,22
23,33,79,74,57,203,32,22
22,34,67,74,58,201,32,23
22,39,64,61,58,197,28,21
21,42,70,64,57,198,26,22
21,44,64,63,56,209,26,23
20,43,64,67,53,214,28,25
21,41,88,78,53,214,31,23
19,35,92,75,49,283,34,25
19,30,87,72,47,279,36,23
19,28,83,73,51,287,36,25
20,28,98,82,66,325,34,24
20,29,85,69,64,333,33,28
20,29,82,70,63,277,33,26
23,30,84,82,65,300,34,28
22,30,87,80,67,295,33,25
23,28,68,73,54,253,33,25
25,30,81,98,56,240,32,24
25,33,81,98,62,230,30,23
22,37,78,88,61,197,25,21
23,39,80,91,57,193,32,26
23,50,82,99,58,183,33,26
21,51,65,79,58,170,32,26
23,52,75,82,59,185,37,27
27,57,74,92,64,197,39,28
29,57,71,88,66,187,34,26
28,49,78,82,65,207,35,25
28,46,79,84,63,222,34,23
27,43,73,88,65,226,31,23
23,34,81,89,63,228,32,23
22,32,77,89,61,245,32,25
26,33,67,98,60,238,32,27
25,33,62,92,61,226,32,28
26,35,67,97,60,210,34,28
26,31,61,90,56,194,32,27
25,32,63,96,51,171,28,24
22,30,66,87,65,200,30,21
22,29,72,90,63,213,35,22
24,28,81,100,66,223,34,22
26,26,79,101,78,242,35,23
25,26,82,99,83,240,37,23
26,26,78,105,78,222,35,23
27,28,83,105,82,211,33,22
23,28,67,85,75,197,32,20
23,30,74,82,64,191,33,19
23,29,85,92,60,198,31,21
24,30,92,76,54,194,31,21
23,28,86,69,48,200,31,22
23,27,86,72,41,202,31,23
22,28,83,90,43,196,31,24
24,28,76,75,46,217,32,24
22,33,82,82,44,203,32,25
19,32,84,84,47,196,30,24
22,33,86,104,57,206,32,23
23,30,88,88,51,201,31,23
23,31,84,89,47,175,28,22
23,26,74,90,52,185,30,21
23,25,76,92,51,193,31,21
23,26,78,69,44,187,28,21
21,29,74,68,47,186,27,21
21,27,89,69,48,189,29,23
23,26,84,62,44,193,31,22
25,28,83,71,42,202,31,22
23,27,80,76,43,195,31,23
23,26,82,81,44,209,33,22
23,23,64,77,43,215,32,18
21,24,71,76,42,212,29,19
21,23,65,78,49,219,27,20
21,24,70,69,47,223,27,20
21,23,77,62,45,206,29,22
19,26,83,61,49,206,28,22
21,29,80,65,52,202,30,23
22,27,75,53,47,184,31,21
22,27,77,60,47,187,30,21
23,27,69,66,47,193,28,19
22,26,68,69,44,180,27,21
21,25,64,69,44,172,25,21
19,25,69,72,42,158,23,21
21,27,65,70,43,162,22,20
19,27,60,68,42,165,25,22
21,28,61,67,40,180,26,21
22,27,66,65,38,196,29,20
21,29,71,62,42,214,30,21
21,28,71,54,40,224,32,22
24,28,76,70,43,238,33,20
24,26,71,72,44,246,32,20
22,27,78,74,44,252,31,22
27,27,80,90,43,250,30,21
26,26,89,94,44,240,29,21
24,27,87,81,42,218,24,22
23,28,88,89,41,200,24,21
24,29,83,84,39,181,24,20
20,27,75,67,41,174,25,20
21,29,81,64,42,174,27,19
21,28,84,74,40,178,27,18
22,28,84,74,43,187,27,20
21,25,93,81,43,188,26,22
21,31,102,84,40,199,24,22
20,29,86,83,37,189,23,21
21,32,93,83,41,190,26,23
20,31,91,72,40,186,25,21
21,30,80,67,43,193,26,20
22,25,76,58,40,176,27,19
21,26,83,62,41,201,29,19
19,24,74,49,41,216,28,19
20,24,74,70,38,210,27,19
21,26,82,76,34,203,28,18
23,26,76,75,35,202,27,19
23,24,70,73,37,189,25,19
24,25,73,73,37,179,26,20
23,27,78,54,38,185,28,22
26,28,70,46,38,177,27,22
22,27,69,53,41,176,26,21
22,27,69,51,39,171,25,22
23,28,69,52,37,164,23,20
25,27,64,52,41,155,23,21
21,27,64,51,46,182,22,21
21,27,63,44,43,179,25,21
23,26,65,55,43,191,25,19
21,23,57,53,42,198,27,19
21,26,58,56,37,216,26,19
20,24,52,58,36,199,27,19
21,28,59,58,38,212,25,21
20,29,73,48,38,214,25,21
20,32,79,57,40,222,24,20
20,29,81,58,44,211,23,20
20,30,84,57,41,218,22,19
20,28,81,57,46,205,22,17
21,27,68,61,46,192,23,18
22,26,70,54,47,172,23,19
23,29,71,55,43,174,23,17
25,29,73,67,42,165,23,18
26,29,77,69,38,183,25,20
26,29,79,71,36,194,26,20
25,32,92,75,38,197,25,22
25,32,96,74,39,190,26,25
23,33,96,80,44,198,26,24
22,34,93,79,44,184,24,24
22,34,99,75,47,169,24,23
22,32,88,68,44,171,22,21
21,30,79,69,42,185,23,21
22,29,79,59,35,183,22,21
22,29,78,63,35,195,23,22
22,29,71,67,36,197,23,21
22,28,66,70,38,184,25,22
22,28,75,68,39,183,26,21
22,26,73,63,40,186,27,20
22,27,71,66,39,171,26,19
21,25,67,62,36,173,29,21
20,25,67,66,36,179,27,21
22,23,57,65,38,162,26,20
22,27,59,64,38,150,25,24
22,25,64,54,41,172,26,24
22,27,70,54,41,169,21,22
22,26,73,48,42,169,20,23
21,26,83,46,40,175,23,23
21,25,85,48,40,183,25,21
21,27,90,52,40,169,26,22
22,25,83,50,47,176,29,22
23,26,82,53,48,192,31,22
24,27,74,57,47,201,31,22
22,26,68,50,50,197,30,21
24,25,62,49,60,202,30,20
21,26,68,49,55,200,29,21
21,27,71,48,53,196,26,21
21,26,67,65,57,187,26,21
23,27,73,66,63,195,27,22
20,25,72,70,53,194,26,22
22,25,73,69,50,204,25,22
21,26,76,69,55,207,27,21
22,29,80,67,50,205,26,21
20,29,72,70,38,198,24,19
22,29,78,67,43,209,23,20
23,29,72,68,44,194,22,20
24,28,71,68,38,179,20,20
23,28,84,62,41,190,19,20
23,31,93,60,46,199,23,20
22,31,93,60,40,190,25,19
20,30,101,64,39,196,24,18
18,30,97,64,38,214,25,18
18,29,85,65,36,209,26,17
21,28,87,63,32,200,23,18
21,26,80,61,33,207,24,19
22,26,71,62,37,214,24,20
24,29,88,67,38,195,26,22
26,28,85,56,37,187,26,23
27,24,76,68,42,191,27,23
27,25,79,66,42,178,26,24
27,29,89,66,41,165,25,22
26,25,69,63,42,167,28,23
24,27,77,64,47,173,27,23
21,27,79,52,41,171,28,21
20,27,78,62,39,172,26,18
19,26,64,57,38,179,28,22
18,28,74,66,38,193,24,20
19,27,69,68,36,215,26,20
20,27,70,70,36,224,24,20
21,31,75,64,38,226,27,22
21,29,79,69,42,245,26,21
21,28,70,57,41,243,29,21
20,29,83,60,38,243,28,19
19,31,81,57,39,226,28,21
18,26,78,73,43,229,27,18
19,27,79,73,39,209,26,19
20,28,88,71,39,198,23,19
20,28,71,68,41,170,23,20
21,27,70,72,40,185,21,20
22,28,76,73,38,180,22,21
21,26,73,68,39,192,22,23
21,25,70,73,37,205,22,23
21,25,77,79,36,213,21,23
22,25,78,83,38,228,24,22
22,26,70,68,37,236,21,23
23,26,69,74,38,224,24,21
23,26,61,69,40,233,25,21
24,26,59,61,38,247,25,21
23,25,63,51,34,254,26,21
23,23,65,66,39,262,27,21
21,23,64,60,38,263,27,23
21,22,67,62,41,257,26,21
20,21,63,62,42,243,27,20
21,22,71,65,46,226,25,21
20,23,69,46,42,207,24,19
18,25,71,49,42,210,24,19
18,25,67,59,42,218,25,19
18,27,70,61,44,224,26,20
20,25,57,57,42,214,26,21
21,24,60,60,43,218,27,20
22,22,65,59,43,211,28,19
21,23,68,46,37,196,27,20
21,23,65,47,35,199,26,18
20,26,79,50,35,217,25,20
20,27,82,53,33,213,24,20
19,28,85,54,35,224,23,22
22,27,87,51,35,245,23,20
22,27,91,55,37,251,23,21
21,26,80,56,37,244,22,20
22,29,93,57,41,253,23,19
23,29,92,55,42,239,22,18
21,29,90,59,45,214,22,20
21,29,105,55,42,186,24,21
21,30,105,60,41,182,26,21
19,29,90,57,38,168,27,23
18,31,91,61,41,181,26,23
17,32,90,59,39,173,29,22
17,32,71,56,39,171,28,20
22,31,82,49,39,158,27,21
23,29,87,46,44,453,26,22
24,26,83,44,39,575,26,23
24,27,94,46,40,623,23,23
24,25,91,50,41,680,25,24
21,27,83,55,40,700,25,24
21,31,81,65,45,569,25,22
22,32,78,68,47,443,28,22
21,30,66,72,47,393,27,24
21,32,69,75,47,315,29,23
20,31,65,69,51,289,27,22
21,31,59,72,50,263,27,23
20,30,60,73,49,265,25,24
19,33,72,78,48,257,25,22
20,32,69,76,47,227,22,22
20,34,88,85,42,205,22,22
21,33,94,75,34,220,21,20
20,34,95,75,36,220,20,17
21,32,90,76,38,203,21,21
21,30,103,77,39,199,21,20
22,29,89,66,41,190,22,20
23,27,82,67,43,180,22,20
21,26,88,62,39,181,22,21
21,26,81,46,37,185,19,20
22,26,67,39,39,207,21,20
21,30,77,49,41,232,24,20
21,32,77,46,39,266,25,21
22,29,76,48,41,279,27,21
22,33,81,47,42,275,28,21
21,37,80,47,37,257,29,21
20,33,93,42,36,239,28,21
19,33,95,48,31,193,29,19
18,35,92,45,31,175,26,20
18,34,99,55,30,174,27,19
19,31,102,62,33,188,26,19
19,30,84,59,30,184,24,18
21,31,82,58,34,191,25,20
21,29,86,58,32,184,26,22
23,29,77,50,32,180,26,23
24,30,76,47,34,173,25,24
22,32,75,60,39,179,25,25
22,36,76,61,39,170,28,24
23,39,72,69,39,176,27,22
21,39,67,72,38,177,29,22
20,38,64,68,35,183,29,21
21,39,70,61,31,193,30,20
19,37,72,64,31,201,26,19
18,37,73,56,33,214,25,18
19,38,83,52,34,217,24,20
23,42,89,54,33,206,26,19
25,44,84,54,31,204,22,21
24,44,89,48,31,201,24,19
26,43,90,49,30,182,28,20
24,43,78,49,31,173,28,18
21,37,77,52,33,168,26,19
20,34,88,53,33,157,27,20
21,35,83,50,32,158,27,22
19,33,80,50,32,175,23,22
21,36,83,51,33,208,25,23
21,38,76,53,32,221,26,24
19,38,61,47,33,225,25,23
21,41,62,55,32,230,24,23
23,40,62,52,31,221,24,23
23,38,72,54,31,211,24,24
23,39,79,50,31,196,24,21
23,43,90,50,30,192,24,21
21,37,88,45,31,187,24,19
21,37,90,55,32,183,26,20
20,37,82,51,29,158,23,18
19,36,78,57,28,325,22,19
20,33,70,62,31,698,23,19
22,35,78,62,31,1013,27,19
20,37,82,55,32,1067,26,18
20,39,82,54,33,1074,26,17
22,37,81,46,36,1044,30,19
22,35,81,40,33,842,30,21
20,31,75,36,31,409,27,20
20,28,64,36,31,233,28,20
23,28,80,37,32,208,28,22
21,26,83,40,29,171,25,20
20,25,79,40,29,172,25,19
22,28,78,45,29,182,24,20
22,30,88,49,27,203,22,20
18,27,79,48,28,202,22,18
20,28,73,46,30,211,25,20
20,27,78,50,30,207,24,19
18,31,78,49,32,202,24,21
17,29,68,45,31,179,25,20
18,30,70,43,32,192,25,22
17,31,75,44,32,196,22,19
17,32,75,41,32,217,23,19
18,27,76,37,32,235,22,18
19,30,76,39,33,247,24,18
19,31,74,38,32,250,23,17
21,31,78,36,32,236,22,18
21,31,78,34,33,226,20,19
21,33,75,34,30,211,21,19
21,35,78,42,30,211,19,21
22,34,86,51,30,186,19,20
20,34,82,51,29,192,20,19
22,34,78,49,29,191,22,20
23,33,92,53,31,186,25,19
21,28,92,44,31,166,24,18
22,30,95,43,33,218,24,19
21,29,93,42,31,219,25,18
22,30,106,50,30,222,25,18
21,30,93,46,27,227,22,19
23,35,93,51,34,236,26,21
21,34,89,48,31,192,26,21
23,33,88,51,32,185,27,22
21,33,72,45,33,168,27,21
20,33,71,48,35,156,28,20
19,33,86,48,29,148,25,20
20,31,76,42,30,157,26,19
20,32,86,38,30,164,25,20
22,33,89,39,31,177,24,20
23,31,95,39,31,185,25,20
23,27,82,35,31,190,25,20
23,28,82,37,32,199,25,20
23,27,76,38,32,200,27,19
20,27,74,43,36,197,28,20
20,29,69,42,35,214,28,21
23,29,74,46,34,210,27,19
23,31,83,53,36,207,26,20
22,31,82,54,36,200,23,21
24,32,83,51,33,199,23,19
22,31,96,55,34,170,22,17
20,31,94,49,34,177,24,21
18,27,88,43,30,153,28,21
21,28,97,43,31,196,27,21
20,26,96,43,32,195,27,21
21,25,81,36,30,199,28,23
20,24,107,47,30,201,26,19
21,28,113,47,29,227,23,19
19,26,101,46,32,197,26,20
21,26,100,44,31,198,26,21
21,26,101,48,31,209,24,21
20,26,70,44,33,224,25,21
21,29,61,45,34,218,24,23
21,30,60,44,30,220,21,23
18,29,75,54,31,255,22,24
18,29,69,50,31,258,22,22
20,30,75,48,30,245,21,23
18,26,83,52,31,240,20,21
20,24,83,53,33,240,22,22
21,24,72,46,32,197,22,20
23,30,103,62,33,175,24,20
24,29,100,62,35,177,24,19
25,29,95,59,36,182,24,19
24,29,99,62,37,175,22,19
23,31,104,63,36,176,23,19
21,27,78,50,36,184,25,21
21,34,85,55,35,183,25,22
20,34,81,55,31,194,26,21
20,34,80,52,30,205,25,20
20,33,77,50,29,245,26,21
21,35,83,55,32,280,25,22
19,29,80,50,34,286,25,21
19,29,84,52,35,277,24,21
21,30,89,55,33,269,27,21
21,31,85,56,35,234,29,20
20,29,78,50,31,190,26,17
22,30,80,47,30,203,26,18
23,30,79,46,30,187,27,18
24,29,78,43,33,183,24,19
25,28,88,42,34,175,22,18
25,29,89,43,34,175,23,19
24,30,85,46,33,161,23,19
23,32,90,42,33,178,22,20
23,32,88,45,34,181,24,19
21,31,84,48,35,183,24,21
22,29,85,47,33,190,24,20
23,29,88,47,32,176,25,19
22,27,78,45,31,169,26,20
21,29,75,48,29,160,24,19
21,29,65,49,29,195,24,19
20,29,61,52,32,209,24,20
21,28,53,55,31,218,23,20
20,29,69,60,38,249,25,19
20,27,69,54,39,265,26,20
20,28,88,52,37,252,25,20
23,36,90,52,38,243,25,19
21,34,92,45,39,246,24,22
22,32,95,44,34,222,23,23
21,34,94,48,33,221,23,23
21,34,82,45,34,242,22,23
18,24,78,45,32,237,23,23
19,28,79,48,33,243,23,21
18,28,64,44,32,228,24,21
18,28,81,47,32,230,23,21
18,31,83,49,30,208,24,21
19,36,91,49,27,204,24,20
20,34,90,48,28,194,25,20
20,35,92,49,28,208,25,20
22,33,75,42,27,196,24,23
22,31,68,40,31,216,24,22
21,26,59,37,33,230,25,24
21,30,66,37,33,224,24,25
21,30,70,34,36,228,24,25
20,31,74,40,35,232,27,23
19,29,74,43,31,207,25,23
21,29,76,44,30,199,25,21
20,28,74,45,31,200,26,22
20,30,82,46,32,207,24,22
21,29,79,43,32,198,22,23
21,31,92,41,35,224,23,22
20,30,90,39,36,218,22,24
19,30,83,41,37,229,23,20
19,30,70,50,35,211,24,20
17,31,72,51,36,214,25,19
18,28,60,52,37,218,26,20
18,30,60,54,36,230,25,19
19,33,65,50,33,218,23,21
20,32,69,42,36,236,23,20
21,32,74,40,34,247,22,21
21,36,76,40,34,243,22,21
22,36,81,42,38,243,24,22
23,32,85,42,38,252,24,20
23,30,89,48,35,236,23,20
21,32,81,47,36,229,23,19
21,31,82,45,33,206,21,20
20,28,80,40,31,203,22,18
20,27,77,44,32,197,21,19
20,30,75,38,35,194,24,21
22,29,76,39,33,185,23,23
23,27,79,44,34,196,23,21
22,27,76,49,29,223,22,20
24,30,83,55,29,258,23,21
25,28,80,56,25,265,23,19
25,27,83,57,25,281,24,16
24,32,93,57,25,275,25,18
24,31,97,56,25,260,26,18
21,31,101,52,23,228,25,17
19,30,106,54,24,242,24,17
18,32,117,55,27,226,25,20
19,29,105,53,26,227,24,18
20,33,106,57,35,219,24,19
19,31,101,57,35,220,26,19
21,36,99,54,35,193,26,21
20,36,84,50,33,204,27,19
22,41,83,46,35,207,27,19
22,38,90,46,28,209,27,19
23,39,87,41,30,192,26,19
22,36,81,49,30,200,25,18
23,37,81,51,31,185,24,19
21,32,81,51,30,184,23,22
20,33,72,46,29,179,23,22
19,32,73,46,29,188,24,24
20,31,77,42,30,196,28,25
21,30,88,42,27,211,27,24
20,31,89,42,32,217,27,24
21,34,85,40,32,207,25,23
20,34,82,43,31,232,25,22
19,35,83,47,32,281,21,22
18,34,78,48,32,300,21,21
17,31,79,49,26,306,23,19
18,27,86,49,29,311,27,20
18,28,82,45,30,289,26,19
20,32,89,46,29,238,27,19
21,34,83,45,30,197,28,19
23,33,87,44,33,175,28,19
22,36,85,46,33,192,24,19
25,37,92,48,32,209,25,20
23,32,79,38,33,215,23,20
24,30,83,38,31,226,24,20
24,30,106,48,31,235,22,22
23,34,104,47,30,218,22,21
22,32,99,45,32,207,20,22
22,33,99,44,30,200,22,24
21,34,106,51,32,210,22,24
20,34,77,45,30,201,24,22
21,28,80,49,27,199,26,21
17,29,79,50,27,194,24,20
19,29,96,58,28,196,24,20
18,29,85,56,34,183,24,18
18,29,82,52,33,174,23,18
19,29,90,51,35,201,25,19
20,27,88,53,34,202,27,18
19,25,76,46,34,191,27,17
20,24,78,43,31,194,27,19
24,24,84,47,32,190,28,21
21,26,72,49,31,173,28,20
24,28,74,49,33,175,26,20
24,31,70,50,33,182,28,22
24,31,68,51,30,175,29,22
22,31,63,47,35,276,29,22
22,29,60,41,35,543,28,26
21,27,59,39,38,613,29,27
22,24,58,40,42,649,31,28
23,25,56,42,51,691,32,29
22,24,51,46,53,683,33,29
23,23,52,48,57,506,33,26
24,28,54,53,55,426,32,26
22,32,61,55,52,368,29,22
22,30,73,57,46,278,25,21
22,32,76,59,49,214,26,23
21,32,79,59,51,198,26,22
20,28,74,55,50,175,27,21
20,28,72,52,55,173,29,22
20,29,59,50,57,186,33,20
19,28,59,51,53,175,29,17
18,28,54,49,50,151,27,17
18,27,58,54,50,151,28,19
19,24,48,53,50,157,27,19
17,24,56,51,51,164,25,21
17,23,73,54,47,170,24,22
19,22,87,59,50,186,25,22
19,22,89,57,50,197,23,21
19,26,93,57,47,188,25,21
21,27,92,58,44,191,22,20
21,28,79,56,45,195,23,19
20,30,67,50,41,183,23,18
22,32,75,52,51,174,23,19
21,30,70,53,52,174,22,18
22,32,71,57,56,157,25,21
22,29,80,55,58,185,24,20
22,31,86,57,68,189,24,23
21,29,73,69,68,200,25,26
20,30,77,70,69,202,27,27
19,31,79,72,65,202,27,25
19,33,73,68,63,168,27,25
20,31,70,71,53,164,27,22
20,34,76,70,46,159,24,19
21,33,76,74,53,185,24,19
21,31,74,71,58,185,24,20
21,32,71,72,57,191,25,19
21,33,74,74,54,215,28,22
20,31,68,66,65,223,31,23
22,29,79,60,62,215,29,22
23,26,77,58,61,213,30,23
22,27,78,61,63,225,29,23
23,25,71,55,65,201,28,22
23,26,71,60,61,184,27,20
21,28,76,72,59,172,28,20
21,30,76,74,56,168,27,18
21,28,80,72,58,154,28,20
22,27,88,71,64,180,28,22
22,27,90,68,59,181,32,23
21,27,75,53,56,189,31,22
25,28,78,65,74,206,38,27
26,29,74,64,87,215,42,27
28,31,74,71,94,207,44,27
27,31,76,72,93,206,40,26
28,32,77,74,103,209,42,27
24,28,74,69,93,213,36,25
24,29,80,69,79,211,32,23
22,29,77,66,65,213,29,23
23,32,92,71,72,222,30,23
20,31,95,70,58,223,29,23
22,32,97,71,54,207,27,23
22,33,99,73,60,208,26,22
21,32,103,77,64,199,25,21
20,26,87,67,67,192,25,21
20,31,93,66,69,179,22,22
20,32,99,58,71,193,26,20
19,30,92,57,65,182,25,22
19,31,88,59,62,190,25,21
19,32,94,60,51,185,27,21
20,29,90,64,63,182,28,20
21,26,84,65,68,175,28,21
20,28,87,69,73,189,29,21
20,27,100,63,71,182,28,20
20,26,97,65,74,201,27,21
20,25,91,60,61,223,29,21
22,26,92,60,51,234,26,20
23,25,91,65,48,235,30,21
24,29,73,67,51,247,32,23
25,29,73,67,48,238,31,22
26,30,73,69,59,228,35,23
23,30,67,65,65,204,35,23
21,29,60,67,65,195,32,20
20,28,61,70,67,175,31,21
19,28,58,71,67,167,33,21
19,28,64,70,58,165,27,21
20,29,65,71,50,197,27,21
21,28,65,58,46,207,30,24
21,29,70,57,39,215,33,23
21,31,81,58,37,220,32,25
21,30,85,59,35,217,31,25
22,29,83,61,37,206,32,25
22,31,89,68,42,205,31,25
21,29,99,66,44,198,26,24
23,25,89,68,48,211,26,21
23,25,83,71,53,235,27,20
21,27,93,71,53,239,27,22
21,24,86,70,50,234,23,20
22,25,83,67,49,241,25,21
22,27,86,63,42,226,26,22
24,28,87,73,37,201,27,23
23,27,80,72,40,186,25,20
24,29,89,71,38,187,26,21
24,29,78,68,39,173,25,20
23,27,79,67,41,191,24,17
22,28,78,53,41,190,24,18
24,30,85,72,38,198,25,19
23,28,78,70,44,193,26,21
21,27,83,76,44,206,26,22
22,28,82,76,43,192,27,24
21,27,80,78,44,200,25,23
20,28,70,59,47,200,25,23
20,29,79,87,47,215,25,21
22,29,78,87,47,214,27,22
20,29,75,87,52,214,26,21
21,28,81,86,54,214,29,20
20,25,80,87,56,207,28,20
20,25,79,62,60,203,29,23
21,26,81,58,56,195,29,20
21,26,82,58,54,199,29,20
19,28,82,61,50,195,27,22
23,28,89,58,47,199,26,23
25,35,93,63,43,188,25,21
23,35,96,67,44,196,22,24
25,36,100,68,43,207,24,24
26,35,95,62,43,204,23,24
25,38,96,70,39,196,25,23
22,32,90,75,42,198,24,23
23,33,85,75,43,185,24,21
22,32,76,76,46,171,22,20
22,33,83,87,48,177,24,20
20,29,76,83,48,187,22,20
20,28,68,71,45,200,24,21
20,25,65,65,45,222,27,21
20,27,93,79,52,231,29,22
20,24,92,68,51,223,27,22
20,25,93,69,53,218,28,21
22,24,99,75,49,209,28,20
23,26,101,76,49,190,26,21
24,25,84,59,38,182,25,20
25,27,88,69,36,177,25,18
24,25,84,64,34,176,25,18
24,27,81,58,33,167,23,17
24,26,78,57,33,168,23,17
23,26,73,56,32,160,26,20
21,26,66,53,43,170,24,19
22,26,80,60,46,180,27,22
23,26,81,60,46,196,28,23
21,29,81,64,50,212,28,23
21,30,88,65,52,215,24,20
24,31,86,58,48,212,26,22
24,31,75,55,48,235,23,21
23,30,79,57,48,238,21,20
23,28,83,54,45,238,24,20
22,27,77,53,43,239,24,20
21,27,85,54,40,257,25,20
21,29,98,69,41,235,27,20
20,28,90,65,42,230,28,19
22,27,93,63,43,215,25,20
22,28,96,64,41,216,26,21
21,28,88,61,43,201,26,21
20,26,74,42,37,193,24,21
21,28,82,56,35,185,23,21
21,27,82,66,37,194,23,22
20,29,82,68,39,186,23,23
20,28,80,69,38,406,23,21
21,29,79,67,38,504,22,22
20,28,75,58,38,578,24,22
19,29,74,64,34,597,26,21
22,27,69,63,35,609,26,22
23,29,68,64,38,499,24,23
21,29,68,64,39,411,26,23
23,30,74,69,45,301,25,23
23,27,66,55,45,255,24,24
22,28,65,55,43,226,23,22
20,25,69,52,42,203,23,22
21,27,77,57,40,183,22,21
19,27,69,56,36,174,22,22
17,28,76,59,36,185,21,21
18,27,74,59,38,190,22,20
20,29,69,59,36,193,23,19
22,28,86,62,38,205,23,19
22,30,91,60,38,212,21,18
25,31,88,56,35,217,20,19
22,31,91,59,38,217,22,20
23,31,96,57,38,217,22,20
22,29,73,47,36,218,24,21
23,24,77,43,35,212,24,21
21,23,72,47,39,205,27,21
23,25,70,50,32,220,26,22
24,25,76,55,35,235,24,22
23,24,84,63,39,226,24,22
23,26,92,73,43,230,24,22
24,26,90,69,40,220,22,24
23,27,92,64,43,202,21,22
21,27,96,61,43,190,22,22
21,29,92,54,42,182,23,22
20,29,76,44,40,179,23,23
20,29,80,43,45,194,24,19
19,29,82,42,44,199,24,20
20,26,64,39,43,201,23,20
21,24,61,39,41,210,22,18
20,25,63,34,42,212,23,19
20,23,60,34,38,228,26,20
21,31,70,36,38,230,24,20
19,33,79,49,38,241,24,19
19,32,85,52,38,259,25,20
19,32,85,51,36,283,24,19
19,32,88,53,36,270,22,20
19,26,86,54,36,301,24,20
19,25,76,55,35,305,27,21
19,24,75,56,34,288,27,20
21,24,71,58,35,261,27,21
20,24,66,59,38,253,26,21
22,25,63,60,37,204,24,22
20,25,67,50,39,170,22,20
20,26,64,61,38,167,21,21
20,26,79,69,39,183,19,20
22,28,83,69,36,205,21,20
21,27,81,68,34,209,20,19
23,30,88,69,34,228,23,19
23,30,90,54,35,245,24,20
24,30,78,50,43,253,26,20
23,29,82,48,43,232,25,20
22,27,79,48,46,238,24,22
21,24,71,47,45,219,23,22
20,23,68,47,45,215,22,21
18,23,74,52,37,204,23,22
18,23,79,64,38,224,23,22
19,25,83,63,39,216,24,19
19,27,80,70,38,214,24,20
21,28,89,72,36,197,25,19
22,28,86,63,36,194,24,20
22,28,80,54,34,168,24,19
23,30,89,67,31,174,24,22
22,29,97,60,32,177,23,23
23,29,93,60,35,174,22,23
25,30,90,66,33,160,21,22
24,30,90,64,33,162,22,22
23,27,72,48,31,154,21,21
25,30,74,47,33,163,23,23
25,32,69,51,30,171,22,22
24,31,73,45,31,203,23,23
25,32,73,55,32,214,23,22
25,32,76,56,32,221,23,20
25,30,71,57,31,221,22,18
23,30,70,64,31,227,25,20
23,29,68,61,28,205,24,20
22,27,66,57,29,207,23,22
22,28,75,64,31,204,24,21
20,27,71,64,32,195,23,21
23,28,100,58,34,175,25,21
21,29,103,64,37,171,25,21
22,30,105,60,38,152,25,21
22,29,101,55,41,147,27,21
22,31,99,63,43,156,27,23
20,28,73,61,47,183,25,22
20,30,72,57,46,189,24,21
21,28,72,56,45,200,23,21
19,28,69,55,42,206,23,22
19,26,74,49,39,204,24,19
22,25,69,49,31,190,23,22
23,23,64,47,39,207,23,22
21,24,56,48,40,213,23,23
23,26,59,49,40,222,21,22
24,27,58,44,41,218,25,24
21,27,57,41,44,220,24,23
23,29,73,52,37,201,24,22
24,29,75,51,38,193,25,20
22,28,80,48,36,178,27,19
21,27,80,49,36,189,23,19
22,28,81,49,33,181,24,18
20,25,70,42,34,182,24,19
23,30,83,50,36,173,27,19
22,28,79,59,37,167,25,20
22,29,79,61,38,152,29,21
21,31,85,78,38,152,29,22
21,32,95,78,42,145,31,21
19,29,82,73,42,169,28,21
20,31,81,73,52,176,28,21
26,31,84,91,60,204,24,21
26,28,79,76,60,208,25,20
28,28,70,75,60,214,20,20
28,28,79,74,60,223,24,20
30,26,85,69,54,234,24,21
26,25,88,59,60,233,25,21
27,26,94,62,60,229,24,21
24,23,94,62,59,239,26,21
24,25,88,63,55,230,23,21
23,28,82,73,58,225,25,23
21,29,68,62,41,206,26,20
24,29,64,89,45,205,27,23
34,30,57,98,51,202,28,28
35,30,57,101,50,177,29,29
44,29,68,96,44,168,29,34
46,27,72,93,46,169,30,36
45,30,78,87,41,193,33,37
39,29,80,78,39,184,34,35
38,29,90,77,40,191,33,33
26,27,78,75,38,200,32,27
25,28,77,74,42,203,30,25
24,25,67,52,43,188,25,21
24,27,90,53,39,193,25,18
23,25,82,59,45,195,29,19
24,29,83,64,45,184,28,20
23,29,102,66,40,177,34,19
24,31,104,68,41,187,36,20
23,33,84,76,40,173,35,21
25,33,86,84,31,172,35,21
25,33,100,86,38,182,40,21
32,34,82,106,44,176,36,25
31,33,85,107,42,165,35,25
33,28,94,101,53,182,36,25
33,32,92,88,54,183,34,28
32,30,97,95,50,181,29,28
28,30,100,71,47,195,28,24
29,29,95,69,47,189,28,25
28,29,94,68,39,185,27,27
27,27,96,70,40,195,34,27
27,26,85,56,44,207,35,27
23,25,83,60,41,219,37,27
25,26,80,57,41,230,37,28
23,25,78,64,39,225,36,24
22,27,80,58,38,210,29,23
23,29,78,58,38,206,28,24
24,32,78,56,40,203,25,22
23,32,79,59,43,188,24,21
25,33,75,54,43,191,25,22
25,32,78,57,48,215,26,21
24,31,77,55,47,197,25,20
25,30,89,66,53,321,25,21
25,29,92,66,52,422,25,21
22,28,94,69,52,470,28,21
22,28,98,67,51,474,26,24
23,30,95,70,51,485,28,23
23,29,86,57,44,415,30,23
24,31,99,53,47,323,30,24
27,31,99,47,50,258,28,24
27,31,90,51,47,246,27,21
28,27,97,46,48,243,26,21
28,28,93,46,46,242,25,23
26,24,79,50,48,228,24,23
24,25,85,55,46,216,24,21
25,29,89,59,42,201,24,23
25,29,85,59,43,176,25,23
24,31,86,59,45,155,23,21
24,33,94,54,39,161,24,21
23,33,86,48,41,168,25,21
22,27,78,42,44,166,24,20
21,28,80,40,40,161,25,20
22,26,81,39,42,153,26,20
21,23,67,38,44,149,24,20
21,25,65,39,45,160,26,20
22,28,69,38,45,178,29,20
24,27,62,44,45,195,27,18
32,27,57,42,45,210,26,19
34,27,63,44,43,229,26,19
35,26,74,43,42,227,26,21
37,26,76,40,45,225,25,20
36,29,79,34,45,232,25,22
29,31,90,42,44,223,25,23
28,31,92,58,51,207,26,21
28,32,86,59,52,190,26,21
24,30,86,59,49,174,25,21
22,29,98,59,47,168,25,20
22,28,92,56,53,179,26,20
21,28,88,34,45,182,24,22
20,27,90,34,42,188,24,21
20,29,87,51,48,207,22,20
21,30,70,50,48,210,20,21
21,28,65,49,39,215,22,19
24,28,64,49,41,207,22,20
36,30,60,47,43,209,21,26
38,28,64,33,35,215,22,26
40,27,67,36,39,207,25,26
40,32,78,40,41,198,25,25
39,31,79,39,41,215,24,24
29,30,80,50,39,221,25,20
27,30,84,50,43,208,25,22
23,32,85,59,44,218,25,21
23,28,74,58,46,217,23,23
22,31,75,58,46,202,25,26
22,32,73,49,47,198,25,25
21,31,68,50,45,186,28,23
21,29,66,42,46,170,27,24
21,28,72,44,42,165,28,23
21,28,72,48,41,163,29,19
22,27,72,47,43,166,28,19
24,27,66,44,43,171,27,19
24,25,65,40,41,175,26,18
24,26,64,40,42,179,29,18
25,24,58,43,41,178,26,20
23,25,65,44,42,180,27,20
23,26,75,45,42,198,25,22
22,27,81,45,40,224,24,21
23,26,80,43,40,232,22,23
22,28,83,38,41,235,24,22
24,26,77,45,40,244,25,23
22,26,70,44,41,241,26,22
23,27,61,47,41,214,27,22
22,28,65,46,40,210,26,19
23,27,59,43,40,215,25,22
22,28,67,44,43,215,23,22
22,27,63,50,40,210,21,23
21,26,68,49,42,226,20,24
21,28,69,56,44,215,21,24
18,27,73,58,45,203,21,22
20,28,66,56,40,177,23,22
20,28,64,57,39,182,23,20
21,28,69,59,38,182,25,20
24,26,64,59,33,215,26,20
24,27,64,59,30,226,28,21
23,24,65,66,30,243,25,22
24,25,66,59,34,258,26,21
23,28,62,58,33,247,27,21
21,27,64,53,34,237,25,23
22,29,62,61,43,241,25,24
20,31,68,55,44,233,27,23
19,31,66,56,39,209,26,24
20,27,69,54,40,210,24,25
22,29,62,54,42,199,22,24
22,27,63,43,34,187,19,23
21,27,57,36,35,191,20,21
22,29,70,46,46,214,19,22
20,30,72,47,46,214,21,22
17,28,75,48,44,211,23,23
16,28,83,49,43,222,23,23
17,27,82,51,43,218,24,23
18,27,77,44,33,199,25,23
19,27,78,45,35,213,24,23
20,31,76,47,34,215,26,22
21,30,65,49,37,226,25,22
22,30,64,54,36,230,25,21
22,28,58,53,35,227,24,20
24,29,48,55,38,235,24,20
23,27,57,53,39,233,21,18
24,27,63,57,38,214,23,19
23,28,61,49,42,210,21,20
22,28,70,51,47,223,22,24
21,25,78,49,48,211,22,23
20,26,75,55,50,215,24,23
18,28,79,53,50,211,23,25
19,30,95,52,45,201,24,24
20,31,91,51,45,197,23,22
19,33,88,70,45,198,23,21
22,34,91,68,46,193,23,23
22,32,94,62,44,198,22,21
21,30,86,63,44,217,22,21
21,28,90,75,43,211,25,20
21,29,89,64,42,229,27,21
22,28,93,61,42,240,25,19
23,28,87,64,43,245,27,20
22,27,81,63,43,255,27,21
23,31,84,59,44,262,25,22
24,27,81,51,41,262,22,22
23,30,78,60,43,269,23,21
22,28,78,61,45,253,22,21
22,28,75,65,51,225,21,20
23,25,69,55,47,216,19,21
22,27,74,57,46,174,21,20
22,26,70,62,46,167,20,22
21,28,69,59,48,194,20,23
22,27,70,56,41,202,20,23
20,27,66,56,41,221,21,22
19,26,61,54,44,245,23,23
18,24,73,39,43,242,23,21
20,24,69,47,42,241,25,20
21,26,70,45,46,249,27,19
22,26,69,47,46,242,27,19
21,29,70,72,45,232,26,18
22,28,61,71,42,227,27,17
22,27,63,66,37,226,26,20
23,27,63,65,32,212,24,21
23,29,65,71,34,195,24,22
23,28,78,63,31,184,23,22
23,29,88,67,34,194,22,23
23,29,89,68,34,171,21,20
22,29,95,68,35,183,21,19
22,28,97,67,35,195,24,18
22,29,85,51,35,205,26,20
21,28,70,47,37,186,25,18
20,30,68,49,38,200,26,18
19,31,62,60,41,196,26,20
16,28,60,53,41,209,23,21
17,26,68,54,43,203,23,23
17,27,73,64,39,215,23,24
18,25,77,66,37,217,24,24
18,25,92,59,35,229,24,23
21,25,99,60,34,260,24,23
21,24,94,63,34,263,21,20
20,24,91,53,35,268,22,23
21,28,96,50,38,260,19,23
24,27,88,52,37,243,19,22
24,26,90,59,39,177,19,22
23,26,89,54,40,173,21,21
25,28,96,54,41,158,19,18
25,24,87,55,40,160,19,18
24,26,82,58,42,170,20,16
25,29,75,50,41,180,22,17
24,30,79,51,41,185,23,19
23,27,76,51,41,183,25,18
22,29,78,55,43,188,26,20
23,27,78,46,40,193,25,21
20,27,73,45,39,205,25,22
21,27,83,48,36,207,23,21
23,31,82,57,39,214,21,21
24,29,82,53,39,223,23,21
24,29,82,54,41,224,24,21
24,29,91,60,42,242,26,21
24,28,79,59,44,241,25,23
22,24,85,54,41,227,25,21
23,25,91,51,39,211,23,20
22,28,90,56,41,208,23,20
22,26,88,48,38,181,20,20
22,25,96,50,37,180,20,18
25,29,87,53,37,188,20,19
24,28,84,53,37,195,27,23
27,25,84,49,32,188,38,26
26,27,80,47,35,184,40,25
33,30,77,48,39,176,40,25
31,28,73,47,40,181,42,25
30,28,71,48,50,185,38,21
27,29,74,46,53,188,27,19
28,32,81,51,52,178,25,19
19,32,77,53,51,179,24,19
21,32,82,48,50,179,22,20
20,31,89,55,39,191,21,22
21,30,89,53,45,208,23,22
20,27,85,53,43,210,24,23
22,26,103,69,40,209,26,22
20,30,103,73,38,197,26,21
19,30,97,68,40,174,27,21
20,29,96,68,33,169,26,21
21,30,92,79,37,176,24,20
34,30,70,67,42,175,22,19
39,30,79,65,42,193,23,21
40,31,79,63,42,197,20,19
41,34,82,67,43,176,23,19
42,32,80,63,43,184,25,19
33,30,87,59,37,188,25,21
26,28,78,59,36,181,23,19
26,28,79,62,37,187,26,20
25,26,77,60,32,194,24,19
22,27,87,53,35,196,22,19
23,27,90,57,37,199,24,19
24,28,90,56,40,196,25,20
25,28,92,58,39,193,24,21
25,30,103,56,40,196,25,21
24,32,101,54,39,187,26,19
23,34,103,65,38,175,25,20
23,34,107,70,38,177,24,20
21,37,108,73,39,171,24,20
21,36,101,76,42,187,23,20
23,35,95,82,41,180,25,20
24,38,80,71,46,189,25,21
26,48,78,66,48,186,25,21
27,51,88,69,49,212,23,22
26,53,97,71,49,196,26,21
25,61,107,69,52,215,24,23
23,63,110,68,48,221,23,21
36,56,110,68,52,234,23,23
42,53,103,74,59,246,26,23
43,52,94,72,58,255,24,22
44,43,97,71,58,261,25,23
45,48,99,70,60,258,24,24
34,48,97,70,56,256,27,23
26,47,92,59,46,223,24,23
25,49,100,62,45,202,26,23
24,50,101,65,40,184,24,22
24,50,98,68,41,186,27,22
25,49,96,72,39,172,26,20
24,59,117,78,44,170,27,18
23,57,111,79,45,192,26,19
22,60,112,74,46,188,28,20
23,53,111,73,46,186,29,21
23,53,122,77,45,188,29,21
23,41,104,70,39,197,27,21
25,41,103,61,40,198,26,21
25,34,89,67,38,196,25,21
23,36,98,68,36,195,22,20
23,42,89,62,39,196,22,19
22,40,86,64,44,204,23,19
21,42,79,67,45,199,23,18
20,42,78,75,47,210,22,19
20,39,73,80,45,225,21,19
23,32,64,76,45,236,21,21
24,34,66,76,40,224,21,21
23,30,72,74,37,226,21,23
24,33,80,74,41,230,21,22
24,32,74,66,42,212,22,22
23,33,75,67,40,201,22,21
22,32,87,60,41,199,22,21
21,32,100,64,45,186,24,19
22,31,91,50,42,165,23,18
25,33,103,54,41,156,24,17
24,32,109,56,42,154,22,19
25,31,98,63,41,174,25,19
26,31,83,59,38,198,25,19
25,30,84,61,39,226,25,20
22,29,69,59,41,242,24,19
21,27,59,64,40,263,27,19
21,30,86,65,41,263,24,21
22,34,91,67,41,251,23,24
23,36,98,62,40,233,24,23
23,35,101,63,41,220,27,25
23,36,100,56,39,192,24,27
23,37,83,51,42,176,26,25
21,34,75,51,40,167,26,23
19,34,66,60,38,169,24,23
20,36,77,64,39,176,21,21
20,38,82,75,41,181,22,19
21,36,77,74,39,198,20,20
23,35,81,72,39,200,21,21
24,36,92,66,39,198,25,21
23,33,83,83,41,204,26,21
24,30,79,75,38,201,24,21
23,30,81,76,36,220,23,20
22,31,81,77,34,217,23,20
23,29,66,77,35,231,22,20
24,29,71,55,31,242,25,21
23,28,68,53,33,250,25,21
24,27,66,56,37,242,25,23
23,28,79,67,41,246,25,22
21,31,82,67,39,227,24,23
22,31,78,64,45,205,22,22
22,32,84,62,46,188,23,21
22,32,83,61,42,156,23,22
21,30,75,60,45,163,21,22
22,26,73,63,47,168,23,21
20,27,85,67,40,182,23,21
22,26,85,67,39,185,22,24
20,26,94,64,40,196,21,21
22,28,90,55,35,191,23,22
21,28,88,58,35,205,23,22
23,28,78,54,33,207,24,24
20,31,83,53,37,213,26,22
21,31,75,53,39,221,27,23
19,28,80,59,44,236,27,22
18,31,91,65,47,239,27,20
16,32,94,78,47,255,26,19
17,29,84,79,44,269,24,18
17,28,88,80,41,262,23,20
17,31,84,72,36,248,20,21
17,28,72,62,32,235,21,20
20,27,68,43,32,216,25,22
20,27,73,51,34,191,25,21
21,29,72,62,41,193,27,19
22,26,72,69,40,197,28,20
24,28,73,71,40,198,27,21
23,29,74,76,39,195,23,19
23,29,74,72,42,201,26,21
22,28,84,62,38,195,23,19
24,29,80,61,41,187,23,19
22,34,95,58,42,188,23,17
21,31,91,59,44,217,25,18
20,32,87,57,39,223,22,17
21,33,77,56,38,234,23,20
19,35,80,52,38,257,24,19
21,32,61,50,37,260,25,22
23,32,64,42,35,239,23,22
23,33,70,44,37,225,23,23
24,31,74,64,37,210,24,22
23,29,76,64,36,216,24,22
21,26,80,66,36,216,22,20
19,28,82,65,33,222,25,19
21,30,78,66,34,228,25,19
21,32,83,54,33,227,25,22
21,33,79,57,35,210,24,22
24,34,85,56,36,202,26,21
23,33,85,58,41,192,23,22
22,28,87,61,40,201,24,21
22,27,87,58,39,218,25,20
24,26,87,54,35,205,25,19
22,23,76,56,37,214,24,21
22,24,74,57,33,206,27,20
23,26,74,66,39,213,24,22
23,27,81,67,38,205,23,20
21,26,82,66,41,218,22,20
21,24,87,64,38,217,25,20
21,24,85,60,39,220,23,21
22,26,88,54,40,212,24,21
21,28,71,52,41,210,25,20
20,27,72,58,41,206,27,20
21,31,65,59,40,198,24,21
21,33,69,60,44,207,23,22
20,30,63,51,38,207,22,20
20,27,62,49,41,201,22,20
21,29,62,44,39,187,21,21
18,26,65,40,39,195,20,20
17,25,66,53,39,189,22,18
17,25,60,55,41,186,25,20
19,28,68,54,40,190,26,21
20,25,62,52,41,203,24,18
21,25,65,54,43,217,26,20
22,25,65,41,38,236,26,21
23,27,78,40,35,246,23,21
21,29,73,40,35,252,22,21
21,29,77,42,34,303,22,23
22,29,74,38,33,299,22,20
22,32,76,47,33,278,25,19
22,33,75,56,36,269,23,20
22,31,76,56,34,264,24,20
22,31,73,55,38,204,26,18
20,34,74,56,40,238,24,19
20,36,69,51,44,401,20,19
20,32,62,41,43,478,21,18
19,34,62,51,45,551,20,18
21,37,66,61,42,563,21,19
22,35,64,64,41,548,23,20
22,31,64,64,36,448,23,22
20,34,71,70,37,431,23,22
21,33,74,70,35,423,22,22
20,31,77,62,34,476,21,21
23,37,76,56,32,479,20,20
23,35,76,55,31,494,21,17
25,34,72,46,29,476,21,19
24,35,67,34,31,426,22,19
24,33,62,49,37,367,24,20
20,26,71,52,38,412,23,20
21,28,70,51,40,482,25,21
21,30,78,56,40,467,24,19
21,32,81,60,40,459,25,20
21,33,83,49,36,445,22,20
21,36,76,46,38,394,22,21
21,34,72,49,37,300,24,22
20,35,62,46,37,258,27,22
19,35,72,43,41,304,26,22
21,37,72,40,39,347,25,22
22,39,73,46,35,361,26,21
21,41,82,45,36,367,21,22
23,54,81,43,36,371,24,23
26,62,70,41,29,326,25,22
26,76,73,49,41,323,25,22
26,103,81,56,44,329,27,23
27,105,74,56,46,330,28,21
27,103,73,57,45,328,24,22
26,99,72,59,47,318,25,23
25,88,76,58,40,286,26,23
26,60,70,48,39,319,26,24
22,59,81,54,37,322,26,24
22,66,78,56,43,323,30,23
23,69,83,56,44,336,32,24
23,71,83,55,46,388,31,25
21,66,80,55,47,377,30,24
22,68,76,55,47,404,32,24
22,63,84,53,41,575,29,24
21,62,85,52,41,669,27,23
24,66,110,65,39,643,33,24
33,82,152,74,43,775,34,25
34,92,157,76,41,1072,33,24
34,105,170,87,45,1122,34,27
35,113,171,86,46,1097,35,26
37,124,172,78,47,1106,33,24
32,117,148,71,41,1035,33,22
32,133,143,65,44,736,33,23
31,121,125,54,42,838,31,21
30,119,121,58,39,1010,30,22
27,115,94,61,38,1079,33,23
26,119,101,64,38,1064,30,24
29,106,117,65,37,1037,32,24
36,110,131,67,43,833,37,27
36,117,136,65,43,630,38,26
36,118,138,62,41,726,31,26
34,116,124,59,40,782,34,28
32,109,116,63,40,843,33,26
28,103,99,67,30,833,27,22
26,88,99,70,30,826,23,22
27,74,94,69,32,686,25,25
27,67,94,70,32,770,24,22
25,53,96,67,33,770,25,23
22,48,102,60,36,781,28,24
21,47,98,69,60,902,36,23
26,54,112,80,84,936,64,20
28,51,116,83,87,859,70,18
31,63,110,89,87,820,80,21
34,83,109,103,90,794,86,21
35,86,117,96,78,592,85,23
30,84,112,90,52,434,67,24
30,84,112,86,47,295,60,24
29,85,110,77,44,217,45,21
25,68,118,63,42,153,33,20
24,65,105,61,39,740,27,17
26,62,93,55,36,1064,22,18
23,62,93,54,35,1151,24,17
21,47,90,56,38,1477,22,18
21,45,77,46,30,1643,21,20
21,46,80,50,33,1495,24,20
20,45,89,50,42,1289,24,20
21,53,80,54,41,1215,25,21
20,55,77,53,41,788,27,20
20,56,85,63,43,319,29,22
21,53,88,62,42,165,29,23
20,54,87,61,37,118,28,23
22,46,93,61,43,76,28,22
23,56,99,64,42,56,27,22
22,52,94,54,40,48,24,19
23,54,98,55,39,40,24,19
24,60,108,61,36,30,23,18
22,59,110,64,28,21,20,20
22,47,106,59,29,17,21,20
22,46,116,60,29,16,20,21
23,49,112,60,26,15,24,21
23,49,96,53,29,13,23,20
23,49,86,42,30,12,23,20
23,49,84,42,32,11,25,21
28,55,63,41,33,11,26,20
26,56,60,47,33,11,26,18
25,51,77,48,33,12,27,20
25,49,88,51,33,12,27,19
24,61,99,56,34,13,25,19
19,57,96,54,31,14,26,22
20,55,97,55,34,14,21,22
21,55,86,54,33,22,21,21
24,57,81,48,32,25,22,19
25,47,65,47,32,30,21,20
26,47,81,53,32,115,19,19
28,44,90,50,31,140,20,19
28,42,94,50,30,168,19,22
25,41,95,56,30,189,20,22
23,40,99,54,27,213,22,23
22,38,92,49,33,188,22,21
21,51,82,54,36,175,22,21
20,51,78,54,36,158,23,20
21,53,101,54,37,163,24,20
22,51,100,55,39,155,23,20
22,59,104,57,35,195,24,20
22,53,105,52,31,251,25,20
23,51,103,53,31,321,24,21
22,52,81,50,35,407,22,22
22,54,91,53,35,460,28,21
23,44,81,52,38,486,27,21
22,40,87,53,40,485,28,21
22,40,96,56,42,524,31,21
22,36,90,55,40,505,32,21
22,33,85,52,41,502,28,19
21,33,89,54,38,500,27,20
21,35,94,50,36,504,27,21
20,38,89,48,32,451,23,22
20,39,92,49,33,428,24,22
21,48,103,48,29,416,25,24
21,47,101,47,30,416,25,24
21,44,92,45,32,425,23,23
20,42,91,43,38,434,25,22
21,39,93,47,37,472,26,20
20,31,91,48,40,496,23,21
19,31,98,47,40,506,24,19
17,31,100,50,38,559,25,20
19,30,112,53,36,575,25,20
21,30,111,49,35,574,22,21
23,39,118,54,35,574,25,20
24,41,111,56,35,552,23,22
24,45,107,52,34,495,25,22
23,44,93,52,34,470,23,21
21,46,90,58,32,431,23,21
19,36,62,54,30,399,20,21
20,36,79,56,30,412,20,20
20,35,85,61,30,407,21,20
20,34,85,57,29,411,24,21
22,32,90,52,34,430,24,21
23,35,97,53,34,419,27,21
23,33,86,50,37,413,26,20
24,32,100,52,39,429,25,20
24,32,105,54,43,437,24,21
23,32,103,54,41,436,24,19
23,37,114,54,41,458,24,18
22,41,113,54,38,484,25,19
21,39,96,51,42,497,24,19
22,40,91,52,36,490,24,20
22,41,90,55,35,479,24,21
30,44,69,53,42,466,22,22
49,66,72,54,43,438,23,25
57,85,97,55,41,394,24,25
59,88,95,55,47,382,25,26
63,98,97,52,47,359,27,27
60,95,98,51,42,369,27,25
46,80,93,48,39,406,26,23
37,59,67,45,39,452,26,24
35,56,68,41,37,466,26,23
27,42,72,40,39,487,24,21
26,43,69,42,39,499,28,22
24,43,79,44,41,492,28,20
23,43,79,49,39,457,28,18
24,47,87,59,35,473,26,17
27,40,89,60,33,523,27,19
28,40,93,60,34,533,24,19
29,40,95,62,32,538,25,19
28,42,98,59,31,564,23,19
25,35,88,51,31,542,23,20
24,36,78,53,32,497,24,20
23,35,89,54,32,475,24,19
23,38,90,55,32,451,24,19
23,36,100,62,33,427,25,19
24,37,100,60,31,466,27,19
22,37,103,56,32,470,25,18
22,38,98,54,30,461,25,19
20,36,95,49,29,478,24,20
22,38,79,37,28,511,22,20
21,36,87,45,30,482,24,21
21,42,85,49,30,494,24,20
23,41,73,45,35,499,22,20
23,41,66,50,38,502,24,19
23,43,72,53,38,514,24,19
23,44,65,46,38,530,24,20
22,39,66,45,37,525,23,20
21,38,75,45,34,531,24,21
22,38,79,43,34,497,23,21
22,38,87,42,34,453,25,22
21,41,90,44,36,436,23,20
21,41,94,47,36,410,23,22
22,40,87,51,40,405,25,22
20,40,98,56,38,435,28,22
20,37,90,56,40,448,28,22
20,32,91,55,39,439,31,23
19,29,82,52,41,468,31,21
17,28,83,53,37,458,30,20
20,29,77,49,44,453,28,20
21,28,73,55,46,455,31,21
21,29,70,59,44,464,28,20
25,31,85,65,45,470,28,21
26,31,119,77,46,491,26,23
25,30,121,83,65,488,26,24
24,31,135,85,69,501,26,25
26,31,137,83,74,569,27,25
23,28,133,81,74,559,31,24
22,30,108,68,73,572,34,22
22,28,106,62,54,585,34,21
23,28,98,63,52,562,32,18
21,33,111,67,50,504,33,19
22,34,119,65,49,500,30,20
22,33,116,65,48,475,28,21
23,35,113,64,49,476,28,23
23,32,113,62,44,480,28,23
25,31,99,54,47,462,28,24
24,34,93,57,57,450,29,24
24,33,94,65,58,453,28,22
21,31,86,68,57,421,30,21
23,30,76,75,55,423,28,22
23,28,72,76,50,435,27,22
23,27,65,77,43,427,26,23
25,28,61,86,43,449,26,23
26,28,59,88,67,672,24,23
26,32,77,83,82,768,27,23
24,32,86,86,90,807,29,22
24,30,85,85,90,821,30,24
22,31,87,69,91,808,29,24
23,34,97,65,76,668,29,23
22,33,87,69,67,567,29,23
23,34,93,83,63,503,32,22
25,35,92,88,68,479,31,24
25,36,100,94,73,462,31,23
25,33,97,108,72,509,30,25
25,43,94,113,65,499,26,25
26,46,105,108,74,500,21,25
23,45,106,111,76,506,23,22
23,45,109,115,88,519,26,24
24,45,120,102,91,466,28,23
26,37,121,93,105,494,32,25
25,31,103,85,101,484,34,23
27,32,105,80,111,525,36,24
29,32,97,70,101,543,35,25
27,35,85,77,100,526,38,25
25,32,82,78,89,511,41,24
29,31,88,89,92,517,47,26
28,32,97,90,74,477,47,25
26,33,102,97,84,512,52,23
28,31,101,94,84,541,49,27
29,34,99,89,89,566,46,26
27,34,90,84,88,557,40,28
26,35,96,92,90,617,38,28
26,32,81,84,80,592,32,27
26,30,82,83,83,553,31,24
23,28,95,83,77,516,28,24
21,31,110,80,75,599,29,20
22,28,95,63,76,571,31,21
25,31,106,73,101,568,40,24
25,32,103,85,115,599,44,27
27,34,93,84,115,587,44,27
27,31,76,79,110,555,41,27
29,33,79,92,114,523,41,28
27,32,75,92,116,522,41,28
27,30,72,79,114,483,40,26
26,27,70,76,115,490,41,26
26,32,80,85,116,542,43,27
24,30,78,89,111,574,40,26
26,28,80,77,84,554,30,25
25,35,92,82,59,571,27,21
24,35,92,86,63,560,29,22
23,34,88,78,65,502,31,22
23,36,83,57,65,498,30,20
22,35,71,59,66,477,31,20
21,30,67,54,66,505,31,21
24,30,65,58,60,549,30,20
23,29,80,68,53,522,27,21
23,31,96,68,52,535,28,23
22,33,104,69,49,574,29,22
23,34,110,71,49,569,30,24
19,34,110,70,47,581,26,25
21,33,96,62,46,599,27,23
21,30,87,64,44,552,26,21
20,30,86,62,43,536,25,21
19,29,85,82,43,545,24,19
22,28,88,88,45,513,23,20
21,28,95,87,44,501,22,23
21,31,93,86,42,563,23,24
23,31,91,86,43,580,21,23
23,29,78,74,43,564,22,24
23,29,73,63,38,562,23,22
22,32,69,64,39,575,23,22
23,28,66,61,45,521,21,22
22,27,60,74,47,554,25,23
22,28,63,68,48,599,25,23
23,30,64,67,50,593,26,24
23,29,72,64,51,631,26,22
22,30,73,65,47,643,26,23
21,33,86,58,47,602,24,23
20,31,86,91,47,549,23,22
19,31,87,100,49,553,23,23
19,29,78,101,47,509,23,23
20,29,76,102,45,526,23,24
21,25,69,101,42,528,25,23
22,28,71,79,40,523,26,25
23,27,74,69,40,524,26,24
23,26,74,67,39,541,27,23
22,27,72,66,42,527,27,22
22,31,82,80,47,559,26,22
22,28,75,72,45,584,23,19
21,29,72,72,43,609,23,19
23,29,80,72,48,583,23,20
23,29,83,72,44,609,27,18
21,24,72,53,40,577,25,21
21,26,75,58,47,524,27,21
22,26,75,56,44,546,27,22
21,30,78,55,38,580,24,22
21,29,81,59,39,542,23,22
24,32,83,67,40,581,25,21
25,31,80,64,37,612,24,20
23,29,80,62,48,581,24,20
22,26,73,62,47,543,26,19
24,25,67,67,49,682,25,19
22,23,62,59,49,693,23,19
21,25,69,62,48,748,24,22
22,26,67,64,38,760,24,22
24,25,63,64,40,778,23,23
23,29,72,61,45,665,23,23
23,33,80,58,42,618,23,22
24,33,78,54,39,523,24,20
24,33,83,53,42,470,24,23
23,34,87,61,45,419,25,22
23,31,81,54,39,390,26,22
24,26,72,50,40,382,25,22
23,28,75,48,43,380,25,23
22,26,67,48,43,394,24,21
21,25,64,43,38,454,24,21
21,28,70,48,38,474,22,20
21,30,74,52,37,484,24,20
22,29,75,53,36,496,24,20
22,30,78,52,34,505,23,21
23,31,78,69,39,528,22,21
24,27,73,69,41,607,23,22
25,25,80,70,43,615,21,23
23,25,83,71,47,635,21,22
23,23,93,73,49,621,23,21
22,24,97,65,45,555,23,22
22,26,92,65,42,632,23,21
19,27,89,62,41,650,22,21
20,26,81,60,39,694,24,20
21,29,73,59,36,746,25,20
20,27,66,45,36,746,25,20
22,27,72,47,37,635,25,20
23,28,68,50,41,631,26,20
22,27,68,58,46,610,22,20
21,26,63,60,51,555,21,20
22,28,85,71,52,555,23,19
21,26,81,68,52,538,22,19
21,27,78,67,49,514,24,21
21,29,78,62,41,479,24,21
23,34,88,68,37,499,25,21
22,44,74,63,41,502,25,23
22,49,80,66,42,545,26,22
23,63,81,62,39,540,26,21
26,74,90,61,46,537,26,21
26,72,79,55,45,558,26,21
25,67,84,54,42,573,26,18
25,65,86,50,45,526,24,20
25,52,84,56,47,501,25,23
21,33,78,52,42,508,25,21
22,31,78,48,41,485,25,23
22,27,67,45,42,485,26,22
23,24,66,63,35,511,28,20
23,23,66,58,38,599,26,17
22,25,70,64,38,601,27,19
22,25,82,66,38,574,25,17
23,32,86,63,38,564,24,19
22,31,82,47,37,560,23,21
22,33,84,66,37,542,23,21
23,35,99,65,39,502,22,22
23,35,87,65,39,536,24,22
22,28,83,66,41,566,24,22
23,29,85,66,46,619,22,23
21,27,89,68,53,566,26,24
22,25,65,64,52,740,28,23
21,28,66,63,56,849,27,22
23,30,70,62,59,916,29,22
22,29,77,65,57,929,29,21
25,31,70,56,49,975,25,20
25,33,74,58,49,875,25,21
27,33,101,64,44,760,24,22
27,33,100,66,44,643,23,22
29,35,100,70,46,525,24,22
27,34,117,61,45,403,27,21
27,29,117,62,49,377,27,22
25,28,102,65,51,343,28,21
25,31,108,75,51,321,31,22
24,34,103,77,49,391,32,23
23,34,85,95,53,424,34,23
23,36,90,104,52,403,32,23
25,42,83,100,55,415,33,24
24,41,72,93,53,432,35,22
22,36,80,89,54,405,33,20
23,37,84,75,51,401,38,21
23,35,79,73,47,408,43,21
21,31,96,71,45,425,49,21
22,33,102,73,47,471,56,20
24,34,96,71,47,464,73,22
24,37,105,66,49,451,72,24
24,38,113,67,53,470,72,22
23,36,128,93,60,440,69,22
24,36,132,95,59,385,60,23
23,37,143,98,56,415,43,21
21,33,137,103,55,414,38,20
22,34,133,97,51,392,34,21
23,34,147,79,47,421,34,22
23,35,149,75,47,425,36,22
23,36,150,104,52,393,43,22
25,42,176,109,57,418,42,23
25,41,180,109,58,399,44,21
25,48,174,121,58,387,46,21
25,48,188,140,64,409,45,23
26,47,177,128,65,400,36,22
25,48,167,151,81,414,43,22
26,48,163,154,84,457,42,23
26,50,158,152,94,482,44,22
24,51,148,149,98,504,50,22
23,53,176,188,104,544,51,24
27,50,162,175,98,526,49,24
27,50,163,186,96,524,48,23
36,48,153,196,88,519,44,26
56,49,146,190,83,492,44,39
61,51,125,148,74,437,47,43
62,54,128,142,66,429,43,43
64,53,136,135,64,394,42,44
62,47,138,115,59,394,43,44
50,43,131,108,54,398,39,33
49,41,123,125,75,460,37,27
50,39,139,125,84,515,38,31
49,42,132,126,85,528,39,30
45,43,150,138,86,510,36,28
41,44,155,138,92,524,34,27
34,44,165,120,83,505,30,27
28,40,153,127,75,487,29,23
27,42,149,123,78,499,28,23
28,44,122,131,79,511,29,26
27,42,134,149,75,498,32,25
26,40,128,154,68,489,30,23
28,44,131,153,71,442,32,22
31,40,141,171,78,430,34,21
37,40,139,154,91,435,35,22
37,39,135,136,89,411,32,22
37,39,148,141,91,424,32,22
37,37,154,134,87,446,33,21
34,39,163,121,86,442,32,23
28,40,162,122,69,483,30,22
26,41,153,142,71,501,32,22
27,39,140,145,68,508,32,23
26,40,135,141,69,502,32,24
27,46,146,155,72,506,35,21
29,43,161,159,80,484,35,23
30,46,164,152,76,492,35,22
30,52,167,169,83,489,37,22
28,48,158,178,80,544,34,21
29,42,137,153,77,582,32,22
26,45,169,184,93,570,35,20
25,45,173,182,94,568,35,19
25,40,179,154,90,551,33,19
25,41,189,147,96,511,34,20
23,41,190,153,95,469,34,22
22,38,147,102,70,505,30,22
23,35,144,89,72,547,33,23
22,35,124,96,65,611,34,23
26,39,117,121,78,647,32,24
24,40,104,120,72,655,32,20
28,45,116,141,76,655,34,22
27,43,126,148,87,679,31,21
27,42,127,180,99,625,32,23
25,40,130,164,84,581,35,22
27,40,133,181,90,577,40,24
26,32,149,180,93,546,40,23
29,34,144,178,81,475,42,25
30,38,153,142,73,448,41,23
31,37,162,156,80,440,38,25
30,36,168,133,78,420,34,24
28,39,156,139,78,402,31,24
29,47,152,142,92,415,32,24
26,46,168,142,96,418,38,25
27,50,175,131,94,411,38,24
26,55,183,139,91,425,38,23
28,54,177,151,89,486,37,25
24,48,195,153,77,527,36,25
25,47,175,165,65,581,31,24
26,40,155,175,64,603,34,26
29,36,143,163,66,709,34,29
28,36,173,148,61,737,33,28
29,34,160,152,65,812,33,27
29,34,168,159,70,882,31,28
26,34,162,153,65,910,29,28
23,34,164,160,61,843,27,25
23,33,128,158,67,801,28,24
22,33,125,142,62,704,28,24
23,38,124,154,62,581,27,25
23,39,161,170,69,543,32,25
23,41,155,188,79,557,32,24
24,43,169,188,75,527,35,26
25,43,169,191,74,480,34,26
24,38,160,173,67,481,41,23
24,36,128,161,65,458,47,23
26,35,138,133,64,419,50,24
26,34,126,149,64,415,52,23
25,38,116,160,69,409,55,23
26,36,133,162,76,408,50,21
28,43,142,150,74,438,43,21
25,42,153,175,69,507,42,20
24,44,163,155,71,568,38,20
24,41,168,153,69,600,40,20
24,45,164,146,68,590,50,24
24,44,162,147,68,557,49,23
23,41,162,136,87,558,48,25
25,40,145,136,91,577,48,26
27,43,148,124,87,589,44,25
27,45,150,123,83,603,32,21
24,40,156,125,81,627,33,22
26,41,139,117,59,592,32,22
25,37,163,126,61,523,33,21
22,35,159,137,64,498,34,21
22,30,151,144,67,521,34,20
24,31,145,138,66,509,30,19
21,32,146,141,66,486,30,19
19,30,128,129,58,469,32,18
22,31,139,124,59,450,28,20
23,35,145,138,69,427,30,23
22,32,132,142,74,416,31,25
22,32,140,134,76,431,30,24
23,36,149,138,72,462,40,24
21,34,134,184,75,476,44,22
22,33,139,183,67,467,47,22
21,34,155,183,67,483,52,22
23,35,159,189,63,497,55,25
25,32,154,192,66,536,48,24
25,33,164,149,56,544,46,25
23,32,159,131,54,547,58,23
25,31,156,144,56,545,55,23
26,31,138,130,55,524,54,21
24,32,139,133,55,474,55,21
24,33,152,123,60,456,58,22
26,34,144,123,56,434,43,23
25,37,145,109,48,425,40,22
21,37,160,118,50,401,38,20
22,35,150,117,53,412,45,22
22,35,130,138,53,433,45,21
20,35,159,133,52,438,47,21
22,32,179,144,56,434,47,25
25,34,173,160,62,445,47,26
24,33,171,153,59,480,41,26
24,34,170,138,57,524,44,26
24,32,147,146,58,544,42,25
26,34,121,129,56,559,44,24
25,32,114,133,52,580,52,23
25,33,117,133,60,569,60,26
26,31,114,136,57,522,57,25
25,32,119,134,59,509,58,25
23,32,112,144,63,488,58,22
23,32,120,121,63,454,53,21
22,32,119,121,54,427,39,19
22,33,117,118,58,409,42,24
23,34,108,119,61,411,41,24
20,33,95,113,57,446,39,25
22,34,85,108,56,472,40,27
22,35,105,116,58,466,42,27
22,39,103,115,59,496,37,22
22,38,116,110,54,491,39,23
24,40,131,99,53,488,55,22
22,40,137,93,50,485,55,23
23,39,121,71,48,496,55,21
24,34,121,67,40,485,67,24
26,32,108,60,47,477,111,26
24,33,102,57,46,483,119,25
24,31,95,61,45,481,121,23
24,31,98,81,45,493,121,24
21,33,120,118,48,484,115,23
21,34,140,129,47,482,74,20
21,32,147,136,50,452,49,20
21,34,144,136,50,438,40,19
23,35,145,130,51,402,40,17
25,36,133,98,49,392,37,15
23,36,135,104,44,411,41,18
25,36,126,100,44,411,39,21
26,34,134,102,46,406,39,23
26,34,138,98,47,431,40,25
27,32,136,103,51,442,45,26
27,34,122,79,50,441,43,24
27,35,119,76,49,460,42,24
26,37,117,75,51,465,42,23
24,41,122,95,52,458,40,21
22,41,126,87,48,452,37,20
21,40,119,92,48,440,31,21
21,40,133,87,52,421,33,19
22,40,127,85,54,395,34,20
23,37,111,66,52,382,32,21
25,39,108,75,56,400,29,21
25,44,109,78,59,415,28,20
28,44,89,79,55,394,26,19
27,66,116,88,51,445,23,18
28,69,116,90,50,445,23,18
28,69,127,87,53,415,25,19
27,65,125,80,50,397,25,19
25,66,138,104,52,402,26,19
26,45,129,95,58,439,26,21
25,49,144,119,67,650,31,21
23,50,133,118,66,769,32,21
25,55,140,123,67,823,32,21
24,53,123,113,67,876,34,23
22,52,123,116,63,882,36,21
25,43,122,94,61,791,38,22
26,42,134,111,56,719,35,21
28,42,148,127,62,693,35,23
30,46,149,122,63,652,34,21
31,54,144,133,67,676,34,24
29,60,155,132,66,673,29,23
29,72,151,140,73,809,29,22
28,73,130,122,66,873,29,23
28,77,152,126,81,882,28,24
28,73,159,134,77,841,27,21
28,72,150,140,76,813,27,21
29,60,166,121,69,688,27,22
26,55,166,124,71,579,27,21
25,54,148,118,54,567,29,21
25,53,138,93,53,532,28,21
26,49,119,85,49,507,26,22
24,49,83,84,51,497,28,22
26,51,86,76,48,540,27,22
24,55,103,77,50,517,25,22
23,52,100,93,49,525,26,24
20,51,103,96,53,592,27,24
20,53,104,114,54,570,26,25
22,57,106,120,56,523,28,26
22,48,91,117,53,552,27,24
24,51,92,106,52,616,28,23
25,55,97,101,49,565,26,24
26,68,103,85,50,544,26,24
23,66,107,88,53,578,27,22
24,65,113,96,54,542,29,24
25,65,136,99,52,533,29,25
25,63,135,100,53,536,30,23
24,45,137,106,53,547,29,24
24,39,127,94,47,559,27,24
26,37,122,88,42,579,27,22
23,37,93,85,51,533,27,22
22,36,109,94,51,538,27,21
23,35,106,83,48,556,27,20
23,42,122,88,54,539,28,21
22,44,129,91,55,551,29,21
24,45,141,96,48,578,26,21
23,45,137,86,45,575,24,23
24,45,141,79,52,575,26,23
23,41,136,83,45,574,25,22
23,41,139,90,46,558,25,21
23,39,127,81,51,530,25,20
24,39,117,77,51,544,25,21
22,38,114,82,45,535,23,20
25,38,119,78,57,559,25,22
25,41,111,65,57,562,23,21
24,40,118,66,56,566,27,21
23,37,116,76,57,565,30,20
25,38,105,74,58,587,31,21
23,41,104,74,48,584,31,20
23,41,116,76,48,587,31,22
22,40,109,80,44,580,29,21
23,39,105,70,43,608,26,21
23,40,109,78,43,562,25,19
23,40,106,76,42,520,23,21
22,37,92,90,39,503,24,19
22,42,118,89,46,530,25,21
24,45,122,92,44,511,27,20
23,45,129,89,47,533,26,20
21,42,129,88,46,576,26,19
24,40,138,80,48,582,25,18
24,36,124,75,50,568,25,17
23,36,126,78,64,543,21,15
24,33,119,75,62,579,24,18
24,33,109,72,62,555,22,20
21,34,94,72,61,566,23,21
24,36,96,79,54,580,24,22
23,32,92,75,44,597,27,22
24,34,88,71,44,577,25,21
24,34,89,81,47,592,27,20
25,35,101,75,45,587,27,21
22,33,89,73,47,611,26,20
24,41,97,84,45,602,26,22
22,42,101,89,47,608,26,21
23,43,109,79,44,613,26,20
23,41,118,88,49,628,26,19
23,42,119,82,49,620,27,19
22,40,118,77,44,582,26,18
24,37,122,74,42,570,25,19
22,35,120,78,46,566,26,19
23,39,149,77,43,574,26,20
23,37,148,87,48,573,26,22
22,34,149,87,52,603,27,25
22,36,148,85,53,601,29,24
21,36,150,83,54,621,28,25
20,32,99,73,54,611,27,25
23,33,98,68,53,571,27,25
23,34,96,65,55,555,28,24
23,36,95,68,52,569,27,24
25,43,101,66,51,526,26,24
25,45,102,82,48,572,29,23
23,45,100,75,47,580,29,22
25,42,98,74,46,588,26,22
25,40,94,78,53,575,27,22
24,33,77,86,52,559,28,22
28,32,78,77,59,495,26,23
27,29,86,77,55,521,26,24
26,29,87,74,53,556,27,24
23,29,110,104,51,581,24,23
26,30,118,109,54,565,25,24
25,33,128,104,48,619,24,22
28,39,125,106,52,621,26,22
27,41,133,110,52,601,26,24
28,43,122,89,54,570,28,25
26,43,131,81,52,591,28,25
24,41,123,89,55,554,28,24
19,37,128,93,57,583,28,24
19,36,117,96,60,578,28,24
18,34,109,93,54,593,28,23
18,33,91,90,54,605,27,22
20,32,90,91,52,627,28,23
22,32,88,89,48,573,27,20
23,35,91,79,47,531,27,19
23,38,91,70,49,506,26,22
23,36,88,70,49,493,24,24
21,36,88,58,50,478,23,28
19,33,80,57,51,501,21,30
19,28,99,77,52,532,22,30
18,29,97,81,50,552,21,28
19,29,107,81,50,547,22,26
19,31,125,86,46,528,23,22
22,56,152,96,48,503,29,21
21,57,145,93,46,487,30,19
24,60,148,92,47,467,31,17
25,63,158,97,46,460,32,19
25,63,147,96,47,479,34,21
23,45,122,84,40,499,30,21
23,44,117,77,38,571,30,22
22,40,134,87,38,548,28,24
25,35,124,80,43,595,28,24
25,34,137,74,51,576,27,24
25,36,149,77,54,560,25,25
27,37,156,89,61,613,28,26
27,42,162,84,63,668,32,26
22,45,161,96,69,633,33,25
23,45,158,105,65,620,34,25
25,45,147,111,65,644,34,25
25,46,152,99,59,704,32,24
24,39,135,94,60,685,31,23
24,35,125,81,58,677,29,23
25,36,115,72,59,702,27,25
25,34,114,71,58,696,25,26
23,32,100,73,57,627,23,25
25,35,86,70,54,656,18,24
25,38,101,78,48,656,22,24
24,39,107,81,43,687,25,22
23,40,116,71,47,682,25,21
26,39,121,68,50,594,26,24
27,39,123,72,53,536,29,25
26,35,117,70,48,530,29,24
26,32,124,67,49,504,27,25
25,31,120,67,43,662,26,25
23,32,114,67,45,798,25,22
23,37,115,68,45,849,26,21
24,40,111,64,45,892,24,22
27,43,103,70,46,865,27,22
29,48,118,82,56,745,30,23
29,48,120,82,53,717,32,25
28,44,124,79,49,680,29,25
28,45,133,82,53,635,30,25
25,44,128,76,51,628,29,25
24,39,108,64,40,653,27,23
23,40,106,60,45,548,25,21
24,40,105,61,49,510,27,22
26,37,95,65,50,513,26,24
25,36,96,67,55,517,27,25
25,39,99,66,54,539,27,25
25,39,103,76,50,505,26,25
24,42,99,81,49,520,27,22
24,41,114,81,47,512,25,21
23,39,127,85,39,575,25,19
24,36,145,91,42,502,25,19
24,34,154,83,48,609,29,21
23,29,157,78,45,615,27,22
25,36,149,72,42,634,29,21
26,36,154,67,48,608,29,20
23,35,139,64,48,662,28,21
24,35,123,78,45,596,24,22
25,38,119,81,48,611,25,21
22,38,113,84,52,600,24,22
23,39,95,83,46,588,24,22
25,42,94,80,46,578,25,22
23,46,93,68,45,593,24,19
24,45,97,62,41,586,23,22
25,41,106,56,39,559,24,20
23,41,104,65,41,559,23,22
22,38,112,63,38,561,24,23
22,30,118,68,39,548,28,25
21,35,132,75,46,530,28,24
22,39,135,85,43,678,27,25
23,38,151,87,53,771,30,25
27,49,151,99,58,784,31,27
27,50,153,95,58,810,30,25
26,51,163,96,62,837,30,24
24,50,160,96,63,748,32,24
25,51,146,90,56,635,30,25
23,41,148,76,57,591,28,23
24,48,142,78,57,537,28,23
25,44,116,73,53,483,26,24
25,45,120,65,52,440,27,24
25,47,130,67,55,427,27,21
23,47,119,69,54,386,26,19
23,45,136,75,50,352,25,19
20,43,147,74,49,342,26,19
21,42,142,76,50,352,23,18
19,41,136,75,47,379,23,17
23,43,140,79,42,397,24,20
22,39,137,86,43,430,22,21
23,42,127,98,42,477,23,20
25,48,123,98,41,495,22,21
26,47,132,97,36,488,22,22
25,46,127,91,39,484,24,19
25,47,123,78,43,452,26,20
28,46,126,70,44,396,27,23
27,39,126,64,47,389,27,23
27,37,114,60,49,372,30,22
27,41,122,61,51,362,30,24
27,48,127,65,50,378,31,23
25,51,133,58,46,381,30,21
25,52,140,58,47,394,31,22
24,55,141,65,46,420,27,24
23,52,143,70,44,447,24,22
25,48,129,72,42,444,22,23
23,42,120,74,45,476,22,24
25,43,118,77,47,456,22,24
25,42,116,75,46,444,23,26
26,40,104,75,49,443,22,26
26,37,124,79,55,432,27,25
27,38,129,83,54,419,27,26
25,36,124,83,50,435,27,24
26,36,159,87,57,429,27,22
25,36,167,95,54,400,26,22
24,34,160,95,48,404,24,22
23,32,152,92,46,383,23,22
21,30,151,93,49,360,26,21
19,27,111,92,40,374,25,22
21,28,97,88,45,387,25,22
22,29,89,83,45,394,24,23
25,37,89,78,48,406,23,22
26,39,104,81,44,398,21,23
27,40,115,80,44,456,20,21
24,41,121,70,41,472,22,22
25,42,135,65,42,488,25,23
23,34,135,65,50,508,26,22
25,37,140,66,51,544,24,24
25,40,148,71,51,511,26,23
28,39,152,76,53,508,27,23
27,39,140,84,60,522,27,23
28,40,156,97,52,515,28,26
30,40,152,94,49,506,28,23
32,40,159,116,96,736,51,24
30,43,161,139,112,931,76,26
33,45,163,140,112,1121,100,29
36,50,150,138,113,1181,105,27
36,54,158,145,115,1189,106,28
36,51,134,128,80,1052,96,29
37,52,147,109,58,861,78,27
35,49,142,102,50,814,42,25
33,44,143,95,51,1009,27,25
30,37,134,87,54,1039,26,24
28,36,133,77,54,1047,25,22
29,33,143,78,47,1095,26,21
28,34,145,79,46,1124,25,20
28,36,158,78,46,949,24,21
27,41,152,79,48,903,22,22
27,42,169,87,48,888,23,22
25,40,151,73,47,831,23,22
23,40,152,76,46,503,24,23
22,39,136,75,43,282,23,22
22,33,141,76,33,194,24,21
23,33,127,66,33,135,26,21
23,32,122,76,35,91,25,21
23,32,120,74,36,73,26,19
22,33,126,77,35,62,26,21
21,32,129,75,37,47,27,20
23,39,132,81,42,91,27,22
26,39,131,74,45,196,28,22
27,41,151,82,44,289,27,23
29,39,153,79,54,376,27,24
42,48,151,79,57,468,26,27
69,86,162,81,67,532,25,34
83,103,164,86,80,521,24,40
86,104,153,82,82,511,24,42
106,131,148,86,83,489,26,43
106,135,143,85,81,448,24,44
123,162,138,93,78,391,22,58
123,163,130,88,68,423,25,56
129,174,127,85,69,417,34,68
119,160,125,79,62,399,34,71
118,156,124,76,62,385,36,71
85,108,97,59,52,387,37,58
75,95,114,72,45,361,35,57
65,74,110,70,39,361,28,42
62,73,116,83,40,352,26,36
58,71,123,90,44,338,24,34
56,69,158,103,46,332,27,31
51,62,147,94,46,332,28,31
47,59,143,94,51,333,28,26
32,41,144,84,48,357,28,23
32,39,154,88,46,371,27,24
35,34,131,82,43,395,22,25
34,36,140,81,43,409,19,24
30,37,141,84,38,415,18,24
31,38,149,89,38,428,22,25
29,39,161,88,40,433,23,25
27,38,153,79,39,424,31,22
27,38,150,82,36,469,35,21
27,36,161,91,39,471,34,20
27,37,150,84,40,453,34,22
26,34,123,77,39,444,33,23
22,37,132,74,39,417,26,21
23,36,128,70,41,347,21,22
22,37,117,52,46,347,25,23
21,37,131,61,46,343,24,20
22,36,123,54,45,340,26,20
24,37,115,56,48,395,25,20
25,40,110,61,46,391,25,20
24,39,102,76,38,371,23,20
25,38,88,73,37,384,26,19
25,37,87,74,41,376,26,18
24,38,126,82,39,357,28,18
22,36,144,80,39,391,30,17
22,38,142,67,43,396,31,17
23,40,138,68,46,423,29,18
25,39,142,72,44,449,29,19
24,39,110,65,46,432,28,22
24,37,89,66,46,422,25,23
26,37,99,72,45,434,23,23
24,34,111,80,42,385,23,22
25,35,109,78,39,357,23,21
26,32,109,78,39,384,23,19
25,32,113,77,43,355,23,19
24,29,110,74,42,323,23,18
24,32,99,62,42,356,24,18
22,31,101,62,44,367,23,20
20,31,104,58,41,369,22,19
20,31,104,71,37,377,24,20
21,33,104,71,37,404,23,22
21,31,108,80,35,426,25,23
22,33,112,82,35,445,26,23
23,32,121,85,38,436,27,24
24,33,119,73,40,467,27,25
23,32,116,76,45,474,26,23
23,31,108,74,44,447,26,24
24,30,110,79,44,431,25,23
23,30,96,85,41,423,23,22
23,30,94,90,43,398,23,21
22,31,96,85,38,393,24,22
24,34,129,85,38,401,24,20
23,34,134,79,39,415,26,20
24,33,133,74,42,429,28,20
25,33,145,71,47,449,27,19
26,34,146,75,50,458,28,19
23,33,122,70,50,453,27,20
24,34,109,71,50,437,27,21
23,34,109,65,47,455,26,21
23,36,108,65,40,439,25,21
23,34,122,59,39,432,23,20
25,32,124,57,38,476,23,21
23,30,121,51,34,487,22,19
24,32,128,54,37,488,24,23
23,30,120,57,35,526,26,21
23,33,114,63,38,535,26,22
21,32,109,67,38,519,26,20
24,36,121,79,42,546,27,22
25,35,124,81,44,526,25,18
25,38,114,75,43,499,25,18
26,36,112,76,39,475,30,19
26,36,123,76,48,434,31,21
24,32,118,67,46,405,32,21
22,44,126,70,43,461,32,21
21,44,128,73,43,441,29,21
22,45,130,71,45,473,26,21
22,47,118,65,33,499,25,20
24,49,120,64,33,490,26,21
25,39,121,58,39,456,28,24
26,37,124,58,40,470,29,27
25,38,116,55,37,442,28,26
26,36,118,55,40,472,29,26
25,33,111,54,41,489,26,25
25,34,83,53,35,478,24,22
