46,91,154,35,23,20,19,22
49,84,150,38,27,19,20,23
47,88,145,36,20,20,18,24
48,87,138,36,21,19,18,25
45,80,134,38,24,20,18,23
50,88,138,31,25,19,20,24
50,87,138,29,24,18,21,25
50,96,134,28,25,17,21,22
49,94,121,33,26,17,23,25
39,104,122,32,25,18,23,26
40,102,114,33,24,19,21,24
49,102,116,34,25,18,20,24
49,90,131,33,23,21,20,24
49,94,134,31,21,20,21,22
48,84,128,31,22,19,21,22
48,74,129,31,23,20,22,24
43,94,137,34,21,21,22,22
42,97,130,34,24,20,22,23
42,92,136,33,24,22,22,23
44,91,145,31,24,21,21,23
44,89,144,30,21,20,20,23
38,72,150,25,22,20,20,23
46,72,147,29,21,22,21,23
47,93,138,30,21,20,20,24
47,95,148,29,19,21,19,23
41,94,149,31,21,21,20,23
51,97,132,32,23,21,20,21
54,100,121,29,22,20,19,21
65,95,162,35,23,20,19,23
65,94,142,37,24,21,20,23
66,108,144,34,22,21,19,22
62,103,154,33,22,22,19,22
55,107,170,33,21,21,19,23
55,94,141,27,21,21,18,19
56,104,148,30,22,20,18,19
57,93,144,31,23,21,18,22
52,89,132,33,21,20,17,25
58,82,129,34,21,20,16,26
54,87,122,32,21,21,16,26
54,76,116,30,25,22,17,27
55,77,129,31,25,21,17,27
54,80,139,34,25,21,19,26
47,78,124,34,26,21,20,24
64,85,123,37,26,20,20,25
64,88,133,36,21,19,21,23
63,92,131,43,21,20,22,23
66,92,122,41,22,20,21,22
75,94,126,40,22,19,20,22
60,94,127,39,23,21,20,22
61,95,113,40,23,21,18,22
59,90,97,36,23,21,19,23
56,91,93,37,22,21,19,24
46,98,104,38,25,22,20,25
48,94,100,38,23,22,19,24
52,91,93,37,25,22,20,25
54,97,91,33,25,21,17,23
55,96,101,32,27,22,18,25
61,86,111,33,25,22,19,23
57,80,116,34,26,21,20,23
52,87,122,34,26,21,18,21
51,87,123,32,26,20,18,23
50,84,126,33,27,19,17,20
48,85,111,34,27,19,16,20
56,89,106,32,26,20,16,19
56,78,116,32,25,19,18,19
58,74,140,35,25,20,18,21
58,84,136,35,23,19,19,21
63,109,150,38,25,21,19,22
49,108,165,39,28,20,19,22
55,113,155,38,27,20,18,25
51,115,143,37,29,20,18,23
53,116,141,36,28,19,19,24
53,96,125,32,27,18,19,23
56,91,113,29,25,19,20,23
49,87,113,29,25,19,21,22
55,100,136,34,25,20,20,21
52,94,135,35,24,21,19,19
41,86,129,35,23,19,19,21
44,92,119,37,22,21,20,20
53,110,142,40,25,22,21,23
45,100,128,34,23,22,22,22
54,107,123,34,26,23,23,24
54,118,121,32,28,23,23,24
48,119,147,31,28,22,22,24
39,101,144,26,27,22,21,19
46,107,139,27,27,22,21,20
38,114,146,26,24,22,18,23
44,107,151,27,22,21,18,22
45,109,139,34,27,22,19,24
47,118,122,35,26,20,20,25
46,127,140,36,29,20,22,27
49,112,169,36,30,20,21,24
54,113,177,41,32,22,21,24
54,109,172,39,28,21,19,25
53,101,176,39,28,20,19,26
53,95,171,40,26,22,18,25
57,99,137,39,25,21,20,26
54,98,195,38,23,20,20,26
53,120,202,34,23,21,21,24
53,116,203,33,23,21,21,26
47,101,192,34,22,20,20,25
51,100,197,36,26,20,20,26
49,124,152,35,26,19,20,25
51,111,151,35,26,19,20,26
53,110,143,39,28,19,20,22
56,121,156,41,28,18,20,25
55,125,153,42,25,20,21,24
56,101,134,40,24,20,21,24
54,89,130,39,24,20,21,25
54,90,133,36,20,20,23,25
51,74,116,29,19,21,22,23
41,67,118,26,22,20,22,22
50,67,122,24,22,19,23,23
56,69,118,27,23,19,24,21
56,76,113,26,25,19,22,21
56,96,121,31,26,19,22,22
56,95,113,30,24,20,23,21
42,99,129,37,26,21,21,22
44,107,116,33,25,21,20,21
52,110,113,33,26,24,21,22
53,95,107,34,26,24,22,22
54,101,132,33,26,23,21,22
53,96,116,36,26,22,21,18
51,89,117,38,26,21,22,19
40,88,136,37,23,19,23,17
40,102,139,33,24,21,20,19
40,100,116,34,22,22,19,19
49,97,110,25,21,23,19,27
46,98,124,25,21,25,21,28
49,111,123,28,22,25,19,30
47,98,128,30,22,23,19,29
77,97,143,32,24,22,23,30
72,110,142,34,24,21,22,23
70,115,135,35,26,19,21,23
70,95,130,34,25,20,22,21
71,101,166,33,23,19,23,21
52,112,168,31,23,20,21,20
53,103,167,29,23,21,21,20
53,98,169,30,26,21,20,21
54,111,173,33,26,19,20,20
64,115,126,34,27,19,19,22
52,105,115,35,27,22,18,21
53,109,123,36,27,22,18,23
51,110,127,38,21,22,17,21
50,96,110,35,25,23,16,22
45,83,121,34,25,25,18,19
47,95,120,35,23,21,18,20
46,89,109,35,24,23,18,20
46,88,118,34,26,21,19,24
60,99,143,34,22,21,20,25
53,109,139,35,23,20,20,27
53,97,155,37,24,21,21,27
65,116,165,36,25,19,21,28
65,117,153,32,22,21,23,26
51,111,139,34,21,20,22,27
54,104,153,38,21,21,21,27
53,106,141,38,21,20,20,27
56,86,130,37,19,21,18,26
56,79,139,38,19,21,19,25
56,75,129,36,22,23,18,24
54,72,114,33,24,22,17,21
57,75,116,33,24,22,19,21
53,77,117,35,26,22,20,20
54,83,116,38,26,19,16,19
53,87,119,39,25,17,17,19
54,86,117,38,24,17,19,19
62,78,114,35,24,17,19,21
59,82,115,35,24,16,18,21
59,80,111,34,24,20,19,22
60,78,116,33,24,20,20,22
59,79,125,30,26,20,19,23
52,79,129,30,26,20,20,23
48,83,123,31,26,21,21,23
51,84,123,29,27,19,20,22
48,83,126,30,27,19,19,23
62,102,116,29,26,19,19,23
62,104,108,30,26,20,19,22
56,105,135,28,24,19,19,21
53,108,128,30,24,18,18,21
54,109,117,30,24,21,19,20
41,97,134,31,23,22,19,21
53,106,142,32,24,21,17,19
53,97,135,32,25,21,19,22
52,97,144,34,23,22,20,22
53,105,153,35,23,21,20,23
55,106,147,36,23,20,20,22
42,95,137,36,21,20,21,21
50,96,133,38,23,21,19,21
50,91,162,40,24,19,19,22
51,84,163,38,25,20,18,24
44,72,176,39,24,20,18,23
53,85,176,38,25,19,19,26
47,112,184,39,23,20,18,24
49,118,159,35,23,22,18,23
48,123,172,38,24,22,19,20
49,128,159,36,23,21,22,20
54,125,164,35,24,22,21,18
53,104,147,30,22,23,22,18
55,96,150,28,21,21,22,22
55,107,139,27,19,21,21,23
54,107,132,28,20,22,18,24
55,101,143,28,17,21,17,24
55,100,162,32,22,19,18,26
53,95,154,33,23,21,17,23
54,79,158,32,25,23,18,23
59,72,159,32,24,22,18,21
48,77,156,31,26,22,20,23
56,75,155,27,25,22,19,23
54,76,167,30,25,22,21,25
54,80,159,28,25,20,21,23
56,83,175,31,26,20,22,25
54,74,169,39,27,20,20,26
46,70,150,42,27,22,19,25
46,69,156,41,25,20,20,23
44,50,154,42,27,21,19,24
33,61,130,40,26,20,19,22
43,66,145,33,25,20,19,18
41,68,144,30,24,20,20,21
59,75,131,31,28,20,20,24
58,80,128,28,25,21,21,23
61,69,127,30,26,22,21,25
52,76,104,31,26,22,19,26
61,99,125,34,28,21,21,25
46,98,117,30,26,21,18,22
53,113,122,32,26,20,20,21
51,115,139,33,27,20,20,21
55,111,141,33,27,19,21,21
47,103,142,33,27,20,22,23
56,111,140,33,27,19,22,24
51,105,142,32,27,21,19,26
57,109,127,34,28,20,20,25
52,121,137,33,27,21,21,26
51,112,129,31,25,20,19,25
61,102,129,33,25,22,20,25
60,94,124,36,24,22,19,24
56,88,131,34,22,21,19,25
58,75,112,34,28,25,20,24
64,97,117,41,27,26,21,26
50,96,120,38,28,25,21,29
50,94,116,36,27,23,22,29
48,94,101,36,27,27,21,28
45,95,111,40,25,25,19,28
44,75,116,35,26,25,18,25
44,82,126,36,27,25,17,23
47,89,129,38,27,24,17,25
47,90,131,38,28,22,19,24
50,89,134,34,23,18,18,23
52,94,120,32,29,19,18,25
49,94,110,37,27,19,20,23
46,88,103,36,28,20,18,22
54,98,118,36,28,21,20,23
51,102,120,35,29,23,22,25
48,109,115,35,23,25,21,25
47,106,141,37,22,24,21,25
47,107,146,39,22,24,22,24
51,102,139,36,22,22,21,24
53,96,132,36,22,22,19,22
54,92,162,37,23,20,20,20
62,94,139,31,23,21,20,20
63,102,145,27,22,22,19,20
58,99,159,35,24,22,19,20
69,105,163,38,23,23,19,22
67,112,146,40,20,23,21,21
60,116,148,45,24,23,21,22
60,108,176,46,24,23,24,22
63,113,163,41,23,22,23,21
50,108,177,43,26,21,23,22
49,97,169,42,28,21,23,27
48,95,176,37,27,22,23,28
64,106,140,36,26,21,20,27
59,111,162,41,29,22,19,28
60,113,141,37,28,22,21,28
63,131,133,36,30,22,24,24
71,129,136,34,31,20,23,24
55,123,142,36,31,18,23,25
61,112,147,32,30,19,23,26
61,112,156,35,30,21,22,26
66,90,156,35,25,22,18,27
59,91,159,38,24,23,18,26
59,86,162,37,24,23,20,25
55,103,162,36,21,23,20,23
57,103,162,33,21,22,19,23
49,97,173,33,22,21,19,20
49,92,171,28,22,24,20,21
63,105,168,30,21,25,20,22
61,92,157,29,22,26,19,22
58,102,150,31,21,24,19,21
58,114,145,36,24,25,19,22
56,111,132,36,24,24,17,19
50,105,130,34,25,23,16,24
54,102,123,36,26,21,17,25
53,89,129,34,27,21,17,24
51,77,137,32,25,20,18,23
61,81,139,34,24,20,19,27
50,77,145,35,24,20,19,23
45,75,132,32,21,21,17,21
45,73,129,32,27,22,18,23
48,77,117,36,28,22,20,25
36,82,117,35,27,22,21,24
40,82,128,33,27,23,22,23
39,81,156,35,29,23,23,25
52,83,154,34,24,22,22,24
51,82,159,26,23,20,19,23
52,83,160,27,24,20,19,23
64,86,146,27,23,21,17,23
65,85,134,27,20,20,18,24
55,96,155,29,19,20,21,23
54,107,167,29,22,19,20,24
56,108,165,27,21,19,19,23
47,104,159,28,23,18,20,24
48,111,157,29,24,20,20,24
47,108,132,28,23,21,18,24
47,113,117,29,22,22,18,22
59,115,141,33,26,23,19,25
53,124,140,33,26,23,18,24
50,118,134,32,28,22,16,23
52,112,136,31,30,22,20,23
57,102,136,32,31,21,20,22
52,100,115,31,30,20,20,19
52,88,120,36,28,22,21,20
54,92,125,37,29,23,24,22
64,96,132,37,28,23,21,22
64,87,127,38,27,23,23,22
54,80,127,36,24,23,21,22
57,82,139,32,27,21,22,22
62,84,122,30,23,20,20,21
59,91,114,37,28,21,22,21
54,96,126,32,26,20,22,21
55,95,121,32,28,20,22,21
54,94,99,34,28,20,21,24
48,93,114,33,27,19,21,22
50,83,137,27,23,17,20,22
51,75,124,29,25,20,20,23
52,76,140,30,24,20,21,22
55,75,153,29,23,21,21,20
65,90,173,35,25,22,22,22
57,94,155,34,23,22,20,21
60,94,160,35,25,19,20,26
59,91,160,34,25,18,20,26
69,103,156,32,25,20,20,26
64,87,126,29,25,20,20,25
63,86,145,29,26,20,21,26
68,99,137,27,26,20,21,21
67,103,142,31,28,20,20,22
56,95,140,32,27,20,19,22
62,111,161,30,26,22,17,23
62,110,144,31,26,22,19,22
56,97,161,31,25,23,18,24
64,105,147,29,24,23,19,24
63,113,152,30,25,21,22,24
56,101,128,28,24,18,23,23
61,97,127,26,24,17,23,25
68,118,122,33,25,16,23,25
64,119,119,32,23,16,23,24
70,123,107,34,21,20,22,23
68,127,115,35,21,20,22,22
64,135,133,37,24,21,20,24
56,121,119,32,24,20,20,20
61,119,125,33,24,20,20,22
55,115,136,32,26,21,20,25
57,116,149,34,27,21,19,26
68,118,148,32,24,22,19,24
67,122,154,32,25,23,18,26
59,120,158,31,26,23,18,25
61,127,151,31,25,24,18,25
66,119,132,30,26,24,20,24
52,107,126,29,26,24,20,24
58,108,130,32,25,23,21,23
66,117,120,32,24,24,21,23
68,101,116,31,25,21,21,21
65,112,147,32,25,21,20,21
65,122,138,33,26,21,23,21
63,114,130,30,25,21,21,21
81,108,168,29,26,21,21,23
75,113,171,29,27,20,22,25
83,116,160,30,26,22,22,25
84,105,160,28,26,20,19,25
81,113,173,27,25,20,20,25
56,105,144,26,23,20,21,21
61,101,142,28,23,20,21,22
60,90,151,25,23,17,20,24
62,110,152,29,23,19,20,24
63,113,146,33,22,19,19,25
67,113,155,33,24,19,17,25
63,117,164,33,21,19,15,23
49,135,161,34,21,19,18,22
46,125,159,32,22,18,17,21
53,122,153,31,24,19,17,21
54,120,140,31,24,19,19,20
54,127,140,32,24,19,21,22
59,110,125,31,23,20,19,21
63,121,142,33,23,20,19,20
60,122,146,32,22,19,21,23
58,131,155,33,23,18,19,22
67,130,153,32,25,18,18,22
64,126,166,32,25,17,19,23
62,110,162,32,25,17,20,23
66,113,165,32,26,18,19,21
76,109,165,33,25,19,20,25
72,96,159,35,24,19,20,25
75,99,144,35,26,20,20,26
80,108,130,31,26,21,20,28
74,111,142,33,23,21,18,28
60,103,126,33,25,21,19,29
54,100,122,30,25,21,19,26
48,93,121,29,24,22,20,25
35,97,158,34,26,22,20,26
37,93,145,31,29,22,20,25
44,95,142,32,29,21,20,23
44,98,142,34,28,21,19,24
46,116,144,36,29,20,18,25
52,114,122,38,28,22,18,25
61,110,116,38,24,22,17,26
56,109,135,39,26,21,17,24
61,106,135,38,24,21,18,25
66,86,128,37,23,21,19,22
63,74,113,33,24,19,19,25
58,72,122,36,27,19,19,23
97,109,111,36,29,21,18,29
96,114,107,34,29,20,18,29
95,119,104,34,30,22,16,30
97,118,109,35,30,19,16,26
92,118,102,36,28,20,18,26
72,91,89,32,24,19,19,27
78,97,102,33,26,21,18,27
78,101,119,35,26,21,20,27
85,98,111,32,25,21,22,26
88,103,105,29,27,20,21,29
71,107,115,31,28,20,20,24
62,102,143,31,26,18,19,23
66,93,132,30,24,18,18,25
69,105,139,28,24,21,16,26
66,107,142,27,23,21,17,23
69,100,165,28,22,21,17,23
92,109,142,27,25,24,19,25
89,124,147,27,25,23,19,22
78,115,141,33,27,24,19,23
79,108,138,34,27,23,19,23
76,109,103,35,26,24,19,25
55,101,112,34,25,22,19,23
51,90,112,34,25,21,20,26
53,87,152,31,23,18,19,24
59,94,152,30,21,19,19,26
63,107,152,26,22,19,20,24
56,111,148,29,21,17,20,30
57,105,147,29,20,19,19,28
64,112,112,29,23,22,21,29
62,108,117,29,25,22,22,28
59,91,130,32,26,22,21,27
58,81,118,28,26,23,21,21
59,87,112,28,26,22,22,22
60,94,116,28,26,21,19,21
57,94,112,29,25,22,19,20
58,102,102,30,23,21,17,20
59,102,106,32,25,22,19,21
74,109,105,33,26,23,19,23
72,94,96,31,24,22,20,23
71,90,94,31,25,22,20,24
77,99,102,31,27,23,21,25
79,102,129,33,25,25,19,26
64,90,134,32,26,24,21,25
61,101,136,32,25,25,21,27
63,104,144,34,24,23,21,27
59,95,148,34,26,22,22,30
53,98,125,31,25,21,23,29
51,110,124,30,29,21,21,28
43,114,123,29,29,20,20,25
40,119,113,29,31,22,20,24
50,125,107,26,26,23,21,23
52,123,115,29,30,21,21,22
52,111,113,31,27,20,19,24
57,106,120,31,27,20,20,26
81,126,120,33,31,21,21,30
73,133,148,34,32,20,21,28
81,130,143,31,28,21,21,28
81,135,142,34,33,21,22,28
80,134,142,34,34,21,23,26
70,119,164,35,32,20,21,24
91,103,142,33,32,23,19,27
87,117,149,35,34,22,20,27
88,124,153,33,29,22,19,26
91,121,160,33,30,21,17,28
84,115,143,37,31,22,17,28
60,110,139,37,30,19,17,27
59,113,138,41,32,20,17,31
66,101,138,42,32,21,17,31
67,98,130,41,33,23,18,30
67,99,128,36,32,25,19,30
67,107,129,37,31,25,20,29
70,99,121,35,32,24,20,25
64,97,115,33,31,25,20,25
70,104,131,38,29,26,18,29
69,102,168,40,28,24,17,28
71,99,168,42,28,24,16,28
65,94,179,41,28,24,16,27
67,94,194,44,29,22,17,29
65,98,180,41,29,20,19,26
79,104,153,38,28,19,19,30
76,123,155,38,26,21,20,30
86,126,148,37,26,21,20,30
83,134,142,34,29,21,19,28
76,130,155,36,32,21,19,30
58,122,149,37,34,22,19,25
68,116,149,34,36,20,21,26
63,114,144,34,34,20,20,25
62,110,137,35,34,20,21,24
65,132,129,32,33,20,23,23
66,134,155,42,32,21,23,25
57,127,156,42,30,22,22,22
70,140,156,42,30,21,22,25
71,137,163,43,28,22,21,25
69,112,165,46,30,25,17,24
75,110,130,35,29,24,16,23
75,104,144,39,28,25,17,25
56,99,173,46,29,25,16,22
61,95,190,50,29,24,18,23
68,122,200,49,25,20,20,22
68,126,214,51,26,21,20,23
67,122,201,51,29,18,21,23
65,107,200,46,27,18,22,24
67,106,175,39,29,21,21,24
61,86,174,36,30,24,20,24
57,85,168,36,29,25,21,22
58,100,164,35,29,31,21,22
65,112,136,32,31,32,21,24
58,115,131,33,33,31,21,24
59,119,137,38,33,30,21,25
54,116,133,35,32,29,19,24
53,108,144,36,30,23,19,22
51,96,161,45,28,22,19,22
51,106,163,45,25,20,21,20
47,94,152,41,25,18,22,22
46,91,158,44,25,19,21,23
44,95,149,41,24,22,20,23
44,101,125,32,24,21,21,21
41,88,127,35,24,22,18,24
40,85,118,39,22,22,18,22
43,94,111,38,24,21,19,22
44,83,117,38,26,20,20,22
37,79,123,42,28,21,20,22
48,90,134,43,27,20,21,21
52,102,131,39,26,21,21,22
53,92,125,44,25,22,20,22
52,98,123,43,24,19,19,22
51,98,126,41,25,19,19,22
44,95,143,41,28,21,20,23
49,87,142,42,29,20,21,23
48,100,141,38,31,19,22,23
53,100,144,41,32,21,22,24
54,98,141,42,33,22,21,25
53,102,110,38,31,23,21,24
51,104,115,40,30,23,21,23
50,92,119,37,27,24,19,22
47,102,113,36,26,23,20,22
45,101,127,34,24,24,22,21
40,95,127,34,24,22,22,19
38,91,130,31,27,20,22,21
38,99,139,34,28,22,23,20
49,85,158,36,28,21,20,23
50,85,151,36,29,21,22,24
53,83,149,38,28,21,22,27
48,83,138,41,25,23,22,25
49,96,139,44,24,20,22,25
47,101,114,41,26,22,22,24
46,101,112,40,33,19,18,23
43,103,120,36,35,20,18,22
44,103,137,35,37,18,17,21
47,93,128,33,37,20,19,22
37,94,126,37,36,20,22,20
40,100,121,41,28,21,22,21
49,96,119,47,36,22,22,21
56,96,117,47,33,23,21,25
59,88,118,45,34,23,20,24
59,78,117,41,33,23,18,25
57,76,125,38,33,24,19,26
50,83,136,31,23,23,20,24
53,85,138,33,26,23,23,21
46,83,138,33,26,22,22,22
50,85,145,35,28,21,22,20
50,81,138,43,31,21,22,22
52,88,121,45,34,22,21,22
39,88,120,45,31,21,20,22
47,91,114,46,32,21,21,20
42,89,109,45,30,21,22,23
54,122,113,39,30,23,22,21
54,124,117,40,27,23,22,23
54,124,99,35,28,22,22,24
47,124,106,35,29,21,23,26
53,147,111,36,30,23,21,25
43,139,121,39,30,21,22,24
42,128,125,36,29,21,20,25
43,134,137,36,28,22,22,25
43,129,139,37,29,23,19,24
35,106,139,38,30,22,20,25
53,86,133,43,29,20,18,27
52,87,146,44,29,20,21,24
52,75,140,47,30,19,19,25
53,78,140,48,28,17,20,22
52,79,148,49,25,19,21,24
29,85,147,41,25,20,21,22
54,97,129,43,24,19,19,23
54,111,127,41,25,21,18,23
54,113,140,40,26,21,19,25
57,113,130,39,27,22,19,22
59,111,132,39,25,20,21,23
46,108,133,37,25,20,22,22
54,92,131,40,25,21,22,21
55,100,123,38,23,20,21,21
55,98,126,37,23,18,21,26
56,93,118,37,22,19,20,26
61,86,124,39,24,21,20,25
56,91,142,37,24,19,21,26
54,80,130,36,24,21,19,26
54,79,129,37,23,22,18,23
55,87,138,38,26,23,19,22
53,89,135,39,26,21,21,25
57,81,118,38,25,21,20,24
60,95,127,37,25,19,21,22
61,94,122,35,24,18,23,23
60,84,134,35,26,17,22,24
48,87,130,35,24,17,21,21
52,97,129,37,25,19,21,20
48,84,136,38,26,20,21,21
48,90,153,42,27,21,20,19
48,91,135,42,23,20,19,19
50,112,152,46,27,22,20,21
59,114,161,48,27,20,20,21
61,115,147,46,27,21,20,23
59,113,139,45,28,20,20,22
57,114,150,45,31,23,21,21
57,100,144,37,30,23,19,21
46,92,146,32,30,24,19,20
52,103,153,31,29,23,18,18
52,104,154,34,30,24,19,19
53,101,153,33,29,23,20,20
52,91,147,34,26,22,21,20
51,89,133,35,29,22,22,22
49,97,143,45,32,23,22,22
46,92,155,43,30,21,22,22
48,100,148,45,36,23,21,25
47,96,166,48,39,23,22,27
49,112,170,48,38,24,20,27
45,94,156,41,37,26,20,27
52,105,160,49,41,27,20,28
49,98,152,47,36,27,19,26
49,98,131,48,34,26,16,26
43,87,122,49,34,25,17,25
48,97,127,49,33,23,16,28
45,84,97,42,26,21,16,29
46,82,112,42,27,20,19,30
45,90,117,37,26,21,20,30
54,90,131,36,24,21,20,29
47,82,127,36,26,20,21,25
53,85,125,34,29,21,22,24
52,99,139,33,29,21,21,24
54,98,131,32,29,20,21,22
49,99,125,28,31,20,19,22
49,98,128,36,35,22,22,25
46,99,131,36,35,23,21,25
48,87,101,36,34,22,20,25
45,81,109,38,35,22,22,27
51,74,125,40,35,22,23,27
56,84,123,33,33,22,23,26
50,100,117,32,29,21,22,25
63,110,122,39,30,21,21,28
65,116,126,40,29,23,19,26
57,124,106,37,27,25,21,28
54,118,105,35,24,24,19,27
59,111,106,36,26,25,20,27
48,114,124,29,27,25,21,26
50,115,122,23,24,22,22,26
47,102,120,27,26,20,23,27
55,110,131,30,28,20,25,28
52,110,144,30,28,20,24,28
54,102,126,33,29,20,23,26
50,99,131,36,29,22,22,26
53,111,140,37,28,21,21,25
44,112,128,35,26,22,18,23
54,116,117,36,24,21,20,22
49,114,139,34,23,21,20,24
50,112,146,32,24,21,21,23
50,102,136,32,24,19,19,22
54,100,146,31,26,19,19,22
50,100,176,34,28,19,20,23
48,95,166,34,29,19,20,25
53,98,156,34,30,19,18,26
51,99,157,32,30,19,17,25
47,97,146,35,27,21,20,26
40,89,121,34,29,22,19,27
41,93,119,38,31,23,20,25
45,89,111,39,31,22,22,24
52,90,119,41,33,23,23,27
50,95,125,37,34,21,23,27
48,95,133,35,31,21,23,26
48,91,126,29,28,20,22,26
47,92,129,29,28,21,21,26
41,91,124,28,26,21,21,24
43,82,118,31,27,20,21,24
47,79,87,30,26,21,20,23
47,80,99,33,28,21,20,21
34,83,102,32,26,21,19,20
39,83,109,30,25,20,18,21
46,78,105,28,26,22,17,20
43,74,145,30,26,22,18,20
53,74,174,29,25,21,18,21
52,67,168,30,27,22,18,23
49,60,167,31,27,21,20,21
52,69,174,31,27,21,20,22
53,80,156,31,29,22,20,26
44,79,120,33,30,26,21,26
46,86,146,37,30,24,21,25
53,92,139,38,32,25,19,25
45,95,136,38,31,23,19,25
44,91,121,37,32,22,19,22
47,107,119,36,33,19,18,23
46,100,102,34,34,20,18,24
35,95,101,34,33,20,19,27
46,84,112,34,32,20,19,25
47,92,119,35,32,22,20,27
44,88,121,35,31,22,21,25
47,92,114,33,28,20,21,23
57,102,120,30,26,22,23,23
53,117,109,31,28,22,22,23
52,107,150,37,29,21,21,23
52,107,148,35,27,20,20,23
50,105,144,36,29,21,19,24
40,99,142,39,29,19,21,22
31,101,141,36,27,18,21,24
44,107,106,30,25,17,20,23
45,102,102,32,27,17,19,23
45,113,104,29,23,18,21,22
44,114,113,25,25,18,17,22
46,103,128,26,24,20,18,21
33,94,117,25,22,20,20,22
30,94,119,24,20,21,21,22
43,92,134,24,22,21,21,23
44,89,126,27,23,23,20,23
42,87,108,29,24,23,20,23
42,100,104,30,25,23,18,22
42,107,103,31,30,23,18,22
35,101,100,33,30,22,18,23
39,101,96,33,28,20,18,24
52,124,113,34,29,20,18,24
52,121,115,32,28,21,20,22
56,144,126,31,25,20,20,26
51,144,113,30,26,20,22,24
54,153,120,28,25,21,21,24
42,134,125,25,25,18,21,24
43,136,135,29,32,18,22,26
37,96,130,34,29,23,21,23
40,117,153,37,29,23,20,22
31,106,156,37,29,24,19,24
29,103,140,44,32,24,19,25
49,99,143,46,25,24,19,23
51,111,141,44,24,20,20,23
52,92,123,49,25,21,18,24
53,98,119,50,28,19,19,21
53,100,128,45,25,20,21,19
67,103,134,49,27,21,19,23
67,96,136,47,27,20,19,22
66,91,131,38,25,19,19,22
67,82,128,36,22,20,20,25
66,79,118,37,24,20,20,26
38,95,107,33,23,19,21,26
35,90,107,34,29,20,22,26
48,87,104,35,28,21,24,26
47,91,104,37,28,21,23,26
51,111,158,38,26,21,22,25
49,92,165,38,30,21,21,22
49,90,159,37,31,21,21,21
42,99,166,40,33,20,19,22
50,96,169,41,33,21,21,24
47,85,129,39,33,21,20,24
49,82,116,35,31,21,21,23
49,83,118,37,28,22,19,24
43,82,124,34,31,23,20,24
44,92,139,36,38,25,21,22
42,87,157,40,37,25,20,22
42,86,150,45,36,26,20,24
47,97,162,43,35,25,21,25
49,110,157,44,35,27,21,25
52,102,152,41,31,25,19,24
53,96,138,39,31,26,21,25
54,94,138,32,31,25,22,26
54,95,132,31,31,27,21,25
52,75,122,30,28,23,21,26
52,79,158,33,27,23,21,27
55,84,159,33,29,22,20,27
52,91,181,35,28,21,20,25
56,81,178,36,28,19,21,27
56,103,181,35,29,19,22,23
45,102,166,30,27,19,21,21
44,101,158,29,27,19,21,19
44,101,138,26,27,20,21,18
46,117,155,30,28,19,21,17
46,96,163,33,31,21,20,18
48,97,147,37,32,20,20,21
46,107,160,36,30,21,20,22
45,109,160,35,30,21,20,23
57,95,158,34,34,22,21,24
59,98,142,33,32,19,22,22
59,107,140,35,31,21,24,21
60,98,150,41,33,20,24,20
62,102,145,42,34,21,25,21
39,97,123,40,27,21,23,19
47,92,128,38,26,20,21,22
44,82,134,36,27,22,18,22
44,84,103,28,25,21,19,22
41,77,105,30,31,21,22,20
42,89,115,33,30,21,24,20
31,96,123,34,32,22,24,22
31,95,101,35,30,21,25,22
46,95,111,42,35,20,24,25
49,114,152,44,33,19,20,25
49,121,157,45,36,20,20,27
48,117,148,45,36,22,21,25
47,114,150,44,36,22,21,24
32,117,156,40,32,22,20,23
36,100,126,39,31,21,21,23
35,84,122,37,31,23,20,21
44,97,120,38,29,20,18,23
47,102,117,38,29,23,19,23
48,122,151,45,28,24,19,25
41,121,145,41,29,26,20,24
41,121,142,40,24,23,20,24
32,113,149,40,25,26,22,24
42,120,151,40,25,22,20,27
42,104,106,37,27,22,21,25
54,100,103,38,24,18,20,25
54,97,113,43,25,20,21,26
54,96,112,41,25,17,20,25
48,113,138,49,30,21,20,22
46,105,128,44,27,21,21,22
35,113,134,44,27,23,21,22
36,114,121,40,29,22,20,23
39,117,135,44,28,23,19,25
47,85,111,36,25,20,19,24
47,78,113,34,26,20,18,26
44,70,106,35,27,21,20,28
49,84,106,36,24,21,20,26
47,102,92,34,27,24,23,24
36,114,97,35,26,24,23,24
37,117,94,34,25,24,24,22
37,121,137,35,26,23,25,23
36,124,149,34,26,23,25,22
36,109,145,31,25,21,24,24
37,98,143,31,27,21,24,25
38,110,170,35,28,21,24,23
38,115,146,36,27,22,20,22
41,101,139,36,28,22,21,25
51,96,132,34,26,22,18,23
50,109,147,37,26,22,18,24
50,113,119,35,24,21,18,26
49,105,124,30,25,19,19,24
49,109,142,32,25,22,18,23
48,117,155,33,23,21,20,23
49,110,145,34,24,22,20,22
48,91,148,33,26,21,20,21
51,93,141,37,27,22,21,23
44,89,127,38,26,21,22,23
33,84,118,41,30,21,21,24
36,79,113,38,28,20,19,23
46,78,108,38,28,24,20,27
48,73,109,38,29,22,19,26
49,83,96,36,31,22,18,26
54,85,98,34,30,22,20,25
50,85,117,37,30,21,20,25
55,97,135,39,31,20,21,21
50,101,134,39,30,22,23,21
50,92,137,41,31,21,22,21
44,84,136,38,30,19,21,21
48,103,133,38,33,21,22,23
38,96,121,37,31,20,21,25
42,103,123,33,31,20,18,23
45,120,142,32,29,21,20,24
46,151,144,31,30,21,18,24
47,142,135,29,27,21,18,22
45,142,127,27,27,21,18,21
42,133,122,28,27,20,20,23
50,136,99,29,28,20,19,21
52,101,97,30,25,20,20,22
53,103,113,30,27,18,20,24
52,102,121,29,26,18,20,22
50,109,128,28,26,19,19,22
43,89,122,26,23,21,19,22
58,94,117,27,24,21,19,23
54,88,100,30,23,23,18,23
54,97,95,32,23,23,19,23
56,92,97,36,26,23,20,24
55,88,102,34,25,20,19,25
50,88,106,35,25,20,19,25
49,85,105,33,26,21,21,22
51,82,117,37,26,20,20,23
49,81,108,34,25,19,20,22
53,89,114,35,26,19,21,21
49,94,155,36,26,21,22,21
50,104,149,36,25,20,21,22
48,99,142,30,26,19,22,22
49,99,143,33,26,22,22,21
77,105,164,37,28,22,21,21
72,105,132,34,27,20,19,21
74,97,135,34,29,19,18,22
75,96,132,34,29,21,18,22
74,95,130,32,27,19,17,22
56,98,117,32,26,20,18,24
56,96,108,34,25,20,20,24
56,119,125,33,25,20,19,22
56,116,125,31,23,19,18,21
61,118,140,31,25,20,20,22
53,106,121,29,25,19,21,19
53,97,122,27,24,19,21,21
50,81,111,26,22,20,21,22
51,96,113,27,23,18,23,24
51,98,100,27,22,19,22,23
53,106,100,25,22,19,23,23
53,111,135,32,28,20,23,24
54,124,193,34,30,22,24,24
54,120,195,34,32,23,21,21
47,117,194,32,31,21,22,21
49,123,226,36,33,23,19,23
52,124,213,30,29,23,19,21
54,121,167,28,28,21,19,22
64,130,189,31,26,21,18,23
70,134,194,36,27,21,17,25
60,120,164,34,25,21,17,23
65,137,155,34,26,20,17,24
73,126,148,35,24,22,18,25
61,127,134,37,25,22,18,25
69,138,156,35,28,22,20,26
78,139,149,34,27,21,21,28
73,126,151,34,26,21,20,26
73,122,151,34,28,20,19,26
73,111,148,31,32,20,20,25
66,96,126,29,29,19,19,25
64,105,128,29,30,19,18,26
72,101,128,30,30,20,19,26
65,126,139,30,30,20,19,27
70,130,147,30,26,22,18,29
70,127,137,29,27,23,17,28
66,124,155,33,28,23,20,24
59,128,156,33,27,23,18,25
65,107,158,33,27,24,19,24
61,112,156,32,27,22,19,21
61,125,159,32,27,23,21,21
71,121,146,34,26,23,19,21
70,122,184,38,26,23,20,18
67,119,173,35,27,22,21,19
71,107,165,36,26,20,21,22
75,103,163,36,26,21,20,24
68,107,174,35,25,21,18,26
74,103,145,28,27,19,20,27
71,116,156,32,27,21,20,29
71,127,148,32,27,23,21,27
83,128,147,38,28,25,22,27
79,125,135,40,35,25,22,26
71,120,122,43,36,25,21,25
70,107,106,47,38,24,19,23
83,94,116,46,39,25,21,25
62,87,122,43,39,24,22,23
64,101,110,39,34,25,21,23
76,103,122,41,37,28,21,24
82,105,140,36,33,28,22,26
67,104,140,37,32,28,19,24
68,111,143,36,35,26,17,25
84,111,155,38,36,27,18,28
75,120,166,34,32,24,18,27
71,121,161,34,37,23,18,25
73,128,164,37,38,23,18,25
75,135,164,39,36,24,18,27
59,124,154,39,36,21,18,25
83,125,134,41,37,21,18,28
87,123,137,44,33,22,18,29
86,116,134,40,32,21,19,30
84,101,136,40,32,23,19,27
92,122,149,40,33,25,19,28
79,117,161,37,30,25,20,27
74,119,146,34,33,25,19,26
77,127,184,36,35,27,20,26
93,130,175,34,34,25,20,25
83,127,173,35,35,23,19,26
76,118,156,35,36,23,20,26
86,122,171,39,34,23,20,26
92,116,121,38,30,22,21,28
74,117,123,37,31,22,20,29
78,105,139,37,27,20,20,27
86,106,151,38,29,22,19,27
78,96,156,34,28,20,19,28
71,99,157,40,30,22,17,26
87,99,162,43,30,21,18,29
88,98,137,39,30,22,18,28
78,96,135,40,27,20,17,29
79,106,117,41,27,20,18,28
89,111,139,35,28,20,18,31
75,99,131,34,30,21,20,29
75,100,171,38,33,21,22,29
79,122,185,38,33,23,21,26
82,120,192,34,33,23,22,26
74,125,196,35,33,22,21,21
80,124,201,36,33,22,19,23
83,127,179,35,32,22,17,23
81,113,161,42,41,23,19,22
78,120,175,47,48,27,19,23
75,109,158,47,48,26,20,23
69,119,156,47,46,25,22,24
63,118,151,48,45,26,22,25
61,116,157,38,37,26,22,25
64,123,146,35,27,23,21,27
58,125,148,38,27,23,21,26
62,121,144,35,25,23,19,22
83,120,159,34,27,24,19,23
86,119,161,37,28,21,20,24
80,103,164,34,29,23,20,24
83,97,158,32,30,23,19,23
79,95,164,31,31,24,20,25
71,98,167,31,31,23,19,25
78,106,161,30,30,27,19,26
85,97,150,33,30,25,20,25
109,108,154,36,29,24,20,26
110,106,166,38,29,24,20,26
101,103,152,36,29,24,21,26
93,113,145,34,28,19,21,25
100,153,134,32,29,23,19,24
72,149,127,26,27,22,19,23
70,148,121,27,31,24,20,22
68,146,113,28,28,24,18,18
76,134,115,28,28,23,18,19
74,125,139,31,26,20,20,22
72,122,167,34,27,21,22,22
75,121,153,33,26,22,22,22
76,133,152,33,28,21,22,24
73,132,166,34,29,24,23,24
68,106,149,32,29,23,22,24
66,102,116,28,30,23,22,24
66,120,126,27,28,22,20,25
71,108,131,27,27,24,20,24
66,110,108,30,27,22,18,24
59,107,118,33,26,23,18,25
60,114,129,34,26,24,16,24
57,100,120,32,26,24,17,23
54,107,122,32,26,23,16,26
55,104,127,31,24,23,17,27
51,113,148,29,26,23,20,23
53,124,153,32,27,23,20,25
60,137,225,43,32,24,20,26
78,144,244,44,31,24,22,27
77,141,252,43,31,24,21,26
75,132,234,43,31,24,19,29
73,115,224,43,30,22,18,27
72,100,161,33,25,22,19,27
61,82,135,32,26,21,17,23
63,90,121,35,32,23,21,23
65,93,127,33,32,22,22,21
69,94,128,31,31,23,23,23
76,97,115,32,31,22,23,23
68,95,118,31,30,22,23,25
78,110,119,29,23,20,21,25
77,108,121,29,21,20,20,26
78,109,129,36,20,21,20,27
64,105,173,44,20,20,17,26
59,120,162,46,23,22,18,25
51,105,163,44,26,21,17,24
59,108,162,45,30,22,18,24
55,119,205,40,30,21,18,23
56,128,174,30,29,22,19,23
63,113,173,29,28,21,18,23
57,116,168,31,27,22,21,23
56,117,176,30,25,21,20,23
54,118,132,29,27,21,21,23
56,103,124,29,29,21,21,23
48,110,124,26,32,20,23,23
54,112,127,26,33,17,20,25
45,110,114,27,31,18,21,25
47,95,101,30,30,18,20,24
45,98,101,31,31,19,19,23
67,94,110,32,28,20,18,26
66,91,108,30,27,22,19,23
66,90,100,30,27,24,17,21
67,88,123,28,28,24,20,23
67,97,127,25,27,22,20,24
45,100,137,28,28,22,22,22
48,98,135,30,27,23,21,22
53,111,137,32,30,21,23,24
50,121,128,31,28,20,21,21
50,111,135,35,27,22,21,23
51,107,123,31,25,21,21,22
43,108,130,30,28,20,23,22
41,113,139,30,27,22,23,20
50,105,151,32,27,21,23,21
51,110,142,29,27,20,23,20
51,106,139,30,27,21,22,20
50,107,137,32,25,21,22,19
45,85,138,31,25,20,21,19
34,83,103,32,28,22,20,19
37,78,102,34,30,23,19,18
36,81,119,35,30,23,19,23
36,66,116,33,31,22,18,23
36,63,98,30,31,23,19,24
46,65,119,29,28,23,19,26
41,65,117,27,27,22,20,26
50,65,93,25,27,22,22,23
50,67,98,27,28,23,22,25
50,70,110,29,27,23,21,23
41,69,102,30,28,24,21,21
44,77,108,33,30,24,19,21
35,84,127,33,30,24,17,21
39,83,136,34,27,24,17,23
54,77,133,37,29,24,17,23
54,92,125,38,28,22,18,23
54,94,140,36,26,22,19,25
57,90,152,38,26,21,19,25
55,111,173,41,26,20,19,21
48,109,186,36,26,21,17,21
49,116,199,39,28,22,18,22
57,124,193,39,27,22,19,21
53,123,171,37,28,22,19,21
52,106,149,33,30,22,20,22
46,116,167,36,31,22,20,23
50,100,147,34,29,23,20,22
42,88,143,37,32,26,20,22
55,91,150,39,29,26,19,22
58,92,139,40,28,27,18,23
65,84,95,37,28,28,18,22
66,119,103,35,28,26,19,23
66,114,101,31,25,23,17,21
62,114,88,30,28,23,19,22
76,113,95,30,29,23,23,21
79,109,105,31,27,22,23,22
88,73,112,33,28,23,23,24
116,76,112,32,27,22,23,24
139,82,196,31,29,23,23,22
143,103,195,30,26,21,20,22
165,109,192,30,32,22,21,21
160,114,187,28,31,22,20,17
147,121,186,29,32,22,21,19
127,115,103,30,29,22,20,23
117,102,121,32,29,22,19,22
74,97,158,37,24,21,18,24
69,90,180,38,25,20,19,25
66,78,182,39,25,21,19,24
55,88,177,40,24,20,18,20
48,80,166,40,29,20,23,21
49,79,134,39,30,20,23,18
49,79,115,37,29,22,23,19
38,82,119,38,29,22,22,20
39,69,122,37,29,22,22,21
40,79,117,38,28,22,18,23
38,92,131,36,28,21,20,24
47,96,118,37,28,20,19,24
41,96,116,36,27,18,21,27
44,99,113,36,27,21,24,27
48,91,113,35,25,20,24,27
84,86,87,33,22,20,22,26
88,89,111,35,26,20,22,27
89,83,106,34,28,21,23,23
93,77,108,33,28,18,21,22
98,89,110,32,27,20,22,22
95,89,148,31,29,20,22,21
134,90,140,28,28,20,22,20
155,95,139,29,27,22,20,19
158,110,140,28,26,23,18,20
163,110,157,30,28,22,18,22
151,104,119,29,29,23,20,24
117,100,106,29,28,23,20,24
98,109,135,30,28,22,20,25
90,105,134,30,30,22,21,25
74,97,115,29,28,21,21,23
72,94,127,32,29,19,22,22
61,91,132,34,30,20,23,21
44,84,107,34,34,23,23,21
43,83,109,35,32,22,24,21
49,88,124,35,33,23,27,21
44,89,117,35,32,25,24,22
46,84,110,35,33,24,24,21
46,76,102,34,31,20,23,20
42,66,117,36,31,21,23,20
32,62,101,36,32,21,19,20
42,83,120,35,29,20,20,19
42,92,137,37,29,22,22,24
43,92,144,35,25,21,21,25
42,94,132,35,29,22,19,23
38,89,129,36,30,23,20,23
35,102,114,33,31,21,20,23
41,98,128,34,31,22,18,20
42,99,126,37,36,25,20,20
43,93,124,39,34,23,20,25
48,126,156,39,33,22,19,25
44,112,158,41,32,24,19,25
52,115,158,37,31,21,21,24
51,121,163,36,26,19,20,23
54,129,171,32,24,19,21,20
50,109,146,34,29,24,21,20
58,105,146,35,26,23,22,20
46,102,122,37,27,25,21,22
55,100,115,36,28,24,21,23
53,134,147,35,28,25,20,24
54,131,151,37,25,21,21,25
58,134,147,34,26,21,19,24
59,142,146,35,25,21,19,21
55,144,152,37,29,21,18,24
54,110,111,39,33,21,19,24
60,123,132,36,34,21,19,24
54,138,129,39,37,20,21,25
57,134,135,42,37,18,21,26
61,132,154,42,35,20,22,22
64,131,164,42,34,20,20,21
69,121,144,43,33,21,20,21
65,105,154,43,33,22,19,21
61,107,148,43,36,25,19,22
58,140,166,48,39,26,20,24
55,141,164,47,40,27,21,24
42,143,162,48,45,29,23,24
52,138,152,50,44,28,23,23
50,136,169,47,43,27,22,24
61,111,134,40,38,24,20,24
62,111,132,40,40,26,20,27
69,104,134,37,36,26,19,28
63,104,166,32,36,26,19,29
65,128,150,33,34,25,19,29
61,127,141,33,33,26,19,28
60,129,156,32,28,24,20,25
52,130,159,30,26,20,18,25
52,127,127,29,28,20,17,24
59,118,126,26,30,22,19,23
57,110,130,29,32,19,18,24
56,108,116,32,33,21,20,22
60,106,124,35,33,23,20,24
60,111,129,36,29,22,19,23
57,106,130,36,27,21,19,24
49,102,140,37,25,22,19,22
49,108,126,33,22,19,17,27
43,108,121,34,24,18,17,28
47,116,124,41,26,20,17,28
51,104,122,42,28,19,17,27
53,111,105,40,28,18,18,29
51,101,109,41,31,19,19,26
52,101,112,40,29,20,20,22
47,85,124,33,28,19,20,22
40,79,133,32,26,19,21,22
40,70,145,31,26,21,20,18
41,109,152,31,23,20,20,19
40,115,140,31,24,19,20,21
41,123,121,30,26,20,22,20
41,128,144,32,27,21,20,21
37,131,148,32,28,22,20,22
45,100,160,34,31,24,20,23
46,109,166,33,30,24,19,21
47,102,179,34,30,24,18,21
41,95,161,35,30,23,18,22
49,99,155,35,30,22,17,25
41,103,151,34,28,20,17,24
49,83,144,34,32,22,18,25
48,80,135,33,31,21,18,25
47,81,142,31,34,21,21,24
42,66,137,30,34,21,23,21
47,83,119,33,34,21,22,20
40,93,122,32,30,19,22,20
39,93,123,33,32,21,24,22
40,99,133,33,28,21,21,22
38,104,128,33,26,22,21,23
33,86,130,28,28,22,22,23
43,87,133,32,27,22,23,24
44,88,124,32,27,21,22,23
43,89,127,30,28,20,22,24
43,86,128,30,30,19,20,26
42,88,120,31,30,19,19,26
41,75,115,29,33,18,19,25
48,72,121,31,30,17,18,25
53,88,87,40,33,19,18,24
55,90,104,42,30,19,18,19
62,90,118,43,29,20,19,22
56,92,122,44,27,20,17,21
51,131,133,42,28,19,18,24
52,136,142,36,25,19,20,23
57,137,130,32,27,20,19,24
50,138,126,31,26,19,18,23
49,144,139,29,27,21,19,24
54,121,138,33,29,24,22,21
61,109,133,31,29,23,21,25
58,107,133,30,30,24,22,25
60,106,142,32,31,25,23,24
61,100,131,34,30,25,24,23
60,90,112,31,28,24,21,23
55,80,118,31,29,23,28,20
57,88,132,33,27,21,28,21
54,100,128,34,31,21,27,19
58,94,124,33,32,19,26,20
55,93,120,34,31,17,28,22
58,94,120,33,29,18,20,23
53,83,107,32,30,20,19,22
51,87,116,33,26,19,20,23
50,99,132,36,25,20,20,24
59,97,142,43,28,21,20,24
52,94,147,44,35,24,21,24
55,101,142,44,35,23,21,24
55,109,143,42,36,24,23,25
56,101,131,39,37,23,22,24
50,103,125,32,34,24,20,22
55,104,102,30,26,20,19,23
57,111,106,29,27,21,19,23
58,91,81,30,28,21,17,24
55,88,83,30,28,22,18,24
55,87,80,32,30,21,20,25
57,96,95,32,31,21,20,24
53,120,142,32,29,21,21,26
60,128,159,29,29,19,20,25
61,132,161,29,30,19,20,25
56,129,160,26,28,18,21,25
54,128,164,29,29,19,23,26
60,102,123,35,32,20,22,23
56,98,102,36,31,21,22,25
55,106,115,38,30,20,23,23
56,108,131,38,30,21,22,22
49,96,123,35,27,21,19,19
55,106,129,31,24,21,20,21
55,108,135,30,25,21,20,21
56,102,125,28,24,23,18,22
56,111,116,28,26,22,17,23
56,112,130,29,26,22,18,24
42,96,136,32,28,22,18,27
49,83,137,33,26,21,16,25
47,73,127,30,28,22,18,25
46,73,128,34,28,23,21,27
46,74,122,33,28,24,21,25
45,78,118,32,24,24,21,22
42,105,108,31,27,24,22,22
41,120,119,35,26,24,22,24
44,138,119,34,24,25,20,20
42,140,115,37,26,22,20,24
57,143,106,35,27,21,19,25
65,133,114,35,24,22,19,26
67,123,141,32,25,21,18,25
68,95,134,33,25,18,18,25
69,101,137,28,23,20,18,24
68,112,161,31,25,20,20,22
56,111,159,30,26,19,19,21
54,110,129,29,25,21,21,23
53,110,128,27,26,22,21,25
60,113,126,27,26,22,21,23
47,94,113,29,28,23,22,25
48,85,111,34,30,24,23,26
47,128,114,33,29,22,22,27
45,141,128,38,34,24,21,25
34,136,121,39,34,22,20,26
49,141,102,34,33,21,19,25
46,143,104,31,31,20,17,26
49,115,110,33,31,20,17,24
49,103,95,30,26,18,18,24
50,100,95,27,25,20,20,24
36,94,108,29,23,19,20,24
44,102,136,28,23,20,22,22
42,87,132,28,23,22,22,21
42,82,131,30,23,21,23,21
43,91,140,33,27,21,23,21
42,87,133,34,28,22,22,21
43,81,98,33,28,22,21,23
42,96,107,34,29,22,21,23
44,97,104,33,28,22,21,23
53,100,99,29,25,22,19,23
56,112,99,27,25,20,19,23
52,111,135,33,29,21,18,21
55,108,133,31,30,20,20,22
53,105,133,30,29,19,18,21
52,108,129,33,30,19,17,21
58,100,125,33,29,20,17,21
54,101,96,27,25,18,20,25
58,105,95,30,22,19,19,25
57,112,102,28,23,20,20,26
52,99,103,26,22,19,22,26
49,95,113,27,22,19,23,24
50,89,104,27,23,22,23,23
43,82,111,24,22,22,23,24
44,72,108,24,22,21,24,25
47,88,104,23,23,23,23,25
48,90,95,24,23,23,22,26
52,97,92,25,23,20,20,27
55,95,115,30,27,23,20,39
56,92,121,31,28,24,18,40
53,78,128,34,30,23,19,41
59,87,134,37,30,23,19,42
54,84,141,36,31,24,18,40
56,98,115,35,31,22,20,30
54,103,104,35,32,23,19,28
55,106,98,34,34,23,18,29
46,97,87,31,35,23,20,27
58,102,95,31,35,24,21,28
56,94,99,31,33,22,20,27
55,97,103,31,32,21,21,28
58,93,98,31,29,19,20,25
54,92,100,33,32,20,19,27
49,88,92,34,28,19,17,27
53,81,88,30,28,19,18,27
60,84,95,30,30,21,17,26
56,86,127,29,28,21,18,27
60,88,134,30,31,22,20,26
53,82,134,28,31,21,19,25
51,88,141,34,36,20,19,22
53,89,139,34,35,20,19,25
62,85,111,31,36,22,19,24
58,92,111,30,30,20,19,23
63,96,104,36,33,23,20,25
59,89,86,32,30,25,20,25
52,85,124,33,28,22,22,24
41,87,136,33,27,22,21,23
48,75,135,34,29,24,20,29
51,89,135,28,25,23,20,27
51,99,139,31,26,22,20,28
49,100,108,33,30,22,19,29
57,103,105,33,30,23,19,29
51,105,101,32,29,22,20,23
55,102,107,38,34,23,20,27
62,115,123,43,39,22,20,27
64,112,122,45,40,24,19,25
59,117,116,46,43,24,19,26
63,127,121,45,43,22,18,26
54,123,116,40,42,22,17,21
58,122,105,34,38,23,17,21
56,120,106,26,33,21,16,23
62,116,112,30,32,21,17,22
66,121,117,30,31,21,18,22
71,131,117,32,29,20,18,26
61,112,102,28,28,19,20,27
61,120,106,31,28,20,21,26
63,123,110,31,26,19,20,26
60,113,95,34,28,20,20,27
52,100,93,35,25,22,20,23
61,104,104,36,27,21,19,24
61,95,98,38,27,23,20,24
56,90,86,35,26,23,20,25
60,97,107,34,26,22,22,27
65,104,126,32,27,19,23,28
59,119,133,35,29,20,22,27
65,119,134,37,30,19,20,30
63,121,133,38,31,21,21,30
56,120,129,36,31,22,19,27
57,108,121,35,31,22,18,28
59,91,108,34,27,24,18,30
55,99,104,33,26,23,20,27
54,107,103,32,27,23,19,26
54,103,108,35,29,25,20,28
48,115,101,35,25,24,20,27
44,117,102,33,27,22,21,25
41,114,112,33,28,21,21,24
56,105,118,32,26,20,21,25
57,104,101,32,28,20,21,25
58,100,101,30,30,20,21,22
70,106,124,31,31,21,19,25
69,106,115,29,35,24,18,23
62,105,115,31,38,24,19,25
61,96,123,28,36,22,18,24
66,94,135,34,38,25,18,25
57,96,133,33,36,25,19,25
68,104,131,32,30,23,19,25
62,106,126,31,28,24,19,24
60,109,137,35,26,22,19,23
55,103,129,38,23,22,19,24
57,92,110,37,26,25,19,22
45,79,116,38,31,25,20,22
52,83,127,39,34,24,20,21
55,85,111,35,34,25,19,21
54,88,109,34,37,27,22,21
59,93,133,35,35,23,20,22
58,103,138,36,32,23,19,22
54,95,134,35,32,22,20,21
53,87,145,37,36,22,19,21
54,98,156,34,33,18,16,21
40,90,140,35,35,21,17,20
48,85,134,34,35,22,17,21
47,83,132,35,30,23,18,22
44,85,142,36,29,25,20,23
45,71,127,35,28,23,20,23
44,73,122,32,27,21,21,23
33,66,129,33,28,21,20,22
45,74,130,30,31,20,21,21
45,71,108,25,30,22,19,20
48,76,117,22,31,23,19,22
48,80,123,24,31,23,19,24
49,87,141,24,31,24,22,24
47,91,145,28,30,23,22,27
45,93,142,30,31,19,22,30
40,94,138,33,36,23,23,28
44,88,141,34,38,25,22,27
42,85,121,34,38,24,19,26
35,105,112,32,38,24,19,22
42,108,109,31,36,23,20,18
49,110,151,32,30,20,18,19
45,114,150,29,27,20,21,18
46,120,148,30,26,20,20,18
44,98,147,30,24,19,21,19
37,94,168,32,24,21,20,20
36,87,138,28,25,22,21,21
42,94,134,32,27,23,18,21
43,91,138,30,26,23,19,24
43,91,141,30,25,23,18,23
43,95,127,30,26,21,19,25
38,94,113,33,26,20,19,23
50,95,136,33,26,21,20,24
50,85,133,34,30,21,20,21
51,85,131,35,31,23,20,23
55,89,123,35,31,23,18,21
59,92,125,34,30,23,20,25
113,135,110,33,28,21,20,31
119,161,104,33,26,21,20,31
125,160,107,35,26,21,21,32
125,162,106,33,25,20,21,32
129,163,102,36,25,20,19,30
79,122,95,31,26,22,19,22
78,106,99,32,26,20,20,23
78,107,103,30,24,17,21,23
76,107,102,31,28,18,20,24
65,106,102,27,29,17,20,24
75,127,94,29,29,16,19,26
78,121,92,29,29,19,20,28
71,128,91,28,31,21,19,26
79,125,109,31,28,21,20,28
79,126,115,33,28,21,20,28
73,120,121,31,28,24,19,26
74,129,118,31,28,23,20,25
74,129,121,33,27,22,20,25
76,134,101,31,27,23,21,24
74,132,109,29,27,24,22,24
72,117,104,28,25,20,25,23
64,102,107,28,24,20,24,26
60,96,110,25,24,21,23,26
50,88,110,26,22,20,22,27
53,84,106,27,22,19,20,28
54,95,117,31,24,23,23,28
55,109,118,29,25,24,24,25
54,114,107,29,24,23,24,24
51,113,108,27,26,24,23,24
72,130,103,29,25,25,25,25
71,145,105,29,25,23,20,25
72,140,115,31,24,23,18,24
79,138,125,32,28,24,20,25
78,142,140,34,28,25,22,22
64,128,137,32,31,24,21,22
63,105,127,29,29,24,22,23
61,93,123,28,30,23,22,21
56,122,128,32,29,20,22,26
56,119,115,28,27,17,21,28
51,121,125,31,26,20,22,28
52,129,127,31,25,21,21,27
46,126,135,32,26,24,22,26
46,118,119,28,25,25,20,24
51,119,127,30,26,25,29,22
53,117,116,36,27,25,29,21
56,122,124,39,27,24,28,23
62,126,105,39,27,23,28,26
58,98,113,38,26,27,28,24
62,108,105,39,26,26,19,25
57,113,117,31,24,26,17,26
50,101,98,28,25,26,19,26
44,102,103,30,23,24,20,23
52,106,89,30,24,20,23,24
60,89,107,30,27,23,24,22
64,83,109,32,25,22,24,23
75,84,139,33,26,23,24,27
75,85,137,29,26,24,24,27
75,89,160,33,29,24,21,26
66,98,144,31,25,22,20,27
67,101,138,36,29,21,22,26
54,111,125,37,29,21,22,22
65,118,123,40,29,22,23,26
61,126,99,42,28,22,25,27
56,120,100,41,30,22,24,28
50,117,100,36,26,22,24,26
66,109,103,35,26,21,25,29
63,114,121,34,27,21,23,27
64,110,134,31,25,20,22,25
63,108,142,31,25,21,21,23
64,113,145,32,26,21,21,22
58,120,141,30,27,22,21,20
52,112,145,28,26,20,23,19
51,108,130,31,27,20,24,22
54,114,120,33,27,20,23,24
60,107,124,33,31,20,24,27
56,105,134,34,34,21,23,27
65,101,118,37,34,22,21,28
69,96,122,36,35,24,21,28
70,98,133,33,34,22,23,26
69,106,139,33,31,23,21,28
68,98,119,32,28,23,21,28
57,94,135,31,29,22,24,27
64,97,136,29,26,21,24,28
61,94,142,31,25,21,22,28
77,115,131,32,27,20,23,25
76,118,130,31,25,18,22,26
82,127,112,29,26,18,18,27
73,130,116,28,26,20,17,25
78,132,104,34,29,21,17,26
63,117,100,33,28,22,18,27
63,122,122,34,29,23,20,27
53,106,132,35,29,24,20,26
56,108,124,38,30,23,20,26
57,102,118,34,29,22,21,24
59,107,117,34,28,22,23,24
61,99,101,34,30,22,23,23
62,104,104,33,34,24,23,23
56,94,109,33,35,24,23,22
60,103,109,34,36,25,22,24
58,92,107,33,35,25,24,22
55,95,104,32,33,24,23,23
55,96,95,33,31,21,22,23
63,105,97,32,28,20,24,23
52,120,112,31,28,20,25,24
53,126,108,34,30,20,20,24
62,125,113,37,32,22,22,24
68,131,122,37,28,23,22,24
63,134,114,38,28,22,20,25
64,123,99,39,31,21,22,25
63,117,144,37,28,21,21,26
51,109,155,40,27,20,23,25
55,103,145,40,28,21,23,25
57,88,145,39,28,21,23,24
57,78,144,38,26,21,21,21
56,67,99,37,28,23,21,20
65,77,95,30,27,21,17,22
56,101,102,27,25,21,18,22
56,107,109,29,27,21,20,23
56,112,132,29,24,22,20,24
63,120,132,32,23,20,21,22
53,119,122,33,22,22,22,23
59,100,109,34,22,20,21,22
56,101,107,34,23,21,20,22
62,103,114,32,24,20,19,22
52,95,117,33,23,20,18,24
58,95,117,35,23,19,18,22
49,97,139,34,25,20,18,24
59,93,158,38,24,20,19,24
55,92,138,38,22,21,19,23
56,92,137,35,22,21,20,23
56,98,143,33,24,21,18,23
57,91,124,34,26,22,17,18
47,96,119,32,25,20,17,19
52,87,130,30,26,18,17,22
56,89,129,31,27,19,18,23
51,84,114,32,25,19,19,22
51,99,111,33,26,21,20,27
53,106,110,37,29,21,19,28
56,109,92,36,28,21,18,26
51,107,97,33,28,22,18,27
57,108,107,38,29,22,17,29
56,94,126,39,27,19,16,24
61,96,111,35,28,21,16,23
60,106,112,36,28,21,17,23
68,112,114,41,34,20,16,21
64,105,131,37,35,20,16,19
64,103,117,35,36,21,17,19
63,86,117,34,35,23,18,21
56,90,122,35,35,23,19,21
45,103,138,34,31,22,22,21
48,109,125,33,29,22,23,23
56,110,137,35,27,21,23,26
51,118,134,35,25,20,22,27
48,109,130,33,28,20,22,26
50,98,113,30,25,20,18,26
51,94,122,31,26,21,21,26
47,92,113,30,30,23,23,23
46,98,114,32,30,24,24,23
48,97,135,33,27,24,23,23
43,87,131,33,29,25,23,22
48,98,127,36,30,23,21,23
58,112,122,35,28,21,19,24
58,100,130,33,30,17,19,23
59,103,120,37,34,19,19,22
60,107,123,41,34,18,24,23
62,94,121,37,36,20,25,22
57,85,118,38,34,22,25,21
55,94,109,41,34,23,26,21
59,95,98,37,32,22,26,24
59,88,111,36,30,23,22,26
58,108,104,38,26,23,23,26
56,105,115,38,28,22,23,26
56,111,123,35,27,22,23,26
51,107,132,35,26,23,23,23
51,114,134,35,28,22,23,21
40,100,133,31,27,20,21,22
31,114,142,31,28,20,22,23
38,105,134,31,31,23,21,22
41,102,133,31,30,23,19,23
42,104,136,28,31,22,19,22
44,103,147,29,32,23,22,19
44,89,130,33,31,25,20,20
54,89,138,31,27,22,19,25
53,93,128,32,28,23,19,24
51,87,131,35,27,24,21,24
50,83,110,40,27,26,19,25
55,96,117,40,28,26,20,25
39,102,106,40,26,25,20,20
44,104,106,42,26,25,23,21
45,101,88,42,29,25,20,22
46,105,119,39,31,23,20,20
43,90,114,34,30,22,20,19
53,91,121,34,30,23,21,20
56,106,132,36,31,24,21,23
55,118,126,36,27,23,21,23
55,119,119,35,26,24,21,24
53,122,126,36,26,23,22,24
47,125,123,37,30,23,19,23
47,113,127,32,30,22,17,20
50,116,123,31,32,21,19,22
54,110,117,28,29,19,18,21
53,112,113,31,32,21,17,22
54,102,114,27,28,18,18,23
55,105,131,36,31,17,21,23
56,90,133,37,33,19,21,22
51,90,132,38,32,19,20,22
53,91,128,37,29,20,21,23
51,103,135,37,30,20,21,23
40,99,108,31,30,23,19,24
36,102,154,33,31,21,19,26
42,99,149,33,31,21,20,25
46,98,162,34,34,20,19,25
52,86,159,35,34,20,21,25
64,91,166,34,31,20,22,25
69,86,126,30,27,20,23,23
70,86,127,29,29,19,24,25
67,86,117,26,27,18,23,24
63,85,128,29,28,19,21,23
52,72,117,28,28,18,18,21
47,89,119,29,28,20,18,22
45,94,136,30,28,22,16,20
48,108,140,30,28,22,17,22
46,106,128,27,28,24,20,22
51,111,130,28,27,24,21,23
50,106,134,27,28,24,21,23
48,103,120,27,27,21,21,23
53,85,137,27,27,25,21,22
57,86,144,28,27,22,21,22
58,88,145,36,31,24,22,24
57,82,141,36,32,24,22,22
59,86,135,38,35,26,23,22
54,81,107,38,36,24,21,21
55,79,96,37,35,24,20,25
50,86,111,32,36,21,18,24
49,107,119,32,34,21,18,27
48,122,138,35,32,21,16,28
52,124,143,34,33,21,16,29
47,125,143,40,34,22,16,25
47,117,125,38,33,23,17,23
48,97,127,37,34,23,18,21
45,76,107,31,33,23,18,22
45,88,121,32,32,24,19,21
48,84,126,31,31,23,20,22
45,85,124,31,27,23,21,25
44,91,110,33,28,22,21,24
47,88,111,36,27,21,21,23
44,81,93,37,30,20,22,24
43,80,89,34,28,20,22,25
46,85,88,36,31,20,20,21
50,81,121,36,30,23,20,23
47,89,133,36,29,23,20,24
49,87,127,37,29,24,20,24
50,84,122,37,29,23,20,21
49,86,129,37,28,22,19,22
47,122,102,40,28,18,20,22
48,125,92,39,30,18,19,22
45,123,100,39,28,20,19,21
47,125,107,42,29,21,19,22
45,118,102,44,30,21,21,23
43,78,100,41,32,21,21,23
41,74,104,40,30,21,22,23
47,82,132,39,29,19,22,23
47,86,140,36,27,18,21,21
48,93,141,33,30,20,22,22
50,93,140,31,28,20,21,23
52,91,142,32,28,20,21,23
46,96,123,32,32,22,22,24
50,101,117,35,32,22,23,25
51,106,125,34,30,22,22,23
51,111,134,34,29,21,21,23
50,112,122,34,30,23,21,24
46,105,113,35,28,22,20,23
62,99,129,33,29,22,22,29
61,87,120,30,26,22,20,29
61,86,124,34,29,24,21,27
60,91,121,34,27,23,21,25
61,98,137,32,25,22,20,26
44,96,136,34,25,22,19,19
51,99,140,35,26,20,20,21
51,91,128,34,26,19,19,21
58,81,144,35,26,19,19,20
58,63,134,32,27,21,23,22
55,77,111,31,25,20,23,24
52,79,109,31,25,20,23,21
52,86,128,28,26,20,24,21
43,86,114,26,26,20,23,22
41,93,110,27,27,18,20,21
36,85,113,25,26,19,19,20
28,80,114,26,25,18,21,21
39,76,97,27,24,19,18,21
38,74,105,25,25,19,21,21
39,73,110,28,27,20,19,20
48,74,112,34,30,20,19,19
49,72,111,35,33,21,18,20
50,73,110,36,32,22,18,23
51,82,108,39,36,23,19,23
50,80,100,38,34,23,19,25
43,90,114,36,33,24,20,25
43,111,132,38,30,24,20,25
42,115,161,37,31,22,25,22
41,109,164,37,26,21,24,21
41,106,165,36,25,22,24,19
40,94,152,37,24,20,23,22
46,91,166,37,24,18,23,21
49,97,154,39,24,20,16,24
50,101,165,39,27,22,17,25
51,105,165,38,30,20,17,26
52,107,172,39,29,20,17,24
48,101,150,35,30,21,19,24
36,92,136,34,29,21,22,22
38,89,123,32,26,19,22,22
51,98,121,34,25,19,21,21
51,98,114,32,25,19,23,21
54,88,107,31,24,19,23,23
56,92,121,34,24,18,21,22
55,93,139,35,24,19,21,23
46,88,146,34,25,19,23,24
47,85,155,35,24,21,22,25
47,84,164,38,26,20,21,26
46,78,148,33,27,21,22,26
46,79,173,35,31,21,22,26
45,74,165,38,29,22,20,25
42,78,162,40,32,20,20,24
43,74,148,37,31,21,19,20
45,76,152,39,31,22,18,21
43,73,102,37,28,22,18,22
42,73,125,35,28,21,17,24
42,70,132,32,27,22,18,23
36,73,133,34,27,22,24,24
42,86,134,36,27,19,23,25
49,87,126,38,27,18,23,24
49,85,103,38,32,19,22,23
47,90,85,41,29,18,21,23
45,89,83,41,31,20,14,22
37,81,98,40,31,22,16,22
37,80,110,36,31,22,17,22
35,79,117,37,31,25,17,23
43,69,125,32,32,25,19,22
44,77,136,35,33,24,19,22
43,65,122,34,34,24,18,21
37,73,114,35,38,24,22,21
38,72,108,32,33,19,21,20
34,73,104,33,32,19,22,22
34,64,109,33,32,21,23,20
34,69,131,33,29,21,22,24
33,56,126,33,28,24,19,23
45,71,141,33,30,25,21,25
41,97,154,35,31,26,20,26
42,98,140,31,30,25,20,26
48,99,120,30,32,26,21,24
51,104,126,30,27,23,20,23
40,103,141,34,29,25,21,21
39,80,129,32,27,23,21,20
39,84,136,31,29,25,21,20
30,83,141,34,28,23,22,18
27,79,142,35,29,21,22,20
24,76,126,31,30,20,20,20
24,74,127,33,33,21,20,20
23,73,125,35,36,18,20,21
22,70,133,32,35,18,20,21
24,77,134,32,33,21,21,21
25,74,127,33,31,21,22,23
27,77,124,31,30,21,23,23
26,79,131,31,26,20,21,24
26,74,121,34,28,20,21,25
23,63,120,34,28,18,21,23
26,64,119,33,26,18,22,25
31,73,133,35,25,19,22,25
42,75,120,33,24,21,22,22
43,84,126,34,25,23,21,24
44,87,136,31,26,23,20,24
44,90,131,33,29,25,20,21
47,89,125,31,31,25,17,22
38,83,120,31,32,25,18,23
48,81,114,32,33,24,21,20
51,82,104,35,34,25,23,24
51,88,109,33,33,22,22,25
45,87,106,33,34,25,23,23
48,90,119,32,32,23,23,23
37,90,121,31,30,23,21,24
33,87,117,32,34,22,19,20
34,80,110,33,33,23,21,19
34,75,104,32,32,19,21,21
29,78,101,33,32,20,21,21
36,77,92,31,32,18,20,20
42,82,99,29,26,18,21,21
41,76,104,28,25,18,19,21
40,72,105,27,24,19,18,20
39,64,93,31,27,21,18,20
32,56,108,32,29,22,18,21
26,63,111,30,28,23,19,21
26,65,126,32,32,24,19,21
29,66,123,31,31,24,18,22
29,64,129,29,31,23,17,22
29,75,124,30,30,25,18,24
43,64,110,30,31,24,16,24
45,65,109,29,27,25,19,26
45,67,115,33,26,25,20,27
47,67,123,35,22,25,21,27
46,77,126,33,22,22,22,27
32,82,145,33,25,22,22,25
31,85,146,35,27,21,19,24
28,87,146,33,29,21,19,22
26,88,150,30,29,20,18,21
26,78,152,34,31,21,19,17
27,75,134,34,32,22,19,18
24,69,117,33,29,22,19,18
35,88,130,31,29,21,21,24
35,90,115,32,29,23,21,24
35,85,104,28,27,23,26,24
35,85,115,29,23,24,26,24
42,90,116,30,25,22,27,25
43,67,104,32,26,23,24,21
42,70,126,34,30,22,24,22
44,76,129,36,31,21,17,25
53,76,119,35,30,23,16,24
50,82,133,38,30,23,17,25
47,103,134,38,31,22,19,25
47,101,111,36,29,22,20,23
47,110,131,39,30,22,22,23
47,111,129,40,30,18,21,25
52,113,136,37,29,20,22,23
56,97,140,39,29,19,21,23
56,97,138,39,27,20,21,24
55,86,127,35,27,20,22,21
48,85,130,34,29,21,23,23
41,79,108,33,27,21,21,24
32,88,114,31,28,20,22,25
37,88,119,29,29,19,23,24
41,82,103,31,27,21,23,26
41,85,109,30,27,22,22,23
42,92,117,31,27,23,22,24
42,80,100,33,28,25,23,22
40,77,101,35,32,26,23,23
34,77,137,41,34,26,21,21
34,80,146,50,37,24,21,22
41,83,143,49,38,24,22,27
50,94,176,47,36,22,19,27
52,112,189,46,33,19,22,27
69,134,196,43,32,21,25,28
69,138,194,35,30,23,25,27
65,133,190,36,30,23,24,22
66,137,167,36,30,22,26,23
62,123,168,39,27,24,22,24
68,113,150,35,24,23,18,24
68,109,152,34,24,22,19,23
67,108,153,36,24,24,21,26
61,112,149,36,23,25,18,25
61,113,127,32,23,24,24,25
41,101,121,31,24,24,26,25
51,95,104,29,24,24,25,26
51,91,103,25,23,20,25,23
62,80,99,26,24,20,24,25
67,92,106,29,26,21,21,25
68,93,95,28,27,19,18,24
62,93,108,30,25,19,23,25
62,90,110,34,24,19,24,26
56,90,116,34,26,20,25,24
54,92,133,38,28,21,23,27
49,127,143,39,29,21,24,28
55,135,137,38,29,22,20,28
56,142,147,37,29,21,18,30
50,138,165,37,29,20,19,30
45,129,153,33,25,20,19,26
46,96,159,32,24,20,21,26
44,81,171,32,25,20,23,26
48,93,175,31,25,20,23,23
47,90,162,32,24,20,23,24
49,93,154,36,30,21,25,24
53,111,139,34,30,21,22,24
53,112,139,35,30,20,20,21
50,99,126,37,29,20,19,25
50,99,115,38,30,20,19,24
49,98,121,35,25,18,18,22
40,80,138,35,24,19,19,25
33,77,131,35,24,19,23,25
43,79,126,33,26,19,22,21
49,82,138,31,28,19,24,22
49,82,136,31,28,19,22,24
47,82,137,35,29,20,23,20
46,101,137,34,29,21,19,21
34,99,144,34,29,21,19,23
42,100,145,30,26,21,19,24
41,100,149,32,28,21,20,23
43,105,164,34,32,19,19,23
44,98,161,40,35,21,20,24
45,92,164,40,36,21,21,25
29,87,154,42,37,21,19,23
34,85,148,44,39,22,24,22
42,73,110,42,37,23,24,23
43,77,120,42,34,23,23,23
44,80,139,42,34,24,23,20
46,85,146,40,35,23,23,20
40,84,144,39,32,23,17,21
30,79,144,36,28,24,17,20
34,61,135,31,32,24,16,19
32,65,126,33,34,23,17,21
38,68,124,34,31,22,16,20
41,66,123,31,33,22,16,19
46,103,134,33,40,23,16,24
53,109,127,33,40,23,23,25
54,117,127,33,37,22,23,25
49,119,139,33,38,23,23,25
55,125,140,35,39,22,23,28
52,108,128,34,34,21,24,24
40,106,139,36,35,22,19,22
45,94,130,35,39,25,18,23
46,87,110,39,41,25,21,24
47,88,107,40,38,24,20,22
49,90,120,47,41,24,21,23
50,89,104,45,38,24,20,24
54,94,91,44,35,22,21,24
54,100,98,42,34,21,20,26
46,99,98,44,36,22,23,26
50,94,80,36,31,21,21,26
48,97,94,36,30,20,24,25
37,98,96,40,37,21,24,23
47,93,102,44,38,21,23,21
47,88,113,41,37,23,22,20
47,99,116,43,39,23,23,21
47,95,107,41,40,21,20,20
47,98,107,34,34,21,19,20
45,101,149,32,34,20,19,20
48,99,146,30,36,21,19,21
45,84,139,30,34,22,18,20
46,84,151,33,32,22,20,21
47,84,148,38,39,24,20,23
39,85,106,38,37,24,20,23
47,89,123,43,42,25,20,23
52,88,129,43,43,25,21,24
51,85,116,42,46,25,20,24
52,76,123,41,41,26,20,22
51,72,124,40,41,28,21,22
46,78,97,33,34,25,19,21
40,81,117,32,34,25,21,20
47,90,132,37,31,24,21,21
47,91,134,34,30,20,21,21
48,94,130,34,31,21,20,20
48,92,145,34,30,22,22,20
50,94,153,36,30,21,23,20
48,91,144,30,30,22,21,19
48,88,146,31,33,24,22,20
48,80,139,34,32,20,23,21
41,74,132,39,35,20,23,20
39,81,147,35,34,22,21,23
32,72,153,36,35,22,21,23
47,76,144,41,34,21,20,25
51,76,148,39,34,23,19,24
60,79,142,36,34,23,19,25
62,68,103,39,36,23,20,23
68,67,105,38,35,23,19,22
63,67,110,31,35,21,19,21
62,83,104,34,37,22,20,23
65,87,113,35,33,20,17,24
63,97,116,39,33,19,17,25
61,103,101,41,32,21,23,25
59,101,95,44,38,23,25,26
60,93,103,43,37,22,23,24
54,83,99,42,37,23,24,26
64,70,99,37,34,23,25,25
65,68,108,39,37,22,20,25
64,71,120,35,30,22,21,25
63,68,126,33,28,22,21,24
58,70,143,35,33,23,21,23
47,75,144,39,36,24,20,22
40,78,146,37,37,25,21,22
50,82,143,36,38,22,19,21
58,80,134,42,43,23,19,22
59,80,126,39,39,20,24,21
59,77,136,38,39,20,25,21
88,74,122,38,41,21,24,20
94,77,118,40,40,23,25,18
97,85,123,35,35,22,26,18
102,86,107,35,34,22,21,20
105,86,101,32,38,21,20,20
85,89,101,32,33,20,19,22
77,81,105,30,33,20,21,23
86,87,111,30,34,23,21,22
88,88,120,32,36,24,21,23
99,90,104,37,36,23,20,23
100,86,115,38,40,25,23,23
97,88,110,39,42,24,21,23
80,82,100,38,41,21,21,23
68,80,94,37,40,23,21,20
46,85,109,37,36,25,23,22
38,86,100,40,37,25,21,21
46,93,124,43,35,26,22,23
45,95,149,45,43,28,22,23
45,96,161,45,43,27,20,25
41,94,154,41,40,27,20,21
43,89,153,40,41,27,21,22
31,82,141,37,41,27,19,22
38,78,130,36,35,26,21,24
38,80,126,48,51,26,22,23
38,75,124,50,52,25,22,24
43,95,124,49,50,26,21,24
45,96,121,51,56,25,25,24
43,89,113,53,58,23,24,23
47,90,112,41,43,22,22,21
48,92,126,38,47,23,22,23
43,75,140,39,47,22,21,22
42,75,136,35,36,21,17,21
40,74,132,37,35,23,18,22
35,79,127,37,36,23,17,23
44,90,128,36,33,21,17,19
45,88,117,34,32,21,19,20
44,81,117,31,34,23,18,21
44,84,114,31,37,22,16,22
44,73,108,34,37,23,18,21
38,65,95,36,36,24,19,21
38,64,106,37,37,24,19,23
41,69,128,43,40,23,19,22
40,72,146,42,37,22,19,20
41,85,150,43,40,23,19,21
40,78,148,44,39,22,20,20
38,88,136,43,38,21,20,19
46,90,118,38,33,21,20,20
47,91,93,36,36,23,22,20
46,86,91,33,33,20,22,19
44,84,102,32,31,21,22,23
42,76,115,33,32,22,20,24
37,78,120,34,33,21,20,24
39,75,129,34,27,20,19,24
39,67,130,36,31,21,18,26
39,77,124,36,31,19,17,24
41,98,134,37,32,16,19,22
33,95,138,37,31,18,19,21
31,96,127,37,34,19,22,23
43,102,123,34,33,19,22,24
44,103,116,34,38,23,23,29
42,85,91,39,37,25,22,29
44,92,70,39,37,22,21,30
54,96,99,43,39,24,20,32
44,98,121,45,41,26,20,34
44,93,123,44,37,25,20,29
43,91,131,38,35,25,19,32
43,80,139,38,37,26,21,30
32,72,134,38,36,24,20,27
42,68,118,36,34,23,22,23
43,68,120,35,34,23,21,25
43,79,120,35,35,22,21,22
45,85,118,46,39,22,19,22
43,86,115,45,41,21,18,24
34,88,112,46,44,23,17,23
31,120,119,46,43,22,19,21
30,113,113,48,46,23,19,20
32,109,109,42,43,24,20,21
31,110,107,46,41,25,21,19
41,106,106,45,39,25,21,20
40,69,90,46,40,26,19,22
40,70,103,50,40,24,21,21
37,69,129,49,38,22,20,20
43,64,122,42,36,24,20,22
34,62,123,40,32,25,20,24
35,58,125,40,34,26,19,24
50,84,109,38,33,27,18,24
51,91,97,34,31,29,18,24
50,93,107,34,35,27,18,23
53,96,110,36,36,22,18,19
61,99,126,40,37,22,20,18
51,81,144,38,34,22,19,18
51,121,149,43,37,20,19,18
48,129,147,46,37,19,20,18
56,135,144,45,41,21,20,20
47,137,144,41,37,20,20,21
48,134,139,40,37,20,20,23
50,114,113,35,33,23,19,24
58,110,109,33,28,23,19,25
54,112,111,34,30,24,23,24
60,111,95,35,31,23,24,24
64,112,80,37,35,24,27,23
63,95,145,38,35,24,26,22
60,84,147,38,37,25,25,22
56,77,157,35,32,23,24,22
59,82,159,35,35,25,23,23
56,106,166,34,33,25,19,22
67,115,140,35,36,22,20,24
65,115,136,36,35,22,21,22
69,123,125,35,34,21,19,24
61,121,125,34,35,22,19,22
57,99,122,34,37,21,20,22
46,93,104,32,35,20,19,22
52,108,115,34,38,20,19,22
49,95,117,34,38,20,18,25
52,93,116,35,38,19,17,26
57,104,133,33,36,21,17,28
55,131,146,37,35,21,17,28
50,123,143,37,33,20,16,28
46,123,144,38,35,22,18,25
46,125,150,37,34,21,19,25
52,142,138,35,33,20,18,23
48,134,150,38,34,23,19,23
46,133,143,35,35,22,19,21
47,134,154,34,35,22,17,22
44,132,152,35,39,23,16,21
47,117,142,37,40,25,18,20
47,90,109,33,40,23,18,20
46,90,120,37,40,24,18,20
49,87,101,39,38,22,19,20
48,80,93,37,32,21,18,19
35,96,108,39,29,19,17,18
39,107,107,38,32,18,17,18
39,109,99,39,35,19,19,22
36,110,99,38,36,21,22,21
37,112,90,39,39,23,22,22
34,92,97,38,39,24,22,23
35,80,108,35,38,24,21,23
34,78,111,31,36,24,21,20
36,80,112,30,35,24,17,20
40,81,131,33,34,23,19,22
41,70,116,32,36,23,20,24
36,78,103,35,39,26,21,23
39,81,101,36,38,25,20,23
40,83,118,36,36,23,22,24
35,82,104,35,37,23,21,20
40,90,103,35,37,22,19,20
40,86,107,32,30,19,18,23
39,86,113,30,37,20,20,23
38,88,93,36,44,21,19,21
42,103,89,35,41,21,18,23
47,101,110,35,41,20,20,22
47,101,111,37,44,21,20,21
48,104,110,37,39,21,18,21
50,105,117,30,33,21,20,22
48,98,117,31,34,20,20,21
41,98,97,28,34,21,20,20
51,92,103,26,31,21,20,21
52,89,100,29,30,20,21,23
54,82,87,33,31,20,20,21
52,70,96,43,31,21,20,23
50,65,115,43,33,20,20,24
50,92,116,47,33,20,20,23
48,88,112,49,35,21,20,20
43,88,112,47,32,19,19,23
45,90,106,43,37,24,20,23
45,100,88,43,34,24,20,22
34,86,95,38,35,26,21,21
35,91,103,36,32,25,21,25
35,93,111,35,34,26,22,25
38,87,109,29,27,21,21,26
38,82,115,29,31,22,21,26
45,76,102,26,30,20,18,26
43,81,100,24,31,19,18,23
43,81,93,23,31,19,16,22
46,90,97,29,32,20,19,23
50,89,91,28,29,18,18,25
45,85,116,29,29,21,20,29
46,79,116,31,28,23,22,30
57,83,116,32,27,22,22,31
48,79,114,28,28,23,20,27
45,72,143,30,29,24,21,25
43,80,138,32,28,22,22,20
46,77,133,34,30,21,20,19
40,79,136,35,32,22,21,20
45,81,140,34,31,22,20,21
49,83,112,34,29,21,21,24
52,99,103,32,31,22,19,25
51,108,124,35,33,23,18,27
54,107,123,36,35,23,16,26
52,108,123,36,34,20,17,25
51,110,116,36,35,20,17,25
48,100,124,37,34,20,18,24
48,104,137,32,31,17,18,21
40,102,137,31,33,19,18,27
42,100,133,32,37,22,18,26
41,99,133,30,37,23,17,25
47,96,127,35,40,22,17,24
44,92,103,41,42,26,18,26
43,89,101,42,36,24,19,20
38,89,130,44,35,23,20,21
34,96,136,46,37,22,20,21
27,90,126,43,33,22,21,22
46,90,115,42,31,21,20,21
48,108,113,42,33,21,20,22
53,107,82,37,30,22,20,22
61,104,76,36,26,22,21,22
66,104,83,35,26,22,21,22
57,95,108,33,27,22,21,24
55,73,116,31,27,23,22,23
51,78,116,34,28,21,21,23
44,102,118,33,30,23,21,24
38,99,117,35,31,24,18,22
35,101,108,33,29,21,18,19
34,101,105,35,28,24,20,20
45,98,107,33,27,25,20,23
42,66,102,31,25,22,21,21
40,76,94,34,32,22,22,22
45,76,109,40,37,26,24,24
47,88,115,40,38,23,22,23
45,96,109,40,43,24,21,21
48,105,114,44,44,25,21,22
49,102,124,42,38,24,21,22
48,98,98,33,32,19,19,22
47,98,89,32,34,19,20,23
40,95,93,31,27,19,21,24
35,89,90,31,25,18,20,25
42,93,88,29,24,20,19,26
42,98,104,32,25,22,20,24
44,90,101,31,21,22,20,27
44,82,102,32,23,21,19,27
44,74,95,28,23,22,20,25
47,73,89,28,24,21,19,26
45,77,87,26,23,19,19,26
43,73,97,23,22,21,18,26
45,83,97,23,23,22,20,27
45,84,104,29,26,21,20,26
35,84,111,29,25,22,21,24
30,76,103,30,26,22,22,27
30,81,95,32,28,21,22,24
26,77,98,33,27,23,21,22
28,79,100,31,28,24,22,23
34,81,108,31,31,24,22,24
34,79,128,31,32,28,21,21
35,75,149,30,31,27,21,21
35,72,153,29,31,26,20,21
33,73,151,26,30,26,18,18
25,74,143,24,28,24,17,18
27,90,133,27,27,21,18,22
26,89,109,29,29,22,20,22
33,99,109,33,27,21,21,23
34,100,104,34,28,21,22,24
34,102,118,34,29,21,22,26
33,94,121,34,30,24,21,24
32,97,118,37,30,24,20,24
40,91,112,33,31,24,20,21
41,89,128,33,27,24,20,21
45,82,115,37,27,24,20,22
45,79,103,38,25,20,19,21
51,97,112,34,23,19,21,23
40,96,116,36,25,20,21,23
52,102,111,38,26,19,22,24
49,97,113,38,29,20,23,21
48,101,108,36,30,20,23,22
44,96,116,34,29,22,21,21
44,93,111,35,27,21,20,25
49,96,104,38,30,22,20,24
48,111,105,37,28,20,21,27
50,106,116,39,28,22,23,26
53,96,99,40,28,21,22,26
62,96,98,39,27,20,22,23
49,87,105,35,26,22,24,25
52,77,137,34,28,25,23,23
51,71,136,31,34,22,23,22
47,65,133,31,34,21,22,23
40,64,131,33,35,21,22,23
41,62,123,36,34,18,21,20
52,62,99,37,33,18,22,20
52,66,95,36,26,18,21,19
59,70,109,38,33,20,23,22
54,78,108,35,32,21,23,22
59,84,108,33,32,23,22,22
45,86,91,28,30,22,21,24
46,93,117,34,32,23,21,26
45,100,107,32,27,22,22,26
48,93,113,34,27,23,22,28
48,101,124,33,28,21,22,29
51,99,146,33,28,20,22,26
53,94,120,27,27,19,21,24
50,91,119,30,30,22,20,23
51,96,114,30,34,22,21,25
54,96,116,34,35,23,23,23
57,95,88,37,37,23,23,23
54,92,93,37,37,24,24,25
54,96,116,41,36,23,23,24
53,92,115,41,35,23,23,22
47,77,114,40,32,20,22,22
46,77,119,40,32,22,23,26
48,88,127,40,32,22,22,28
45,80,110,38,29,22,22,28
42,85,121,39,27,22,20,26
35,85,112,36,27,25,21,28
42,88,115,33,24,23,20,24
44,78,112,35,27,24,19,18
45,79,112,33,27,23,19,20
46,74,107,30,28,24,19,21
45,83,106,34,27,23,17,21
33,73,99,37,28,23,18,20
40,78,92,35,24,20,19,25
39,75,96,37,27,24,19,25
39,83,115,36,27,25,19,26
41,72,117,32,27,24,18,25
45,82,111,28,26,24,16,26
34,82,122,31,29,27,20,23
47,78,130,27,25,24,19,25
47,79,121,27,26,22,19,23
53,84,118,28,26,23,20,24
49,79,117,30,27,23,21,24
49,84,101,32,30,21,17,24
36,89,83,32,30,21,18,20
38,81,92,32,29,21,19,22
41,85,97,32,31,21,20,24
44,82,110,31,30,22,22,25
48,82,139,28,30,22,21,27
50,75,146,29,29,22,19,29
48,80,128,27,29,22,19,27
37,80,134,27,29,21,19,27
48,79,126,31,31,21,19,26
60,74,107,31,29,20,21,23
62,76,107,32,30,20,22,23
63,76,113,32,31,19,21,25
63,80,103,31,31,19,20,23
58,88,105,28,32,19,19,23
46,90,101,26,31,20,18,25
44,94,87,29,36,21,19,26
44,93,105,29,35,20,20,25
43,79,104,30,33,21,20,25
44,81,106,30,39,19,21,25
49,77,102,32,47,20,20,25
49,96,107,33,46,20,21,23
50,93,81,35,47,22,21,25
50,95,110,33,47,20,22,26
45,94,119,35,40,21,21,24
38,98,118,33,27,21,21,23
42,87,147,35,25,22,19,24
49,92,147,36,30,23,22,24
49,103,127,36,31,23,23,22
52,97,118,36,32,22,23,24
52,97,153,38,38,21,24,24
47,90,131,33,35,20,23,24
36,83,152,33,31,19,22,21
35,69,158,35,34,21,21,21
34,72,160,37,32,22,20,21
30,73,138,35,28,21,19,21
43,75,134,35,27,22,20,24
48,86,121,34,29,23,19,23
49,93,147,33,26,21,19,24
49,94,148,29,28,23,18,27
50,89,144,30,28,24,19,27
40,85,141,29,31,23,19,25
45,84,156,29,31,24,17,27
45,77,138,29,30,23,17,27
40,78,137,33,28,21,18,23
48,76,131,32,29,22,18,25
47,83,133,33,27,23,18,25
47,80,103,32,27,20,19,24
48,78,80,34,25,20,20,23
49,76,67,29,27,22,21,26
52,87,72,30,27,19,21,23
55,90,89,29,27,19,22,24
46,93,96,30,28,21,21,24
47,92,98,28,29,22,22,26
47,91,104,32,27,20,22,24
50,91,100,32,25,22,21,28
48,89,80,29,25,23,22,28
51,83,81,29,24,21,22,26
51,89,90,27,25,21,21,25
56,93,106,27,26,21,22,23
44,80,104,25,27,21,23,24
43,71,104,27,29,23,22,23
49,69,95,26,28,22,23,25
46,65,86,28,29,23,23,25
43,65,62,27,29,24,21,26
40,71,83,31,31,24,19,23
49,73,83,30,30,21,20,23
40,79,87,37,30,21,18,21
41,88,86,35,28,20,17,22
40,93,92,35,29,20,18,22
54,94,76,34,28,19,20,22
47,96,91,38,27,19,19,22
49,89,88,34,35,22,19,22
48,77,90,35,34,22,20,25
47,65,83,35,33,22,19,25
40,67,83,34,33,22,18,23
52,69,68,33,33,22,17,25
52,70,71,35,26,20,19,26
52,76,80,39,30,19,19,24
54,74,79,41,35,21,20,22
48,68,81,41,36,20,21,22
32,67,81,39,36,21,22,20
38,68,95,37,38,21,24,23
37,62,85,32,37,23,23,24
46,69,81,30,33,24,23,26
46,79,88,33,33,26,21,26
47,78,97,34,36,27,21,27
43,87,84,31,34,26,18,23
42,93,92,33,33,25,19,23
37,103,94,31,30,21,18,22
34,97,100,31,31,23,19,22
38,94,100,34,30,22,20,20
46,84,98,35,28,21,19,20
53,84,95,36,30,21,19,21
49,69,103,37,35,23,21,20
51,69,99,38,34,19,20,21
49,75,91,35,31,20,19,22
46,79,98,35,31,19,20,22
45,68,98,33,29,19,20,24
46,71,93,32,27,19,19,25
46,65,82,28,27,21,20,24
44,61,88,29,27,20,20,25
39,61,112,29,30,23,20,26
40,98,119,36,37,26,21,23
46,98,119,40,36,24,22,23
44,106,134,41,39,26,20,23
44,105,131,38,39,26,21,21
43,108,121,43,38,24,21,21
43,84,118,43,32,23,20,23
36,86,121,41,31,23,20,24
38,84,106,41,27,21,20,24
46,89,110,42,26,22,22,26
46,85,99,37,27,22,22,24
44,82,91,33,27,20,22,25
46,88,114,33,30,22,21,23
45,87,120,32,32,21,23,25
36,84,115,34,34,21,20,26
36,89,118,34,39,21,20,26
28,87,121,38,43,24,21,24
42,78,99,39,41,21,21,24
40,79,85,41,40,24,18,23
41,75,84,40,42,24,19,22
43,73,85,44,38,24,18,24
43,72,79,39,35,25,17,24
29,72,69,36,36,26,16,24
29,63,72,35,37,25,18,24
32,64,76,35,32,25,17,24
32,58,78,35,30,24,17,23
32,74,91,33,28,23,17,22
32,74,89,34,28,23,17,24
31,77,89,35,32,24,19,25
26,76,88,35,35,25,21,23
24,78,112,39,39,24,20,24
31,71,114,41,42,22,21,26
28,69,116,41,43,24,22,23
30,82,117,39,42,23,21,24
40,81,118,41,41,22,19,23
41,82,85,34,38,22,19,25
36,74,80,35,35,22,19,24
37,78,81,36,34,21,17,24
42,70,92,36,30,19,17,24
35,72,92,34,29,21,18,27
35,69,92,33,29,22,19,24
35,70,85,30,26,22,18,23
35,70,86,31,28,23,19,25
29,81,72,42,31,24,20,23
27,82,68,42,31,22,19,21
28,89,70,45,36,25,19,23
26,89,74,44,37,25,19,24
31,85,73,45,38,26,18,23
29,68,76,37,36,25,17,23
29,60,79,43,42,25,17,23
30,49,86,41,44,22,18,20
32,57,77,48,44,21,19,22
29,79,76,47,42,19,19,21
30,84,74,44,40,18,20,23
31,87,74,42,38,18,21,24
28,86,61,40,30,18,19,28
25,85,75,35,29,18,19,27
21,73,77,34,29,19,20,29
21,70,76,38,31,22,20,27
28,67,73,31,25,22,21,27
28,78,96,32,26,23,21,24
31,79,83,28,27,23,20,23
33,79,89,30,29,24,20,22
33,78,90,28,30,22,19,23
27,82,101,28,33,23,18,23
26,69,78,30,35,21,16,23
24,65,84,33,35,22,20,25
23,60,74,33,35,22,20,25
24,67,78,33,34,22,21,25
25,71,78,33,32,21,21,27
27,83,82,33,34,21,22,26
34,85,82,35,37,21,20,26
35,84,87,35,38,23,19,26
75,80,89,34,37,22,18,24
87,74,75,34,36,24,19,23
88,67,94,40,40,24,19,23
86,64,105,37,38,24,18,22
86,66,106,39,39,23,19,22
59,75,103,45,44,23,19,22
39,76,106,46,46,21,20,22
37,80,93,41,41,20,20,25
33,83,75,39,38,19,22,24
32,85,85,39,35,18,23,24
26,75,84,31,30,19,23,30
30,80,91,34,34,21,21,29
31,71,100,33,36,22,21,26
34,68,100,36,38,23,19,28
33,72,87,33,39,22,17,28
34,81,86,37,41,24,18,22
30,79,81,33,37,23,19,23
31,81,67,36,32,22,20,25
35,87,67,35,35,23,20,23
34,86,91,43,35,24,21,23
32,81,92,42,33,22,22,23
32,81,85,41,31,20,22,21
30,80,82,40,36,22,22,22
23,75,111,40,32,20,22,22
36,73,96,33,32,20,21,23
38,81,97,33,31,19,19,24
39,81,99,38,34,23,19,25
37,79,99,39,31,21,18,23
38,76,63,40,36,24,18,24
36,78,65,44,36,24,18,23
40,67,72,43,37,26,19,23
41,70,73,39,36,24,20,23
43,72,89,40,36,25,21,23
44,74,94,46,35,23,19,22
42,75,90,43,38,23,22,21
48,79,86,44,36,22,19,25
49,79,91,45,35,20,20,25
50,114,94,46,37,22,20,25
50,121,92,39,34,22,21,25
58,126,108,36,29,19,20,27
59,124,119,35,28,18,20,26
60,137,119,34,28,20,18,26
58,108,116,28,22,18,19,27
57,100,119,32,30,20,18,27
53,89,108,34,33,22,18,26
44,91,115,40,39,24,21,24
42,62,114,38,40,22,23,23
45,67,102,42,42,23,23,21
44,71,114,41,39,22,22,19
42,72,124,43,39,20,22,20
42,75,104,38,34,21,19,19
42,95,113,41,37,23,21,22
41,97,116,39,35,23,19,24
44,94,108,36,35,22,20,26
40,94,105,33,34,22,20,25
48,95,101,38,35,23,21,26
49,94,99,42,39,23,16,24
50,94,122,42,41,22,18,23
70,119,122,43,42,23,19,24
69,127,125,42,40,23,20,26
64,122,125,37,39,21,18,25
66,114,122,30,35,22,20,24
69,113,115,35,31,22,19,25
51,93,129,41,34,23,19,22
52,86,126,46,39,25,21,22
50,86,132,47,38,23,22,23
55,81,132,46,36,21,21,24
52,74,117,45,40,20,21,24
49,63,101,41,40,21,22,24
47,90,92,35,34,19,20,23
50,92,88,35,36,21,21,29
42,97,79,37,36,20,21,27
48,101,93,33,32,21,21,25
50,108,89,37,33,19,19,30
51,94,92,42,37,21,19,30
47,91,102,42,36,20,18,25
47,93,110,41,36,22,21,25
49,92,109,47,39,23,23,27
46,90,121,47,36,22,23,21
53,101,127,44,34,21,23,23
60,103,119,45,33,21,22,23
62,94,123,44,34,21,18,23
56,95,133,44,30,21,16,22
65,93,124,40,31,22,18,23
59,68,122,39,32,22,18,21
59,66,133,41,31,23,18,24
61,96,133,44,32,23,18,24
62,99,112,41,32,22,17,24
61,99,130,40,30,23,16,24
65,116,134,42,29,24,18,27
59,128,130,39,30,22,18,23
66,114,122,36,29,21,19,26
69,115,139,32,27,22,20,28
68,117,125,31,26,22,21,29
77,106,126,27,24,19,20,30
81,100,125,28,23,25,21,31
75,107,128,27,23,25,21,27
82,106,117,29,25,24,22,27
78,113,111,29,24,26,23,27
65,117,107,29,23,27,24,24
68,122,106,31,23,21,23,24
74,133,103,34,24,24,22,28
66,146,125,35,23,23,20,31
72,145,139,36,23,22,19,30
79,141,144,38,23,23,18,31
72,139,145,37,24,24,16,32
74,127,148,34,25,22,16,30
72,113,137,33,23,23,18,27
66,108,156,37,26,22,20,28
64,106,147,36,27,22,21,26
69,101,146,36,26,22,22,23
65,105,162,42,29,22,22,23
64,103,164,42,29,21,20,20
64,98,135,36,28,20,18,19
59,115,148,36,30,17,17,20
53,110,154,37,30,18,17,24
55,104,143,38,29,19,19,26
60,122,135,36,27,18,19,26
59,122,132,37,29,20,19,27
65,108,116,37,26,21,19,27
68,134,108,40,27,22,19,26
65,144,143,37,26,21,19,23
60,129,167,37,29,23,18,23
66,154,176,39,29,23,18,24
62,158,180,39,29,22,19,24
64,141,183,35,30,23,19,23
56,126,156,32,31,24,17,25
75,135,133,35,28,23,19,27
75,110,132,32,25,22,18,26
76,120,124,35,25,23,18,25
85,116,121,35,24,21,18,28
89,118,121,35,25,21,20,28
75,113,116,35,30,21,20,26
69,112,106,35,31,23,22,28
72,97,137,33,33,22,22,31
56,109,146,36,33,26,22,28
61,122,143,37,30,25,23,30
65,115,141,34,26,23,22,28
65,115,142,36,27,21,23,29
62,118,113,38,30,23,23,24
65,110,103,40,30,20,24,28
57,99,97,38,30,20,20,25
68,111,114,38,31,24,22,25
71,111,112,38,30,25,20,29
71,133,139,41,29,23,20,29
74,134,136,37,29,23,19,27
73,135,150,38,30,22,20,29
58,128,138,36,29,20,18,28
56,135,144,36,30,20,18,24
61,110,139,34,26,21,20,23
53,107,137,33,26,21,19,24
53,101,129,34,25,23,21,21
57,104,136,36,28,23,20,25
63,121,161,42,27,21,24,25
54,115,153,39,28,22,21,25
54,116,154,40,31,22,23,25
57,123,148,39,31,21,21,25
79,125,174,37,32,22,23,28
75,111,163,33,33,21,20,27
77,111,164,35,33,21,22,27
79,108,167,34,31,22,22,27
81,100,167,34,32,21,21,29
58,92,134,37,29,20,21,24
57,76,114,36,28,21,21,24
59,78,100,37,28,21,23,26
61,92,102,36,27,20,23,24
56,100,106,35,27,21,23,23
55,106,106,32,26,20,21,23
54,119,135,37,27,21,21,23
67,124,161,37,25,20,19,22
61,122,165,36,27,20,19,23
60,123,168,38,24,22,20,21
59,115,177,38,29,23,19,21
58,102,164,35,26,22,20,22
37,99,145,34,30,23,20,21
50,89,142,36,29,25,19,23
52,89,137,37,32,24,18,23
50,104,154,36,32,24,20,24
48,105,152,35,32,25,19,23
47,101,147,34,32,27,20,23
43,108,140,32,31,24,21,21
39,98,147,31,31,24,20,22
41,84,125,34,33,25,19,22
46,89,121,33,32,24,21,22
46,93,119,33,33,23,21,24
36,86,113,32,35,25,19,24
46,93,120,37,37,24,21,25
46,90,111,42,42,26,20,25
43,98,139,45,42,24,17,25
43,93,149,47,43,24,19,24
44,90,166,49,42,23,19,24
35,85,161,45,40,24,20,21
44,85,169,41,35,20,21,23
45,68,145,43,35,22,22,22
53,80,137,43,31,19,22,23
57,87,120,43,33,19,23,24
63,95,127,44,32,18,22,26
57,114,133,44,33,19,22,24
55,114,129,37,34,18,22,26
49,106,138,40,35,18,19,25
45,107,150,39,32,20,20,26
43,101,143,36,30,19,20,25
45,87,122,34,32,23,22,25
45,94,142,38,35,23,21,22
57,103,146,32,38,25,21,23
59,95,134,40,42,27,21,23
57,93,140,46,44,28,21,24
53,85,138,46,40,25,19,24
62,80,124,48,39,26,21,25
51,69,109,48,33,24,22,25
50,71,118,47,29,22,22,23
48,78,106,46,27,22,21,24
48,78,136,44,28,23,21,25
52,81,147,43,28,24,22,26
54,79,158,44,28,24,20,26
52,78,165,43,30,25,21,27
59,96,177,44,32,25,20,26
61,97,169,47,32,24,20,26
52,101,189,48,34,24,20,25
49,102,192,45,34,23,20,25
65,113,223,44,35,23,21,28
60,96,216,40,34,22,20,27
81,111,211,42,31,21,20,28
81,110,201,42,36,22,20,29
82,108,199,45,37,24,22,29
71,93,150,43,35,22,20,27
72,95,148,43,34,21,20,28
49,75,144,42,37,23,23,26
51,62,132,40,32,21,22,23
51,62,131,43,33,21,23,24
51,70,131,45,34,20,22,22
49,69,145,47,37,23,23,21
44,63,146,42,34,21,19,20
34,73,132,41,35,21,22,22
36,75,142,34,35,22,22,22
36,82,164,33,37,25,22,23
36,92,149,31,34,24,22,23
37,99,157,32,35,24,24,23
38,92,168,37,34,23,21,23
36,91,149,36,31,21,20,24
36,82,124,37,30,21,21,24
45,77,131,38,32,21,21,25
43,81,120,39,36,22,19,25
45,81,104,36,40,23,21,23
48,88,98,38,40,24,20,22
44,93,101,38,40,24,21,22
34,88,91,40,39,28,21,20
34,74,88,39,35,28,21,21
54,80,79,38,32,28,20,23
49,70,91,41,36,28,19,22
60,68,101,38,34,26,20,24
60,68,102,36,38,23,19,26
81,93,106,37,39,24,21,31
97,104,127,38,38,24,21,34
124,108,154,38,36,24,22,37
121,104,144,42,37,24,23,36
122,100,150,49,34,21,22,34
114,77,154,48,34,23,22,32
98,62,143,50,33,25,23,30
62,55,120,47,34,24,23,26
61,58,143,43,31,24,20,26
58,61,144,38,41,29,23,27
55,74,136,38,40,27,22,26
43,77,158,40,41,24,20,25
41,75,152,43,39,23,21,22
41,73,154,52,45,25,24,23
41,74,149,49,35,20,23,22
36,64,154,52,35,20,22,21
37,55,126,50,40,22,22,21
37,61,132,46,43,24,21,25
41,66,104,41,42,22,18,24
41,69,112,43,44,22,18,26
43,69,109,43,45,23,20,26
37,70,122,41,41,23,22,27
36,67,141,42,40,21,23,25
30,62,142,38,37,21,22,24
29,56,132,37,37,24,21,21
32,58,131,32,38,22,20,24
42,74,141,34,37,21,18,23
45,73,109,35,36,21,18,22
45,80,119,37,39,21,18,23
47,81,127,37,37,19,18,23
43,82,127,40,36,19,18,18
34,69,154,41,38,21,19,20
31,68,157,39,36,23,18,21
29,62,157,39,33,24,21,21
27,61,158,38,31,23,21,21
38,71,179,38,33,25,20,24
39,69,149,37,30,23,20,22
44,75,154,38,31,21,19,24
46,74,157,39,31,23,18,24
46,75,151,38,30,24,18,24
36,63,129,37,26,23,17,25
34,70,116,42,33,22,20,25
29,66,107,40,33,22,20,21
25,64,93,40,33,20,21,23
40,70,117,41,36,20,21,25
41,75,118,42,35,19,21,25
44,73,122,36,33,21,20,26
45,75,123,38,33,21,20,27
45,79,120,38,36,20,20,23
32,72,111,49,36,22,21,23
45,77,117,52,37,25,22,24
47,73,146,52,38,27,23,26
47,84,147,51,38,27,22,26
48,84,145,51,39,29,22,27
48,85,137,42,39,26,21,26
37,71,131,41,39,25,18,25
30,72,114,40,39,23,17,22
46,65,124,44,39,24,18,23
47,68,132,45,34,23,19,23
48,71,131,44,36,25,19,23
49,87,139,44,40,24,19,20
49,91,127,44,43,24,21,25
33,83,114,42,41,23,21,23
44,84,107,41,42,23,20,27
47,82,116,41,39,22,20,26
45,65,99,43,37,20,21,27
46,62,97,49,36,22,20,25
47,72,116,49,39,25,19,26
36,68,122,50,39,25,20,24
45,87,152,50,38,24,19,25
46,90,159,46,39,26,19,24
47,88,163,43,38,26,20,22
48,84,158,47,42,27,22,20
45,82,155,49,44,27,22,20
36,61,117,47,46,26,22,22
52,65,114,46,45,24,24,24
52,65,104,43,41,22,23,24
52,63,100,37,34,18,22,24
53,63,100,35,33,20,20,23
51,63,103,37,30,21,20,20
33,71,109,38,30,23,18,19
36,79,110,39,34,24,19,19
37,81,122,41,34,24,20,21
44,82,120,42,32,24,20,22
44,80,115,42,34,24,21,22
45,68,112,47,40,23,21,22
40,60,119,48,38,23,21,22
39,61,110,46,41,23,20,20
29,63,124,46,41,23,20,19
28,62,143,46,41,24,21,20
39,63,139,38,33,25,20,20
39,56,128,41,43,27,18,22
50,49,131,45,43,28,18,23
53,44,125,44,42,28,20,22
54,49,100,41,41,27,20,22
47,55,106,49,45,26,21,24
46,57,108,47,36,25,22,23
47,62,106,46,34,23,23,22
46,63,106,49,37,22,22,22
45,63,114,51,38,22,21,21
45,56,110,44,36,22,20,19
46,58,126,48,43,23,21,20
31,53,115,49,44,24,21,20
35,59,111,46,44,24,20,21
42,60,109,44,43,23,21,21
50,69,124,44,42,24,22,22
50,69,112,38,34,19,22,21
51,71,113,37,37,23,22,20
50,71,138,38,35,23,22,23
59,73,139,40,38,28,22,23
54,73,129,42,40,27,21,22
53,78,140,40,38,27,20,21
57,84,163,37,32,23,21,25
57,77,140,35,33,24,21,23
49,75,135,33,29,18,21,22
48,66,136,30,26,19,22,23
47,64,123,33,27,21,22,25
46,63,102,34,28,20,20,22
41,70,108,36,26,20,18,21
34,68,109,40,27,22,20,24
46,69,110,39,27,21,19,25
46,70,119,39,27,19,20,24
45,67,113,39,32,22,20,24
52,83,113,44,43,22,20,24
52,88,124,43,47,22,18,22
51,105,129,47,50,26,18,22
53,107,115,44,51,29,17,23
52,109,121,44,48,28,18,23
46,101,130,37,41,27,19,25
50,98,129,43,43,28,20,27
47,97,120,43,41,27,21,26
45,94,125,44,40,25,20,27
42,92,126,42,40,26,21,26
43,83,129,51,44,25,21,25
38,78,123,46,43,23,22,23
34,59,133,47,42,23,22,22
46,61,126,48,42,22,21,23
48,65,126,48,41,20,21,23
50,70,110,41,36,21,21,25
49,71,113,43,37,20,20,24
50,68,103,44,41,19,19,25
62,78,112,45,42,20,20,24
62,78,117,46,42,22,18,23
60,76,112,46,43,21,18,21
61,79,131,47,41,21,19,22
59,78,125,43,39,22,18,25
46,74,141,45,40,24,18,23
46,74,127,44,39,23,18,23
48,79,126,47,39,23,17,22
48,80,115,44,38,25,17,22
60,87,117,44,36,25,17,21
52,77,102,46,39,25,16,21
55,71,114,46,39,24,16,22
55,62,115,42,37,23,16,24
62,68,118,44,37,23,16,24
51,66,116,46,41,23,18,22
50,67,111,39,37,20,18,21
51,65,107,41,39,21,19,23
64,71,111,45,40,22,19,22
60,77,88,41,36,22,21,23
61,78,94,39,32,24,19,27
78,84,108,40,33,24,22,28
76,84,104,38,32,24,21,25
66,80,111,34,30,24,19,25
62,67,131,31,31,24,19,24
68,64,133,31,31,22,20,19
56,60,120,33,35,23,19,21
55,59,122,32,34,23,21,22
55,64,143,33,35,24,22,22
54,71,134,34,34,23,22,24
61,74,137,35,32,25,21,24
54,75,148,33,26,24,20,22
55,75,151,34,28,23,19,22
53,69,122,37,27,23,20,25
64,61,119,37,28,22,21,24
56,57,113,35,29,21,20,25
57,53,104,39,31,22,20,26
64,61,134,42,35,24,19,26
68,64,136,38,35,23,17,26
61,66,134,40,37,23,18,27
55,62,133,40,36,22,18,28
55,63,142,37,36,21,19,27
45,54,104,32,31,22,22,26
44,60,108,34,30,22,21,23
46,63,122,41,28,22,21,25
58,65,132,45,30,23,22,22
57,61,113,44,27,23,21,21
61,59,118,48,34,23,20,24
60,52,111,48,36,22,22,25
59,51,127,46,34,22,19,21
51,45,116,42,32,22,19,24
52,44,114,44,34,23,18,24
48,46,119,42,29,19,18,22
50,44,126,44,31,20,16,20
45,36,98,38,32,21,17,22
38,38,98,38,33,21,18,19
43,37,96,41,35,19,19,20
42,33,86,38,37,19,18,21
36,33,87,36,34,21,18,21
37,28,79,36,36,21,18,22
36,30,87,36,35,22,19,24
29,33,88,35,32,24,21,22
38,35,94,43,33,22,21,22
42,39,97,42,38,22,21,22
43,43,101,44,38,23,23,20
46,46,102,44,38,22,23,20
52,45,106,44,37,22,20,21
46,47,117,39,39,25,23,19
44,47,108,39,34,24,23,19
44,51,112,41,33,21,21,21
51,50,119,41,33,21,21,20
96,52,116,39,33,24,22,21
105,51,99,37,25,21,20,23
115,47,100,36,26,24,21,23
118,44,100,34,24,23,21,23
114,48,87,36,22,23,24,25
77,44,86,35,25,19,21,23
65,49,86,37,25,19,22,24
44,56,94,38,28,17,22,25
30,52,85,33,27,22,21,22
31,46,77,30,27,23,18,22
26,51,101,32,25,24,18,21
24,50,104,33,27,25,19,23
24,50,108,32,24,25,18,23
24,54,108,35,25,24,20,23
22,53,114,36,25,23,20,22
22,55,100,41,30,23,21,22
22,57,109,36,31,21,20,20
21,52,101,37,32,21,20,18
21,55,113,36,34,23,19,20
22,56,110,35,35,21,18,20
23,52,107,31,31,24,18,22
22,60,147,37,31,25,17,22
21,65,169,37,31,26,17,24
25,87,174,40,31,25,16,23
27,93,190,41,33,26,17,25
27,96,198,40,35,25,20,24
33,121,220,48,32,23,20,23
33,127,222,48,34,23,19,24
31,113,221,47,32,24,21,24
32,126,211,48,30,22,22,23
34,139,244,53,30,21,20,27
31,123,211,44,30,23,23,32
30,119,212,46,32,23,23,32
34,128,227,48,34,21,23,35
32,114,242,46,33,23,23,34
33,106,204,42,33,24,25,32
32,98,203,40,32,24,22,27
34,99,183,38,29,23,24,25
32,90,183,34,28,25,22,20
31,95,170,37,32,24,23,19
38,113,179,35,31,23,23,21
39,112,198,35,34,24,21,20
40,132,199,32,34,23,20,20
44,149,181,34,32,22,21,23
54,186,167,35,38,24,21,25
58,199,162,40,41,27,20,25
59,201,142,39,39,27,22,26
59,206,140,39,38,29,21,26
55,202,133,42,42,30,22,26
46,182,138,41,36,30,21,25
38,156,134,38,34,29,21,23
36,158,103,37,34,29,22,25
33,146,114,41,35,28,22,24
34,137,111,39,32,27,20,24
34,136,125,38,31,25,21,25
29,134,149,42,33,22,20,27
33,130,160,42,33,21,18,24
35,115,168,44,36,21,17,26
34,117,182,42,33,21,17,26
32,89,174,43,36,23,18,26
32,92,159,36,35,22,18,24
28,91,193,36,36,24,21,24
27,91,195,34,39,25,22,24
27,82,185,35,40,25,21,23
28,91,190,37,36,23,21,25
27,83,193,40,34,25,22,26
35,83,154,40,34,25,19,25
35,90,139,38,27,24,19,25
36,97,135,38,29,24,20,25
57,90,134,37,32,24,18,23
61,144,136,35,32,24,19,23
59,151,142,35,33,25,20,24
59,155,154,37,35,24,20,22
59,150,161,38,37,23,19,22
52,156,163,38,34,21,20,24
49,132,174,39,33,21,19,23
55,135,170,40,34,19,19,24
57,142,168,38,32,20,22,24
57,144,166,39,29,21,21,23
44,147,176,43,30,23,20,22
51,125,158,44,33,24,24,24
55,128,157,44,36,23,23,22
53,116,147,44,36,25,21,23
54,115,143,42,34,24,21,24
57,116,120,40,37,24,22,21
51,121,117,43,40,24,18,19
49,108,123,39,35,24,19,24
47,104,127,42,38,23,19,25
47,113,129,40,38,26,20,25
42,99,137,35,34,24,20,25
39,102,130,33,31,24,20,26
35,103,123,39,33,23,19,24
42,110,115,37,31,21,21,23
44,116,117,39,33,21,21,23
49,117,130,41,32,21,20,29
50,108,164,43,33,22,24,27
47,102,163,39,31,23,22,26
48,95,165,49,42,24,22,25
47,78,169,49,48,25,21,24
48,75,157,49,47,25,22,18
50,92,135,47,45,23,18,22
48,93,136,46,45,24,20,22
41,92,142,36,35,22,19,25
40,92,132,34,27,21,19,26
44,91,132,37,30,20,19,27
45,87,166,37,32,20,19,24
46,116,168,40,34,21,20,23
48,118,168,40,37,21,21,21
50,118,181,38,36,21,21,20
53,123,177,42,35,22,21,19
51,117,141,44,35,22,22,21
51,92,136,49,34,21,21,22
50,112,149,52,27,22,20,23
50,117,127,52,27,23,20,22
47,112,128,47,30,22,19,24
59,117,124,46,31,22,18,23
61,119,123,43,31,22,19,22
60,106,116,42,33,21,22,25
61,97,123,42,38,20,21,25
55,127,135,50,48,22,23,25
43,121,142,50,49,24,23,24
44,115,141,46,49,24,24,25
45,104,118,42,48,24,20,24
56,124,117,47,50,26,22,27
55,96,100,49,45,28,20,26
55,93,96,52,45,26,20,26
52,95,95,54,47,26,20,27
61,100,112,53,47,27,23,24
94,80,127,47,40,26,22,20
101,72,141,38,32,22,21,21
100,71,143,34,31,24,22,22
101,71,144,34,30,26,22,21
97,77,145,38,31,24,20,21
62,86,148,41,35,24,20,26
57,93,146,39,38,25,22,25
59,111,141,37,36,21,21,26
57,117,141,37,34,22,20,26
55,113,135,33,33,22,19,26
47,105,124,38,39,24,21,23
43,111,114,41,41,24,19,23
47,99,137,41,42,25,20,22
46,91,134,42,46,24,22,21
45,90,137,43,47,25,24,25
46,91,131,39,39,23,23,27
43,85,124,38,34,23,22,29
34,78,94,45,34,23,20,27
39,99,91,47,29,22,18,26
45,97,79,48,29,22,16,26
55,106,81,48,32,22,17,23
56,114,86,49,34,24,18,24
58,116,84,41,31,22,19,26
57,103,95,39,32,24,18,27
53,114,103,34,33,24,21,29
40,118,132,33,32,25,22,29
38,106,137,33,33,25,24,27
36,127,187,39,36,27,24,27
34,125,189,37,38,26,26,25
32,115,192,39,34,26,24,23
38,101,173,38,35,26,23,25
37,100,187,38,34,24,23,26
36,89,140,34,34,22,23,27
35,98,139,35,37,23,20,28
35,99,133,40,41,24,21,26
27,114,134,40,39,23,20,25
27,117,103,41,39,23,19,25
35,102,96,43,40,24,20,23
34,90,82,41,34,23,19,22
41,95,73,37,31,21,20,24
50,77,102,38,33,21,19,25
50,71,100,38,34,22,18,24
44,73,127,35,32,22,21,25
46,76,135,37,30,24,21,26
39,65,138,36,29,24,22,23
27,62,109,35,27,24,22,23
35,73,142,36,24,25,23,25
38,77,133,34,26,23,20,24
35,76,129,36,27,22,19,21
47,92,149,40,29,22,18,21
51,99,160,43,30,20,20,23
46,105,143,40,31,16,20,21
52,110,132,43,31,19,20,23
53,111,136,39,30,21,21,22
44,101,108,40,30,22,21,23
39,107,97,35,31,23,20,20
38,98,85,36,30,25,20,21
31,110,100,33,27,23,20,22
38,108,107,36,29,22,20,24
40,115,106,33,34,23,20,25
50,106,104,32,30,22,19,26
50,101,119,29,31,19,20,25
50,73,105,31,34,20,22,24
44,74,110,37,34,18,22,25
43,67,137,37,30,20,22,24
40,63,139,39,30,20,21,23
57,79,123,41,31,22,22,24
56,78,120,43,29,23,22,24
57,76,106,37,29,24,21,23
57,70,75,37,29,23,20,22
52,78,114,40,35,22,23,23
34,64,133,45,36,22,21,22
40,65,172,44,36,22,22,23
40,95,170,44,36,21,21,21
39,117,181,44,35,21,22,23
41,115,157,42,31,25,21,23
38,116,146,34,29,24,21,23
30,117,118,33,30,23,20,21
33,120,133,48,34,24,22,22
33,101,121,50,34,24,20,20
32,112,134,50,36,21,19,22
34,118,153,53,37,20,19,23
34,119,162,52,38,21,19,22
29,94,153,38,35,20,18,25
26,94,186,35,34,19,18,25
28,87,179,33,36,23,19,24
36,79,160,32,39,27,21,24
39,88,171,40,38,27,21,26
41,95,177,40,39,27,22,22
42,101,153,42,38,27,22,23
39,91,162,42,35,25,22,25
29,95,172,39,31,23,19,22
26,83,146,33,29,22,18,22
26,87,179,33,26,24,18,27
26,80,205,31,28,25,20,26
36,84,222,31,27,24,20,25
41,115,242,43,27,22,20,29
40,118,240,48,30,22,21,27
39,110,218,50,34,21,20,28
39,107,193,50,35,20,18,28
30,103,195,53,35,21,17,26
25,60,177,50,41,24,19,25
25,73,198,49,39,27,20,25
22,70,195,46,36,26,19,21
24,79,198,48,34,25,21,23
25,83,169,45,33,24,21,23
25,92,166,41,29,21,21,22
26,93,150,37,28,19,21,21
27,96,150,41,31,20,22,21
25,91,143,44,33,20,23,19
24,95,148,45,33,22,24,20
25,91,132,43,32,22,23,23
25,79,120,40,36,22,22,23
24,78,139,39,36,22,22,23
24,97,149,30,34,21,21,24
23,87,141,31,33,20,22,23
26,93,144,34,31,18,22,23
24,94,146,33,28,19,23,24
27,99,127,34,26,18,21,25
26,80,95,33,28,20,23,25
27,84,110,33,34,19,24,27
23,74,105,31,35,19,22,24
24,75,102,30,37,20,23,22
23,76,90,29,36,21,23,23
23,82,110,31,37,21,22,22
22,79,101,34,34,22,21,20
23,80,133,41,36,24,22,20
20,78,133,45,38,25,23,21
23,78,141,47,42,24,24,23
22,72,126,46,42,23,24,22
23,76,141,44,41,22,23,24
23,73,116,39,37,23,22,24
23,75,116,36,36,21,20,24
23,73,106,32,32,21,18,23
23,73,113,30,30,23,17,25
23,81,117,31,32,24,18,22
25,91,123,38,33,23,19,24
27,94,149,37,29,22,21,24
27,99,160,39,30,24,22,23
26,100,157,42,30,24,22,22
26,92,160,41,29,24,21,24
27,84,153,35,29,23,19,24
26,81,166,36,29,23,18,23
24,77,205,41,32,24,20,23
25,76,211,41,31,24,18,25
26,77,204,40,30,24,19,22
25,75,215,39,30,22,19,25
25,75,201,40,32,25,20,27
24,70,170,38,29,24,17,26
25,73,176,39,29,24,17,23
26,81,177,46,30,24,17,28
23,81,168,47,34,28,17,26
22,73,168,48,37,27,17,25
24,81,161,48,37,27,17,26
24,76,147,45,38,26,18,27
27,93,147,40,38,26,18,25
28,91,142,38,35,23,18,26
27,97,124,37,31,22,20,25
26,91,113,36,30,21,20,23
28,98,126,40,31,21,20,23
24,81,139,38,27,20,21,22
30,95,141,38,33,22,22,21
33,100,162,40,32,22,21,22
34,100,177,39,31,22,21,22
33,98,170,43,32,23,21,24
33,106,153,43,33,23,21,23
28,99,173,45,29,22,21,22
28,90,149,41,31,23,21,21
27,88,155,44,33,22,21,22
25,82,150,38,30,22,22,20
29,74,147,38,31,21,19,21
29,75,124,34,30,19,20,22
28,81,138,39,26,19,19,22
27,83,115,36,28,18,20,21
27,84,117,36,28,19,19,20
24,72,121,37,30,21,19,20
24,61,114,37,32,21,16,20
24,75,112,36,37,22,17,22
25,80,108,32,34,22,18,23
26,81,139,38,34,21,18,23
25,100,140,40,31,19,19,22
28,104,151,43,31,21,22,21
26,89,141,39,28,19,21,20
28,84,147,39,29,20,22,20
28,98,119,33,28,20,21,18
28,83,119,30,30,20,21,20
26,85,111,30,27,17,18,21
26,97,128,30,28,20,20,20
25,101,120,31,31,21,19,21
25,93,127,34,39,23,20,23
27,95,126,36,38,23,21,23
29,91,134,31,38,23,20,21
29,83,123,36,36,21,20,20
28,80,136,38,33,21,20,19
27,75,126,35,22,19,20,17
25,71,121,35,25,22,20,16
22,69,119,36,25,20,22,20
25,67,112,38,30,23,21,21
23,69,95,33,30,22,20,20
25,78,138,39,36,25,20,24
25,85,151,38,35,24,21,25
29,87,140,39,37,24,21,25
32,90,150,37,35,22,20,26
37,86,170,41,35,22,20,28
37,77,145,42,33,18,21,26
37,70,137,39,32,17,18,26
37,86,145,41,30,20,18,24
36,85,137,38,28,20,18,23
37,97,114,36,32,21,19,22
40,104,106,30,29,21,19,24
40,107,98,34,31,21,20,26
38,97,97,34,32,20,20,24
36,90,107,35,34,22,21,23
30,76,122,37,36,23,22,26
36,97,126,35,34,23,20,23
37,110,146,35,34,24,21,24
38,107,146,34,33,23,19,24
39,125,138,34,30,21,20,25
39,128,120,33,25,21,22,24
35,111,123,34,26,21,24,23
39,111,102,36,25,21,22,21
39,113,94,38,28,23,23,24
39,96,89,37,31,24,22,24
47,99,104,38,31,23,19,23
46,102,91,39,30,24,19,24
47,102,110,37,31,24,20,23
47,102,119,36,34,22,19,21
48,101,122,35,31,20,20,22
42,104,120,35,29,19,21,22
41,103,153,35,31,20,20,24
49,120,137,33,30,20,19,23
50,118,137,34,26,20,20,22
49,125,139,32,28,20,18,21
48,135,149,33,28,21,17,22
49,136,119,35,30,21,18,23
43,134,139,36,29,20,17,23
42,148,141,38,30,19,19,22
58,143,139,39,30,20,20,25
57,127,122,37,29,19,21,25
60,145,121,41,28,18,20,24
54,123,97,43,30,21,20,24
55,114,94,39,28,20,18,24
36,124,93,40,29,20,19,21
49,126,139,41,28,22,19,22
49,98,144,34,28,22,20,21
49,103,147,32,26,22,20,19
50,100,142,36,28,23,20,20
51,91,165,34,27,24,19,21
50,124,148,33,29,22,18,24
46,130,150,37,30,22,18,24
47,130,147,36,30,22,19,26
63,130,153,33,28,20,21,27
64,128,128,38,29,22,20,26
56,99,128,39,28,22,21,22
58,89,121,35,26,23,20,21
58,87,133,35,24,21,19,18
51,87,130,35,25,24,20,19
47,93,136,30,23,21,21,20
53,97,132,27,28,22,20,21
57,102,141,28,27,23,21,23
57,94,129,27,27,24,22,23
49,88,124,26,27,21,21,24
51,89,146,27,29,22,20,24
49,83,136,27,24,20,22,22
43,85,128,27,24,20,21,21
55,109,128,29,27,19,20,22
55,105,155,31,29,19,22,23
58,102,128,35,28,19,22,23
54,100,131,38,30,21,23,23
51,98,142,38,29,23,22,23
43,76,157,41,30,23,22,23
46,84,134,39,28,22,20,22
45,81,136,36,28,23,20,22
52,89,133,35,28,22,17,24
58,90,129,35,30,20,22,24
57,89,124,30,36,21,21,25
56,87,123,33,39,23,21,24
54,103,131,33,41,22,21,23
51,105,150,40,45,23,21,23
45,101,143,42,45,22,18,21
52,99,128,44,40,23,18,21
49,101,123,44,37,23,20,24
46,92,126,43,34,23,18,24
43,87,138,36,34,24,20,24
65,102,162,40,38,24,18,23
58,107,179,40,41,22,21,24
60,104,182,41,41,23,19,21
60,100,170,43,40,23,20,21
70,104,147,42,40,23,18,20
51,91,143,38,36,23,18,22
50,92,137,38,37,24,15,24
50,92,143,38,40,22,17,24
58,89,145,36,41,20,18,25
55,74,139,35,38,19,19,25
54,76,117,38,41,22,21,26
58,85,113,39,39,23,23,26
56,88,128,42,39,24,21,25
48,87,128,42,42,26,22,26
36,88,138,44,42,28,22,25
47,85,138,41,40,27,21,25
40,74,145,41,41,26,20,23
44,92,124,37,37,25,21,23
65,104,126,38,33,23,20,23
66,110,123,37,32,21,20,22
63,108,119,38,33,22,20,20
63,111,104,38,29,21,20,20
61,105,139,41,31,23,20,21
53,110,140,38,31,24,18,19
54,110,154,37,34,25,20,25
49,118,155,37,33,24,20,24
48,113,173,35,33,23,20,25
54,100,165,31,32,21,20,24
50,83,168,35,30,22,21,26
50,79,156,37,24,19,19,24
51,70,159,37,26,23,20,24
51,88,157,41,28,24,19,25
52,106,139,41,27,24,19,25
47,109,148,39,28,22,19,22
49,108,149,37,28,21,18,20
47,108,157,42,29,17,18,21
55,97,145,40,33,18,20,21
49,78,153,42,35,18,19,24
52,76,138,41,34,17,20,25
50,76,129,42,36,19,22,26
54,82,129,36,33,20,22,28
58,87,149,35,26,19,19,28
58,88,145,32,29,19,21,25
58,95,143,32,30,20,20,27
57,97,143,29,30,20,20,26
52,97,130,31,30,20,19,21
55,89,104,29,30,19,21,21
53,94,89,31,30,19,20,21
56,95,95,34,32,21,20,21
57,95,87,33,30,22,20,21
57,91,98,32,30,23,20,24
56,95,89,33,30,23,19,23
64,91,96,34,28,23,21,23
56,76,89,30,25,21,20,20
56,68,90,31,26,21,19,21
58,72,96,33,27,23,20,22
46,75,101,32,25,23,19,21
39,76,107,29,24,23,17,21
55,95,107,30,25,24,16,21
57,100,120,32,23,24,15,21
57,103,136,28,23,23,17,19
57,98,151,27,25,23,19,19
82,103,142,26,29,23,20,19
73,90,154,28,30,23,23,19
73,86,144,26,31,20,23,19
73,91,137,29,32,19,23,19
78,89,120,30,32,20,22,18
57,80,120,31,30,19,22,18
56,76,118,31,32,21,20,18
54,77,124,34,32,22,19,22
53,65,108,34,29,24,18,21
45,68,117,34,26,22,19,21
62,95,123,34,27,23,19,24
62,100,110,32,21,21,19,24
62,101,112,31,23,20,20,24
62,103,141,38,26,20,21,23
63,103,140,39,27,20,22,26
69,96,137,37,26,18,20,22
87,93,142,39,31,19,19,27
98,108,136,37,28,20,22,26
101,106,103,33,29,21,21,27
102,106,86,30,30,22,21,26
82,93,102,35,32,23,23,27
62,94,93,34,28,23,23,21
41,77,96,41,33,23,20,20
44,77,112,45,36,26,22,25
42,78,122,48,37,25,20,27
45,73,107,46,34,25,20,26
42,77,111,48,34,26,19,30
45,84,110,42,33,27,21,29
36,81,92,39,31,23,19,26
45,76,77,36,33,23,18,24
45,80,99,36,36,25,18,25
46,73,96,36,35,23,19,23
50,71,109,39,38,23,18,24
48,76,106,39,36,22,20,22
52,80,120,43,34,23,21,23
53,78,128,42,34,22,21,23
56,94,133,41,35,23,22,23
52,86,128,43,34,23,22,23
52,85,148,41,32,24,21,23
41,79,145,37,31,24,21,22
49,80,125,40,31,23,21,23
45,63,119,42,30,22,21,21
49,67,141,41,30,21,22,25
48,64,125,39,32,19,21,25
48,69,120,38,34,19,21,27
49,72,119,37,33,18,21,27
53,75,124,33,33,17,21,27
49,76,98,30,30,21,19,22
83,93,94,33,32,23,21,26
92,98,95,35,31,23,22,25
88,103,109,39,31,25,22,26
88,107,127,44,34,27,23,25
87,107,126,44,38,23,24,29
61,96,132,48,40,21,22,25
50,93,148,51,40,23,21,25
53,95,143,48,40,23,21,26
49,91,128,51,40,22,20,26
49,87,124,48,36,23,19,22
45,83,122,42,33,22,20,22
42,81,101,37,33,20,19,21
36,89,105,42,35,21,20,22
38,86,101,37,34,20,20,23
37,83,113,37,35,21,20,23
49,85,108,36,33,21,20,24
48,85,119,37,33,21,21,27
51,63,134,32,31,20,20,25
48,59,137,29,29,20,19,24
50,62,125,35,28,19,19,23
34,55,130,38,27,20,18,23
33,51,124,38,25,21,17,23
38,55,94,38,29,22,18,24
51,67,100,39,28,22,18,25
51,70,124,34,28,24,18,28
52,83,124,36,31,28,20,27
54,82,120,37,33,27,19,25
49,84,127,36,36,26,19,23
46,77,127,37,37,27,20,22
45,76,117,39,40,26,21,22
50,63,116,38,39,22,19,21
52,75,119,37,38,23,20,22
50,74,129,40,34,22,21,24
48,83,132,41,34,22,20,26
48,83,124,39,29,20,19,25
40,85,120,37,26,18,19,26
38,80,114,39,27,17,18,24
46,83,104,39,31,22,18,26
40,79,108,37,32,22,18,26
47,80,115,37,34,23,20,26
47,89,140,36,37,24,20,26
46,89,143,36,37,25,22,26
37,87,154,32,35,23,21,23
39,82,147,30,33,23,22,23
31,83,147,30,32,23,21,23
32,70,132,28,32,22,22,22
54,102,128,28,34,22,19,20
54,104,108,28,31,21,20,20
53,111,114,32,32,23,18,20
55,107,105,31,33,21,19,22
56,118,100,35,36,22,20,22
37,87,103,35,33,21,20,23
36,87,122,40,33,21,18,25
33,77,108,39,34,20,19,25
36,91,119,45,37,21,17,25
32,90,115,43,29,20,17,26
31,94,125,46,32,21,20,28
38,90,111,41,33,22,22,25
40,101,125,46,37,23,23,25
35,91,113,40,34,23,22,22
35,79,142,39,37,24,22,23
35,81,132,33,36,22,20,20
27,82,136,33,34,21,17,21
24,66,120,23,31,23,18,20
26,81,139,24,29,23,18,21
27,86,108,28,35,22,17,20
28,95,124,36,37,24,18,21
28,98,118,37,39,24,19,20
40,99,123,36,37,20,16,23
40,91,113,39,39,21,19,23
40,87,115,35,36,22,19,23
39,81,118,31,35,20,19,25
40,73,115,218,33,19,18,25
28,86,110,277,34,20,20,23
24,79,94,280,34,20,18,23
28,82,90,281,31,20,20,23
28,77,65,285,31,20,20,21
27,80,57,187,35,19,20,21
26,68,66,79,34,18,18,23
27,74,79,68,34,19,22,23
24,69,80,64,36,18,21,21
23,68,78,45,34,20,20,22
25,68,80,35,32,20,20,22
26,83,75,38,36,22,22,19
27,86,77,36,31,21,18,19
28,87,83,34,31,24,18,22
30,86,97,36,32,22,18,22
27,85,98,34,33,23,18,23
28,89,105,35,28,22,16,26
28,92,112,39,30,25,18,25
26,97,140,39,28,24,19,25
25,97,130,40,28,24,20,25
26,97,140,43,28,23,22,23
25,99,142,43,32,24,21,22
26,93,150,40,32,20,20,24
27,89,126,41,30,21,20,22
28,85,126,42,30,21,20,21
27,89,117,40,31,20,18,21
28,79,138,46,31,21,21,21
24,81,118,46,29,21,20,19
27,80,122,50,35,19,20,22
29,80,122,50,34,20,19,23
30,96,142,51,32,22,21,28
28,86,129,43,31,21,19,28
30,81,129,43,32,22,19,28
29,79,122,37,28,24,18,28
26,76,124,34,27,23,18,27
26,45,115,33,27,21,16,23
28,45,99,35,24,22,19,22
25,45,98,39,28,22,20,22
25,40,97,39,31,21,20,20
26,42,107,45,33,21,21,20
24,46,106,44,35,24,21,21
29,60,112,50,37,23,21,20
29,58,112,47,35,24,22,19
28,63,143,46,33,24,21,20
27,78,148,41,32,23,21,19
28,80,137,39,32,21,23,19
22,74,131,31,31,21,20,19
23,83,128,31,31,20,19,21
23,79,91,30,36,19,20,21
24,64,67,33,40,22,19,23
24,63,75,34,40,24,18,23
25,62,106,41,41,23,20,27
23,59,115,40,41,23,20,24
24,64,116,43,35,24,20,26
23,72,122,42,36,23,20,25
24,80,123,42,34,20,20,26
28,81,118,34,34,19,19,23
30,77,114,35,35,20,18,24
31,73,119,32,38,19,18,21
32,66,113,33,33,19,17,23
32,63,127,36,34,22,19,24
31,84,113,37,30,22,19,24
30,87,114,38,32,25,20,24
28,93,120,41,30,25,18,25
27,98,140,40,32,26,20,23
26,94,137,40,31,24,18,20
23,78,136,39,33,24,18,19
26,75,141,40,31,21,18,19
28,77,136,38,30,22,19,17
28,74,148,37,28,20,18,19
28,70,135,36,28,19,19,18
27,64,139,37,27,18,18,21
24,70,160,36,26,22,20,20
23,70,170,36,29,23,21,24
22,69,150,37,29,22,19,23
25,77,158,41,28,24,20,24
28,78,166,43,27,24,22,21
29,71,140,40,26,20,22,24
27,62,131,39,26,19,22,21
27,64,133,38,26,20,22,22
24,55,128,31,26,17,20,22
21,53,114,34,28,17,18,23
21,60,110,34,28,17,16,21
21,58,108,37,29,21,16,22
30,68,115,39,29,21,19,22
31,65,107,43,32,24,20,22
31,70,103,36,32,25,21,21
32,68,108,36,34,28,23,22
32,76,103,34,34,26,23,22
23,63,78,33,34,27,22,21
23,63,77,29,36,26,23,22
22,58,91,29,34,25,24,24
22,56,88,29,35,24,23,22
21,52,83,29,33,23,23,24
22,56,82,30,37,23,23,25
20,60,89,32,35,23,22,23
19,63,73,33,37,23,20,21
17,60,71,33,35,23,20,21
20,57,79,33,35,24,19,20
20,58,86,30,30,22,17,21
22,61,105,30,28,22,18,22
25,61,115,32,25,22,19,22
26,63,119,32,27,20,18,22
25,67,113,32,28,20,16,22
25,69,115,35,30,21,20,19
26,69,95,34,31,21,21,19
22,74,90,32,31,22,20,21
24,73,86,35,34,24,20,21
22,71,91,33,30,23,22,21
22,64,80,32,28,22,21,21
20,66,74,34,28,23,19,20
24,70,109,35,32,23,20,21
24,71,110,31,29,21,20,22
25,70,108,36,33,21,18,19
26,70,108,37,32,22,16,23
26,65,119,36,34,20,17,23
22,50,78,35,32,21,18,22
22,47,73,36,31,20,17,20
23,45,72,36,29,20,20,21
22,45,76,37,33,18,20,20
23,44,76,37,32,18,21,20
25,45,76,40,31,18,19,19
24,43,88,37,29,20,20,19
25,41,93,34,27,20,17,22
26,64,92,35,25,21,19,22
25,73,80,34,26,21,18,22
23,76,89,34,28,21,18,23
23,81,88,37,31,22,20,24
22,88,81,39,32,23,19,22
21,78,89,34,32,22,18,20
22,78,100,36,35,25,18,20
23,76,108,36,31,25,17,17
26,77,106,36,34,25,15,19
25,74,111,34,33,24,16,19
25,72,102,36,33,25,18,22
27,69,114,36,30,23,17,23
25,71,113,36,33,23,19,23
23,72,117,37,29,21,20,21
23,70,118,36,29,22,21,21
23,68,127,37,28,21,20,18
21,64,115,35,31,23,20,18
22,63,104,34,33,23,19,20
23,53,96,29,31,23,19,21
22,53,98,31,34,23,20,21
23,55,92,31,32,22,20,20
23,57,90,32,32,20,22,19
23,56,91,32,29,19,23,20
22,65,90,33,30,19,22,19
23,68,88,34,31,22,22,20
21,64,82,31,33,23,23,22
23,62,95,30,31,23,22,23
24,64,99,28,31,22,23,22
24,57,97,43,31,23,24,23
23,54,98,45,31,21,21,21
25,56,101,46,30,21,21,21
24,53,87,47,29,20,19,21
25,51,93,48,31,21,17,20
25,53,100,37,31,21,18,22
27,65,109,37,30,21,20,23
26,63,105,38,30,22,19,22
24,62,104,38,30,24,19,22
23,60,87,36,29,22,19,22
23,63,93,37,27,20,19,20
22,48,78,34,28,21,17,22
25,48,82,36,27,20,19,21
27,55,82,38,29,19,20,22
26,58,87,38,28,22,22,23
24,54,72,39,31,23,20,26
24,58,72,38,29,22,21,23
22,58,70,38,34,24,21,25
20,55,84,36,33,24,22,23
20,51,86,37,35,23,21,23
23,62,103,33,35,23,22,21
25,59,107,34,36,22,20,21
24,57,107,34,33,22,21,21
25,54,91,33,31,20,20,20
26,54,99,30,30,21,19,19
24,45,84,30,34,25,21,19
21,43,81,33,33,25,22,21
21,47,82,34,33,25,21,19
20,55,101,35,33,25,22,20
23,66,103,38,37,25,21,21
22,67,101,38,29,20,20,23
24,70,98,35,30,22,21,22
25,69,95,33,32,23,20,23
23,64,89,33,32,24,18,25
21,68,88,32,32,23,17,24
21,65,87,42,34,25,17,22
19,63,87,42,33,24,17,22
24,65,97,44,31,25,21,23
24,67,95,45,32,24,22,21
24,58,80,44,28,25,23,22
28,68,80,39,29,22,23,23
29,73,86,39,29,23,23,22
25,72,78,37,29,21,19,22
27,74,68,35,29,24,18,22
29,67,78,36,29,22,17,22
26,56,74,32,28,23,19,20
24,48,74,30,29,23,18,22
27,52,99,37,28,22,18,22
25,59,106,43,31,21,19,21
22,62,104,42,33,22,20,19
23,61,107,41,34,21,18,20
23,63,114,41,33,24,17,21
24,61,96,35,34,23,17,22
26,50,96,31,31,22,18,23
26,48,99,32,28,21,17,24
25,56,97,35,31,22,18,22
27,63,99,35,32,18,19,20
27,69,103,38,31,19,19,21
26,69,98,35,29,19,17,20
26,68,95,34,30,20,19,21
28,62,99,32,25,20,22,22
26,54,92,33,26,20,21,23
22,43,82,30,27,20,22,22
24,42,80,34,30,21,22,22
24,44,84,33,32,22,22,22
23,41,79,32,32,21,19,22
24,42,74,32,32,22,19,25
25,42,85,35,28,21,19,24
22,44,106,32,29,19,18,24
24,54,100,31,29,18,19,23
26,58,105,32,29,21,19,24
26,57,113,32,26,20,19,23
26,59,111,27,27,23,18,23
26,56,92,27,28,24,19,24
22,44,100,30,27,25,19,23
20,43,105,34,31,24,20,22
22,50,94,34,32,25,20,19
26,59,97,36,35,25,22,24
26,61,101,36,34,25,22,24
30,68,92,35,32,22,22,24
28,70,95,34,31,22,20,24
26,66,98,35,30,22,20,26
24,58,90,32,33,20,20,23
24,61,96,32,31,20,19,22
21,61,122,32,32,23,18,21
24,58,123,29,34,20,20,21
25,59,123,28,35,23,21,18
24,57,121,30,31,24,20,19
26,62,115,31,33,22,22,21
27,65,94,37,33,21,21,22
26,67,81,38,33,21,20,22
26,69,92,40,34,20,22,23
27,74,93,39,33,21,22,22
25,65,93,39,30,20,21,21
27,57,86,35,31,20,22,23
27,60,94,37,31,22,21,22
26,64,97,37,32,22,19,21
23,64,97,37,32,21,19,21
26,70,96,39,33,22,18,20
22,69,124,38,35,25,19,18
22,63,118,36,31,24,18,20
24,57,108,33,30,24,20,19
24,60,109,31,30,25,20,21
23,54,110,28,29,24,20,20
23,62,84,28,25,20,18,23
23,65,90,28,26,20,19,21
23,71,95,29,24,18,17,21
21,64,101,34,26,18,18,19
21,68,99,36,24,20,19,22
23,63,104,39,29,20,20,19
24,59,104,39,28,20,21,22
22,50,102,43,28,21,21,22
26,52,94,39,28,20,20,22
26,59,94,38,31,19,21,22
25,62,93,37,27,20,22,22
26,67,103,36,29,21,21,20
28,73,103,30,31,22,22,21
26,74,102,32,30,23,22,23
28,68,103,30,29,24,20,24
29,64,97,28,29,22,20,27
27,65,86,32,29,23,20,27
29,64,84,33,26,22,20,26
30,59,90,32,26,20,20,25
28,60,85,32,24,19,21,24
26,62,88,37,26,20,21,20
27,57,84,32,27,19,22,21
25,71,79,32,28,19,20,21
23,71,71,33,31,19,22,21
27,70,92,35,34,18,21,19
26,70,121,29,34,20,22,21
24,69,127,30,32,20,21,24
24,57,129,30,32,21,22,24
25,58,129,28,27,22,22,23
22,61,127,29,25,22,22,24
23,60,97,30,22,23,21,24
25,70,86,33,24,22,21,20
24,63,79,33,23,22,21,20
24,69,79,34,28,22,20,22
22,65,70,32,26,24,19,23
24,65,63,35,26,24,18,22
22,68,65,34,28,24,17,25
23,73,71,38,32,25,16,26
22,68,69,38,29,23,17,24
24,70,83,38,30,24,22,24
26,86,95,38,29,20,22,24
29,75,94,39,28,21,23,23
28,70,91,36,23,18,22,23
27,69,104,35,24,20,23,22
27,73,85,34,26,18,21,23
24,54,71,34,29,20,22,24
21,65,77,32,28,21,22,25
23,73,125,33,29,20,23,25
24,73,127,32,29,20,22,27
24,77,156,36,29,20,19,26
24,77,170,37,31,19,19,25
23,71,169,41,30,18,19,22
22,63,142,41,30,19,17,22
23,68,143,44,29,21,17,19
25,63,113,40,30,21,17,21
24,65,107,37,32,23,17,21
25,61,112,34,32,24,17,21
25,61,108,32,31,25,17,20
23,57,99,30,34,25,17,21
22,59,107,31,32,24,16,18
24,80,104,31,26,21,16,19
24,84,103,31,26,24,17,20
32,96,114,31,29,21,17,21
36,102,121,31,25,23,19,20
36,98,121,32,30,24,21,20
38,88,112,34,34,25,22,22
38,95,111,32,34,22,21,22
33,84,101,34,33,25,22,21
27,81,104,34,32,23,20,22
31,97,112,36,30,24,20,26
33,93,115,36,27,22,20,22
32,87,115,38,26,22,20,22
31,87,113,43,30,22,19,24
31,86,98,43,32,22,23,24
27,66,88,44,32,23,22,20
23,69,91,45,31,22,21,22
24,65,84,48,34,23,24,23
24,62,88,39,30,24,25,22
26,61,94,39,29,23,21,22
25,63,86,36,32,23,22,22
24,63,79,34,33,23,21,21
22,65,82,31,32,24,20,21
26,77,88,32,30,22,16,20
27,77,85,35,33,23,18,21
29,75,106,36,33,22,20,24
28,66,105,34,31,23,20,21
30,65,101,35,32,24,20,22
29,54,92,35,34,24,22,23
27,55,128,36,33,23,22,22
26,59,127,35,30,22,20,20
28,64,130,36,30,22,22,21
26,63,135,34,28,18,21,20
24,60,144,37,30,21,22,22
25,68,118,36,29,20,23,22
32,67,104,34,27,22,23,24
30,66,111,34,27,20,22,23
36,75,123,36,29,21,25,27
36,87,120,30,25,19,24,24
35,82,115,31,28,22,23,23
31,82,117,33,30,19,21,22
32,85,113,34,30,21,21,24
33,81,91,34,33,21,19,21
33,76,110,38,33,21,20,22
36,94,116,37,33,19,19,22
33,99,114,34,33,20,19,23
34,107,118,32,34,19,21,22
29,106,128,31,29,19,19,20
34,113,120,26,30,18,19,21
34,100,119,31,29,20,20,23
36,99,120,38,28,22,20,23
35,91,111,38,26,23,19,25
34,97,140,40,27,25,24,25
28,82,136,42,27,24,23,23
27,77,131,42,29,25,23,22
24,73,149,41,31,24,22,21
25,76,175,43,32,22,23,21
28,71,148,42,33,22,18,24
28,76,146,41,33,23,19,24
34,82,154,40,33,24,21,25
37,80,147,36,29,23,21,27
37,73,116,34,29,24,20,26
34,71,117,37,28,21,22,25
34,74,109,35,29,22,22,25
27,71,108,34,28,21,22,23
28,77,98,35,28,20,23,21
26,79,112,34,27,19,23,22
28,77,120,31,28,21,22,21
28,73,125,30,27,20,22,19
27,71,125,30,26,19,20,21
23,70,124,32,28,21,20,23
25,71,115,30,28,21,21,23
25,82,128,36,29,20,21,25
26,82,127,42,32,21,21,25
28,79,121,41,30,20,21,23
27,72,121,39,30,20,21,22
25,76,133,42,33,23,21,23
26,67,112,36,28,23,20,21
23,66,109,33,27,24,19,24
20,73,115,33,28,25,21,23
21,79,117,34,30,24,21,22
21,72,100,34,29,22,21,21
19,71,111,36,33,23,21,23
21,74,119,37,32,21,22,21
26,69,118,37,32,22,20,22
24,67,124,34,28,22,20,22
25,68,125,33,27,23,19,22
26,70,117,34,27,22,20,19
27,70,136,35,27,22,19,23
29,71,132,38,27,21,21,23
29,67,121,39,28,23,21,23
88,143,137,44,28,21,21,25
89,143,134,42,28,20,19,26
92,149,114,40,28,19,20,24
93,150,116,42,28,20,18,23
93,151,130,42,28,18,19,24
45,79,113,36,27,20,18,20
41,75,120,36,26,21,19,26
34,58,112,39,25,23,19,26
28,49,110,33,28,21,18,28
30,64,124,39,29,23,18,26
27,70,124,39,28,21,18,26
28,77,134,44,30,22,18,19
28,78,139,43,31,21,18,19
30,91,135,41,29,21,18,20
27,81,114,36,28,20,18,21
27,78,112,36,29,24,20,22
27,95,112,34,31,26,23,26
29,101,104,34,30,25,22,24
28,94,110,35,31,25,23,23
27,91,101,34,30,25,22,22
27,95,165,35,30,23,20,23
27,78,162,31,28,22,18,19
24,70,173,29,27,22,18,23
24,64,172,29,27,23,19,26
25,73,186,38,27,24,21,26
28,70,139,38,29,21,22,24
27,67,132,38,29,20,22,26
27,65,119,41,30,20,21,24
28,65,124,42,31,18,22,22
25,58,106,34,31,19,20,22
22,54,116,34,28,20,19,23
23,52,118,32,25,19,19,20
22,50,129,31,30,20,18,19
20,50,133,33,32,24,17,18
22,47,132,34,32,24,18,19
21,44,111,34,32,24,19,19
22,45,104,38,35,25,21,19
23,47,102,38,37,27,21,19
23,52,102,36,35,25,21,19
23,52,117,37,36,24,21,21
24,55,125,37,36,25,21,21
26,64,152,36,36,24,19,20
26,65,157,35,30,23,19,20
26,59,147,33,28,21,19,22
26,61,136,33,28,23,18,21
24,59,130,36,28,21,17,21
19,46,103,37,28,22,19,23
21,48,113,39,28,20,19,24
21,54,115,39,29,21,20,24
21,50,132,40,29,20,23,23
24,53,134,37,29,23,22,23
24,51,135,33,25,22,19,22
21,45,121,31,25,23,19,21
26,44,121,35,25,21,18,22
27,48,104,33,27,22,17,22
24,55,107,34,28,18,18,21
24,68,98,35,31,20,19,21
29,71,90,35,30,20,21,22
25,72,105,37,30,19,21,21
25,73,111,37,28,20,21,22
27,71,112,37,29,21,21,23
27,69,122,34,26,18,20,25
25,66,137,35,28,20,20,23
28,68,131,36,26,21,19,22
27,67,124,36,27,22,20,21
26,65,128,36,28,22,19,21
26,58,123,38,28,25,19,21
26,57,107,37,29,24,19,22
22,54,102,32,31,23,20,23
22,52,103,30,29,23,18,23
22,60,116,31,26,23,17,25
21,65,114,34,27,24,20,23
20,75,131,39,32,25,19,22
22,76,128,37,30,25,18,22
23,83,140,39,32,24,19,22
24,88,133,39,34,25,23,25
25,88,147,35,32,21,20,24
25,79,141,32,27,20,20,25
28,82,147,38,31,21,20,26
24,80,145,39,30,21,20,26
23,67,145,42,30,22,17,20
23,69,131,41,29,23,17,22
23,73,119,40,32,23,19,25
21,70,130,35,30,23,20,25
24,70,120,32,32,23,21,24
26,78,126,33,30,22,20,25
27,77,123,38,32,22,20,24
28,76,130,37,29,21,20,22
28,82,121,39,28,21,19,21
28,77,123,39,29,20,19,24
26,68,99,35,29,19,19,23
25,76,107,42,34,20,22,24
32,92,95,42,35,19,21,25
32,85,95,44,36,19,23,23
33,90,106,44,32,20,23,21
35,96,115,44,33,20,23,24
34,87,120,35,28,19,20,22
37,77,124,37,28,22,22,20
38,94,134,36,33,21,19,21
37,89,125,36,35,20,19,21
35,85,121,41,35,22,19,24
37,86,110,39,33,21,20,25
26,81,122,38,32,20,19,26
26,60,109,39,26,20,20,25
24,59,104,38,26,21,21,26
26,73,113,36,27,21,21,21
25,76,125,37,31,23,20,21
26,78,111,36,31,21,20,20
25,75,107,32,32,22,20,21
26,76,121,33,30,21,20,19
28,70,130,36,29,20,22,20
36,61,124,33,26,19,22,18
38,55,133,36,28,20,22,18
38,64,136,36,29,20,21,18
38,72,145,37,31,22,20,18
36,62,134,32,30,25,18,18
30,75,143,42,33,24,21,18
25,76,140,40,33,26,19,19
26,71,134,42,33,25,20,20
25,62,115,40,33,24,19,20
26,71,118,44,36,22,20,22
23,59,104,37,33,22,18,22
24,62,97,38,33,22,19,24
22,72,111,37,32,22,19,24
23,76,114,38,34,24,21,23
20,76,109,32,31,25,23,22
21,80,105,33,32,26,22,23
23,80,112,37,29,25,23,22
21,72,99,36,30,25,22,20
20,71,115,36,27,22,22,22
22,64,115,40,29,22,20,23
21,56,118,41,29,21,20,22
21,51,115,36,31,22,19,25
21,63,121,35,29,23,21,27
21,60,101,34,28,23,21,26
19,66,95,31,28,22,21,27
20,69,98,33,26,21,22,27
19,75,125,37,26,19,21,23
20,64,142,36,28,20,23,23
24,61,140,42,27,23,21,23
24,54,138,41,27,25,22,22
22,58,136,37,28,25,23,22
22,55,122,34,26,25,22,22
22,54,101,36,29,25,21,18
20,58,116,29,31,23,21,19
22,61,117,29,31,21,20,18
23,51,117,30,31,21,19,18
24,51,105,32,34,22,19,18
24,53,106,30,31,20,19,19
24,52,92,33,28,19,19,17
23,50,99,34,29,19,18,19
23,53,95,36,32,19,20,22
22,48,104,34,31,21,21,21
26,49,109,38,34,22,22,24
25,48,115,36,34,21,21,26
26,51,124,36,33,23,22,25
25,53,123,34,31,24,20,23
27,58,113,34,30,23,21,25
22,58,104,29,26,22,18,22
25,63,120,30,30,22,19,21
24,63,106,31,33,23,21,21
23,62,108,32,30,21,20,21
23,58,114,34,32,22,20,19
24,58,114,40,32,23,21,23
23,57,107,39,30,23,20,21
23,61,115,38,27,21,19,20
24,60,114,37,29,22,21,22
23,60,113,36,31,18,20,22
25,78,123,39,38,25,21,20
24,81,124,41,37,27,22,19
22,78,127,42,38,27,23,20
23,79,137,44,40,28,24,20
23,85,145,44,37,28,23,22
22,68,133,40,32,25,23,21
22,66,118,37,32,24,24,21
24,63,107,38,31,23,23,21
25,69,140,38,33,24,20,21
25,62,147,39,32,24,21,19
23,64,152,34,29,22,21,20
24,60,162,35,29,21,18,20
24,61,166,34,29,22,17,21
21,49,124,37,27,19,16,22
21,52,116,39,28,20,18,24
23,56,134,40,28,18,17,23
23,53,129,40,30,16,17,23
20,55,126,40,32,20,19,21
21,57,131,36,29,21,20,19
21,57,130,33,28,21,20,17
20,51,111,32,28,21,20,19
22,54,109,33,26,23,22,20
22,51,103,30,25,21,20,22
23,55,120,32,28,21,22,26
23,70,127,34,28,21,21,24
23,68,125,38,30,22,20,23
22,69,136,37,32,22,20,23
24,76,148,41,32,24,21,21
23,72,132,39,30,24,18,19
22,50,120,39,32,26,19,22
22,50,120,36,33,25,20,23
23,51,108,36,33,26,19,22
24,51,112,31,32,23,20,22
23,60,134,33,30,24,20,23
25,59,128,33,29,23,20,21
27,62,131,33,28,23,18,21
27,63,131,34,29,21,17,23
26,55,117,35,31,23,18,23
29,44,93,34,31,22,20,23
29,51,102,35,32,22,19,23
27,45,103,36,30,21,22,24
27,43,104,38,32,22,23,23
26,46,106,36,29,20,23,22
24,49,109,36,30,21,21,21
20,42,99,35,28,23,24,21
22,49,100,36,31,24,22,21
20,48,99,33,29,24,23,22
21,45,104,33,30,24,21,22
22,43,121,33,32,24,21,23
25,46,119,33,29,21,19,23
24,46,114,33,31,21,20,23
24,44,107,33,30,20,19,22
24,52,138,33,30,20,18,22
23,54,127,37,29,20,19,20
21,55,140,34,30,20,22,21
23,50,146,32,27,19,23,18
23,50,150,35,27,19,22,24
24,45,115,40,30,22,25,24
23,44,122,35,29,21,24,24
23,42,118,36,28,21,24,24
23,46,120,35,28,20,22,25
25,49,122,32,28,21,23,22
22,46,127,27,25,18,21,23
21,48,115,31,27,20,22,27
23,48,106,31,26,19,22,27
22,47,112,33,30,23,23,26
21,54,118,34,30,23,22,24
21,55,124,35,30,23,23,25
23,51,128,33,31,22,23,21
23,51,138,32,36,24,23,21
23,51,135,31,34,21,22,21
23,47,132,36,35,21,21,22
24,46,128,43,37,23,20,20
24,51,126,46,40,23,18,19
23,50,121,48,36,23,18,21
22,47,124,49,36,23,19,22
23,40,120,46,35,23,18,21
25,52,126,40,33,21,18,22
25,50,122,36,29,23,20,22
24,59,132,36,33,21,20,22
26,62,128,34,30,21,20,21
28,66,122,32,33,23,19,21
26,59,118,34,36,24,20,23
24,60,122,35,36,21,18,23
28,53,119,34,34,23,20,23
27,54,123,37,38,26,20,22
24,55,141,39,38,25,20,23
23,54,134,41,38,25,21,21
25,56,147,41,38,26,22,21
22,56,148,44,38,24,21,21
22,53,137,42,33,23,20,21
22,45,119,42,31,22,20,20
22,47,132,37,28,21,19,20
21,44,119,37,30,21,20,20
20,52,132,36,29,24,19,21
22,61,152,45,32,23,18,23
21,63,180,52,32,25,20,24
25,71,189,53,35,27,21,28
26,68,185,52,34,27,21,26
27,64,170,50,35,24,20,26
27,59,153,42,36,24,20,25
27,58,126,33,39,23,20,24
24,46,102,32,35,21,17,20
24,54,113,33,37,21,19,20
25,51,112,40,39,23,23,21
22,48,112,43,44,25,22,20
23,50,126,44,42,24,21,21
22,58,140,43,44,25,22,21
21,52,148,43,42,25,20,22
23,59,173,39,39,24,18,22
25,69,215,39,32,23,17,22
26,85,262,43,33,24,19,26
27,80,258,44,32,21,17,27
27,85,256,48,32,21,17,27
24,83,245,47,33,20,16,26
24,81,228,45,34,19,17,27
23,66,173,41,33,20,16,21
25,73,182,50,32,21,16,20
25,68,185,48,33,23,16,19
24,64,180,49,34,23,18,21
23,58,154,48,34,23,21,20
22,58,145,50,34,21,19,21
20,49,128,42,33,23,21,19
21,47,113,43,34,21,24,20
22,49,119,40,30,21,23,19
21,47,121,37,28,21,21,20
20,51,137,36,28,21,25,21
21,51,132,35,29,20,23,24
22,55,142,38,30,23,20,25
21,56,131,38,31,22,19,22
22,58,134,40,31,23,20,23
23,52,116,38,33,23,17,21
23,53,120,38,34,25,18,19
24,49,101,32,32,23,19,20
26,46,92,30,32,24,20,23
28,49,102,40,41,25,19,22
27,44,99,41,40,26,20,24
26,41,105,42,40,25,19,23
24,43,118,41,40,23,19,22
21,43,142,42,41,23,18,19
18,38,137,32,34,22,19,17
21,47,150,31,31,22,19,17
22,49,155,30,30,22,20,18
21,48,153,31,29,22,19,22
22,46,134,34,30,21,20,22
21,51,148,33,31,20,19,24
20,48,140,33,33,19,19,26
21,48,138,31,31,18,17,26
21,52,152,35,32,18,19,25
22,52,156,34,31,18,19,27
23,47,138,37,29,18,22,29
22,42,128,34,26,18,20,26
24,50,157,46,29,18,22,26
24,49,148,44,28,22,22,25
26,51,145,45,31,24,24,23
25,61,161,43,30,24,21,22
26,62,165,46,33,26,23,22
24,61,131,39,36,26,23,21
26,57,120,39,35,25,23,23
22,57,136,42,34,24,22,23
21,44,120,41,35,23,21,23
25,52,112,41,32,23,22,23
25,46,119,36,27,22,21,23
29,52,143,39,29,22,19,23
27,52,124,33,29,22,18,24
28,59,133,43,32,24,19,21
24,52,133,45,32,22,18,21
23,51,123,46,33,22,20,20
19,50,109,45,33,21,20,22
20,51,115,46,33,21,22,22
23,48,101,40,30,23,21,21
25,48,100,37,31,23,20,23
26,50,109,39,32,25,20,23
24,50,100,39,30,25,19,18
25,48,94,39,30,23,17,17
23,50,104,37,27,22,18,17
22,55,126,37,27,22,18,16
23,53,116,34,30,20,18,18
23,49,114,35,31,19,18,21
24,50,122,39,33,20,17,22
23,51,137,37,33,19,15,25
24,51,116,40,36,21,16,25
24,59,127,42,33,21,15,23
22,59,124,38,32,22,15,21
25,63,120,35,29,23,15,23
22,59,94,36,29,22,15,21
23,55,106,32,26,21,15,20
22,58,136,31,26,22,15,20
24,59,139,32,26,21,15,20
21,55,133,33,26,20,15,20
21,54,135,34,29,19,17,19
21,55,125,36,34,22,17,22
21,43,88,35,35,21,18,23
20,47,85,37,36,22,19,23
21,44,90,39,37,25,19,26
23,47,98,37,34,25,21,27
22,44,103,40,33,23,21,25
21,52,116,47,37,25,20,26
21,45,117,44,35,25,21,26
24,46,112,43,35,22,22,24
22,47,115,47,38,23,22,25
23,50,122,44,34,22,21,25
23,47,107,37,27,22,21,25
23,50,118,39,31,23,21,24
20,51,126,36,30,21,21,21
22,46,118,31,26,21,20,21
20,46,113,35,26,21,21,20
20,45,106,37,27,21,22,22
21,48,105,38,23,18,21,24
21,46,115,38,24,20,20,23
20,46,110,43,31,20,20,22
19,53,110,40,32,20,21,23
22,64,149,43,36,20,22,22
23,62,142,43,37,20,22,24
21,64,136,46,35,21,22,25
20,66,147,43,33,21,21,25
21,64,176,45,32,23,20,25
17,48,147,40,29,22,18,24
18,47,142,38,28,24,19,22
19,48,148,38,29,23,20,22
19,53,161,37,26,23,21,24
18,47,124,35,28,24,22,23
20,47,122,33,27,25,22,24
19,53,133,35,29,24,22,22
21,53,132,34,31,25,21,23
20,45,117,33,31,25,20,21
21,45,115,32,33,24,18,21
22,54,122,33,34,23,20,20
24,48,127,34,35,23,20,21
26,45,121,34,34,23,18,20
28,46,111,36,37,23,19,20
28,50,118,37,34,22,20,20
28,55,126,37,35,22,19,19
26,61,119,38,35,21,18,19
23,62,113,40,36,20,18,19
21,63,128,40,35,20,19,19
22,61,118,39,39,20,18,20
22,50,105,38,40,19,20,19
21,42,94,39,40,20,21,22
21,39,92,36,38,20,22,22
20,42,89,39,35,20,21,21
20,53,115,41,33,22,22,20
20,57,117,42,31,22,20,20
22,64,140,41,28,21,22,20
21,65,142,38,27,21,21,19
21,65,135,34,31,21,23,21
21,56,131,34,29,20,21,21
19,54,142,35,27,21,23,22
18,45,123,37,30,20,21,21
21,57,133,38,31,21,22,21
23,53,146,38,29,21,20,20
21,53,142,40,29,21,20,19
24,53,130,40,29,20,17,22
25,55,146,40,28,21,17,22
29,60,162,40,29,21,17,23
29,64,158,39,27,20,15,23
45,66,158,36,28,20,16,23
44,64,155,35,29,23,18,21
44,66,159,33,28,23,19,20
49,75,151,33,28,21,19,23
49,72,138,33,29,22,19,23
37,75,133,32,30,21,18,22
36,76,150,34,38,21,17,24
37,80,131,32,38,18,17,22
33,69,130,33,37,20,17,20
42,71,145,34,36,20,18,19
43,69,144,39,37,21,20,23
61,76,137,40,28,20,22,21
64,80,137,42,27,22,23,26
65,74,120,43,27,23,23,27
70,73,105,45,31,23,23,28
74,68,103,41,27,24,23,27
65,65,92,40,29,25,21,26
71,77,92,44,29,23,19,25
70,83,120,42,28,23,18,24
64,106,128,38,24,22,19,22
59,115,136,41,29,23,19,23
66,118,138,43,27,22,19,25
65,112,155,40,27,21,18,23
70,119,150,42,30,20,21,27
72,102,140,44,31,20,19,26
74,97,131,44,30,18,19,27
64,90,131,40,33,18,19,27
63,80,101,37,32,20,22,27
71,64,91,38,33,21,20,25
74,68,123,35,33,23,22,27
76,75,121,34,33,24,22,27
95,80,119,34,30,23,22,29
92,81,130,35,30,24,19,32
79,80,139,34,26,22,19,32
83,73,114,37,30,22,18,32
80,65,124,43,29,22,18,30
57,59,130,45,33,23,20,26
54,68,131,45,34,21,20,22
59,82,126,43,34,21,21,19
48,82,142,44,30,21,21,21
51,90,143,42,30,21,22,20
67,97,138,44,27,21,20,25
79,93,137,44,29,23,22,27
77,93,131,45,30,24,21,30
77,104,134,41,31,25,21,28
81,98,159,39,32,23,21,30
68,94,156,34,31,24,22,30
53,105,169,36,27,23,20,29
61,99,185,38,32,24,21,28
66,85,176,39,32,22,20,31
64,88,147,41,30,23,18,30
76,90,153,45,34,20,18,29
82,75,149,42,37,21,17,29
79,67,131,39,31,22,16,30
71,86,137,39,32,22,19,27
67,82,141,38,33,22,18,27
57,90,145,34,31,23,18,26
46,91,124,35,31,24,18,26
42,96,148,40,34,22,22,25
55,88,145,46,33,23,22,26
61,90,151,47,32,22,22,27
71,85,154,49,32,23,22,28
72,83,155,49,30,21,24,28
75,78,131,46,27,19,21,30
68,72,123,40,29,20,21,28
70,72,143,36,29,22,20,27
57,82,142,34,30,20,20,27
78,100,178,34,30,20,19,27
77,103,180,34,32,22,21,25
81,103,181,42,33,23,23,26
104,110,170,43,34,23,24,31
108,101,209,46,33,26,24,29
104,87,183,49,33,25,24,30
108,98,185,51,33,25,21,31
107,99,197,43,31,23,18,30
82,87,187,43,29,21,18,29
95,97,136,38,29,18,20,30
88,94,132,33,29,18,19,28
86,95,130,35,28,19,21,27
92,102,115,38,26,20,22,27
92,108,116,37,29,21,23,25
76,97,124,40,28,22,22,25
79,115,139,41,28,22,21,27
83,105,124,37,27,21,19,29
70,97,127,44,27,20,19,29
72,96,143,47,26,21,18,29
75,100,141,48,26,21,19,28
68,84,148,47,24,21,21,26
64,79,154,48,24,22,23,24
66,88,154,43,24,23,22,24
81,101,162,45,26,22,22,23
77,94,154,42,26,21,21,23
109,114,142,46,30,21,21,28
106,123,160,46,31,20,18,28
110,130,153,42,30,19,21,28
102,118,124,34,27,18,19,29
104,133,158,37,28,21,20,30
73,113,151,30,25,21,20,26
75,105,132,34,23,21,21,26
76,100,140,36,26,23,19,28
70,99,172,40,25,24,23,24
79,87,152,39,24,23,22,26
80,95,154,41,25,23,20,25
76,91,158,39,26,23,20,26
67,93,167,41,26,20,20,25
67,98,137,37,27,23,18,27
58,104,137,40,27,21,21,26
56,102,138,39,25,22,22,25
58,102,127,39,28,22,23,27
57,109,140,40,26,23,24,25
63,123,145,41,26,20,23,25
56,117,131,36,26,21,22,25
52,118,163,35,27,20,22,26
47,122,167,33,24,19,23,23
73,141,152,38,27,22,21,27
68,132,154,44,28,22,23,26
68,132,178,47,29,23,22,25
70,136,153,49,29,21,21,26
80,144,174,51,33,22,20,26
58,117,174,46,31,19,20,21
55,112,177,44,30,20,20,22
59,111,170,42,30,20,21,25
73,110,190,43,30,21,22,25
68,117,173,41,27,23,22,25
68,115,161,39,28,24,22,29
70,112,150,36,27,24,20,29
72,111,142,38,30,23,20,28
57,104,125,34,29,23,21,27
52,78,114,34,28,20,21,28
56,85,123,35,32,19,21,24
53,84,142,33,33,20,22,25
47,85,146,30,33,20,19,29
54,84,147,31,33,21,18,30
57,101,145,30,32,21,17,28
53,92,146,30,30,22,20,27
63,98,131,32,29,21,19,26
70,105,123,36,28,20,21,21
66,105,108,38,27,18,20,22
62,93,125,41,28,18,23,23
60,94,132,43,27,19,19,27
59,88,127,43,29,20,20,27
52,96,137,41,29,22,21,29
49,92,139,38,28,23,22,29
58,101,134,37,31,24,20,30
59,100,143,33,29,22,21,28
56,100,159,36,28,22,21,27
51,83,142,35,26,22,21,25
51,87,135,37,29,23,21,24
46,70,130,36,28,24,23,22
49,77,120,38,28,23,23,21
46,79,129,38,30,24,23,23
46,74,130,39,30,25,22,22
47,72,131,38,28,23,21,23
49,78,142,40,32,22,20,24
46,70,131,39,31,23,20,25
68,74,120,36,28,23,22,27
68,76,133,37,28,21,22,26
71,82,157,41,29,23,24,26
74,77,153,42,27,21,23,24
87,87,165,40,30,22,22,26
68,92,174,40,33,20,22,21
71,97,178,42,34,22,21,23
67,91,167,41,37,22,19,23
57,89,169,38,35,22,20,24
40,84,160,39,33,25,20,23
58,94,142,38,30,22,19,23
56,90,123,36,31,22,20,23
56,87,114,33,25,22,19,20
58,87,106,36,25,23,18,23
74,97,102,34,23,20,18,24
66,85,101,34,27,24,18,23
65,91,108,29,26,22,18,23
69,97,125,30,29,22,18,27
68,108,123,30,28,24,18,25
51,106,115,34,31,23,19,23
43,103,127,39,28,20,18,23
49,100,136,42,29,23,19,24
44,95,111,42,28,21,21,21
44,97,113,41,27,20,22,21
45,90,115,40,27,21,22,22
45,86,108,41,29,20,22,23
38,84,116,38,28,18,21,22
36,82,117,37,30,21,19,21
35,78,128,41,31,20,19,22
31,72,125,50,36,22,18,22
41,73,122,47,33,22,18,22
42,71,107,47,35,24,19,21
46,80,128,47,33,24,18,23
46,65,122,44,33,26,19,23
42,76,133,34,26,24,19,25
31,75,136,32,27,25,20,24
29,75,133,33,25,24,19,24
23,69,126,33,24,22,19,21
23,68,121,31,23,20,18,25
25,69,116,32,27,22,18,22
34,79,144,30,27,22,17,22
36,79,168,36,27,21,18,23
36,80,168,35,27,22,18,24
35,88,171,34,28,21,18,26
35,84,188,34,27,20,18,26
25,73,160,34,26,20,20,26
25,76,149,31,26,22,21,27
24,74,143,32,28,22,21,27
26,87,136,32,28,22,20,20
26,80,108,35,32,26,21,20
26,77,109,37,36,25,20,22
25,79,97,39,35,25,20,23
25,81,118,42,37,25,20,23
26,59,124,41,38,27,22,26
27,70,135,39,34,23,21,26
26,72,137,39,35,24,20,27
25,67,146,38,36,25,19,24
25,73,136,38,34,24,18,25
25,70,130,39,31,22,17,21
24,62,124,38,41,23,17,22
24,60,126,36,45,24,18,24
24,56,103,31,43,22,20,25
22,44,94,28,43,23,20,23
23,54,97,24,44,23,19,24
22,59,93,24,33,23,19,24
23,58,86,21,26,21,19,21
23,61,100,28,28,22,17,23
24,60,101,30,29,20,16,22
22,53,107,30,30,21,19,24
24,55,124,34,31,21,18,24
27,67,138,39,30,20,20,22
26,67,139,39,34,22,19,21
29,73,137,38,35,22,20,24
29,70,144,40,34,22,19,22
28,66,134,36,33,22,20,24
25,60,120,33,34,23,18,23
28,60,109,32,30,22,22,25
27,54,112,34,26,21,21,21
26,54,93,33,27,22,22,22
26,56,92,34,26,21,21,21
27,57,112,37,29,22,23,24
26,58,114,37,29,24,22,23
25,60,123,39,31,25,21,23
26,62,126,39,33,24,22,22
29,60,135,40,34,26,24,22
29,51,116,38,34,26,23,19
25,45,129,38,39,25,23,22
26,48,137,36,40,25,24,24
27,45,135,38,42,24,23,25
22,37,119,38,41,24,23,25
22,43,135,42,38,22,22,26
24,51,137,40,34,22,24,24
23,47,117,39,36,21,24,23
23,46,118,43,32,20,22,23
22,50,115,42,32,19,21,22
23,48,105,40,36,20,19,24
22,42,88,39,36,20,15,24
20,43,102,44,38,21,15,23
20,43,108,39,38,22,16,22
27,39,111,40,39,25,18,24
27,41,105,36,36,23,17,23
30,44,111,37,34,24,19,24
31,41,100,39,30,24,19,25
31,48,97,42,34,24,20,24
26,52,95,42,31,21,19,22
26,55,113,46,37,23,21,24
23,51,103,46,36,21,21,21
25,55,114,40,36,21,23,23
24,51,110,44,41,21,22,25
25,57,116,49,45,25,23,25
24,49,107,47,41,24,20,23
24,54,107,46,40,24,22,24
21,51,100,46,41,25,20,23
21,53,112,48,31,24,19,21
19,43,108,63,31,24,20,22
19,46,103,73,36,25,21,19
20,42,104,77,38,26,20,20
21,47,137,78,38,26,21,19
23,47,130,72,41,26,23,22
24,56,135,58,42,25,23,22
24,56,136,48,43,23,25,24
25,55,133,40,42,23,24,24
24,51,98,39,41,24,24,27
22,47,93,38,39,23,22,24
24,41,87,33,38,24,20,24
23,38,81,26,33,24,20,26
21,39,84,25,32,23,22,25
24,41,91,31,37,22,22,24
25,43,100,39,39,24,21,26
24,43,114,41,39,24,22,26
26,43,113,43,39,25,22,22
27,55,121,47,41,26,21,26
25,55,106,44,36,24,22,23
24,54,99,39,36,23,22,22
24,53,78,37,33,23,21,21
23,58,80,38,34,22,20,24
24,56,99,38,33,22,21,23
26,54,102,39,35,23,20,25
25,58,102,37,31,24,22,27
24,57,101,41,31,24,22,28
25,65,114,47,33,25,21,27
22,56,83,42,32,26,19,25
21,58,100,43,31,26,20,23
22,60,107,45,30,25,19,23
21,62,110,43,33,25,20,23
22,60,120,44,38,25,21,23
22,62,125,43,39,25,22,23
22,61,111,42,41,26,21,27
22,55,102,41,42,25,20,25
22,63,132,39,38,23,20,25
20,54,110,31,34,23,18,24
20,53,112,33,32,22,18,25
22,51,120,33,30,21,18,21
21,62,134,37,31,23,20,20
24,56,116,38,34,23,20,21
23,52,121,36,33,22,22,22
23,56,116,37,34,22,23,20
22,57,115,37,32,20,22,21
25,47,109,37,30,20,20,22
