65,38,37,43,35,25,22,31
68,40,41,46,40,25,20,33
97,47,48,49,41,27,22,32
99,47,46,50,43,28,22,33
97,48,45,49,42,28,23,36
83,43,45,49,41,23,23,39
85,43,56,57,41,29,26,34
166,67,51,56,43,31,25,38
174,72,53,54,40,34,27,36
179,75,56,60,43,34,24,34
182,78,56,63,43,39,25,33
182,77,43,57,39,34,20,35
91,52,48,56,38,31,22,30
90,49,50,59,40,30,23,30
93,47,46,53,37,30,23,31
89,43,45,49,35,27,22,28
134,56,52,51,36,31,23,27
135,56,46,55,37,33,23,27
126,54,41,51,38,30,23,25
118,52,41,50,37,32,23,28
132,61,44,49,38,31,23,27
85,51,34,41,34,25,22,25
85,52,37,35,33,23,24,24
88,55,41,39,33,24,21,27
97,57,40,38,32,22,21,25
92,52,37,37,34,21,23,33
139,74,41,43,39,25,25,36
139,76,40,52,39,25,24,38
139,78,43,52,42,28,27,38
132,77,43,52,42,27,29,39
121,74,44,52,42,31,29,32
61,50,44,55,41,29,27,29
80,52,51,50,40,32,25,30
76,48,50,47,33,34,23,27
73,44,56,48,33,35,22,25
71,43,56,49,32,31,22,25
69,45,62,47,30,30,22,25
62,42,55,43,28,27,22,25
123,63,57,46,29,27,21,26
128,65,54,49,32,25,21,25
135,67,56,51,37,29,22,28
136,66,56,48,36,30,22,33
141,68,61,48,39,36,25,38
95,48,56,53,42,32,25,38
89,45,55,50,43,34,27,39
80,46,62,56,40,31,24,38
78,47,52,58,41,30,24,32
171,74,49,59,44,25,23,28
175,75,49,55,42,24,23,31
179,80,46,57,40,24,21,32
183,83,36,49,41,25,22,31
184,82,38,46,39,26,21,31
89,56,43,48,32,27,23,30
104,64,53,48,32,28,22,28
98,58,54,47,31,26,22,28
129,63,56,47,33,28,23,32
129,64,67,45,32,28,25,32
127,62,65,46,31,27,22,32
107,52,57,45,32,28,21,31
103,60,57,48,34,29,21,31
88,57,53,48,34,28,20,30
89,57,39,50,36,32,20,31
89,59,42,45,38,34,24,30
91,85,66,43,36,36,25,31
92,81,66,35,35,35,30,31
49,75,66,32,29,35,29,29
44,95,81,45,38,30,32,29
42,95,82,47,39,31,32,27
36,75,66,50,44,27,31,31
37,78,66,56,47,28,26,33
38,78,66,55,47,28,28,42
34,53,51,52,46,28,24,51
34,71,55,59,52,33,27,60
33,74,57,57,50,33,27,60
28,75,65,56,47,33,28,60
28,79,66,63,50,37,26,56
29,81,63,67,51,41,27,48
31,73,61,64,42,37,21,42
27,71,59,67,43,37,22,41
32,66,56,67,46,40,23,37
34,69,57,63,42,35,22,56
36,70,60,59,36,33,26,73
32,65,57,56,35,31,26,73
34,83,57,54,35,32,27,73
29,82,53,54,32,29,26,74
30,82,61,53,33,30,28,58
27,77,63,47,33,27,29,35
31,75,58,48,35,28,30,32
32,55,64,46,34,26,30,31
32,55,64,43,39,25,29,26
29,50,56,51,44,25,28,24
33,56,53,54,48,28,25,28
31,72,58,52,49,32,28,26
30,80,57,55,52,34,27,27
34,79,57,54,45,37,29,27
37,94,63,45,46,37,28,29
36,95,74,47,42,36,26,25
35,82,71,49,41,32,22,22
40,89,73,46,36,31,22,23
38,95,76,49,38,31,25,42
35,82,70,51,31,31,24,54
33,83,60,47,34,30,25,55
43,104,71,43,39,31,28,58
43,94,73,46,38,32,30,61
44,109,74,41,37,30,26,50
48,134,104,48,41,30,28,36
48,138,108,53,41,35,29,35
39,129,103,60,39,33,25,32
34,135,98,59,40,31,22,23
34,134,98,61,40,29,23,23
28,111,79,60,37,30,25,25
30,108,74,58,37,25,23,24
30,109,74,50,38,27,23,23
30,101,77,48,37,28,24,23
38,116,75,47,38,31,25,26
41,113,68,38,36,31,21,27
42,109,66,36,33,29,24,27
43,99,63,43,34,31,26,26
42,99,61,47,37,33,27,25
35,53,60,48,41,30,26,24
36,51,52,55,46,34,25,22
36,56,60,56,48,34,25,23
33,56,56,53,46,30,23,23
32,52,51,51,47,27,23,24
32,52,54,58,44,33,23,30
27,52,57,56,43,34,24,31
25,60,50,59,46,39,22,29
28,73,51,59,47,39,21,29
32,89,74,61,46,39,21,32
33,100,84,56,47,36,22,28
32,113,85,56,45,32,21,25
32,109,100,53,41,27,23,29
32,104,109,54,40,27,23,29
41,120,114,51,36,27,21,27
41,117,106,49,32,26,19,25
44,122,113,49,31,28,23,28
45,125,102,50,33,30,20,27
51,161,108,54,31,31,22,27
42,151,95,55,32,32,23,26
45,164,116,59,34,35,25,27
50,175,129,58,45,35,23,26
75,250,183,69,48,33,31,35
76,244,190,67,47,32,31,39
77,250,194,72,48,31,31,39
78,263,198,78,48,29,31,38
89,363,211,84,44,28,34,40
77,338,191,80,47,34,29,35
75,334,178,80,53,40,29,31
83,343,185,78,53,39,29,34
85,333,174,69,56,38,28,34
71,215,150,61,53,38,25,30
103,184,139,63,49,32,28,32
102,180,138,60,42,26,28,32
97,148,121,55,42,26,28,29
96,147,128,57,36,26,28,28
106,146,130,60,38,25,29,34
71,163,124,56,34,25,27,29
69,154,130,56,34,23,26,29
69,153,130,56,33,24,24,30
121,160,125,64,36,26,33,41
116,179,127,63,29,24,31,38
118,158,119,59,29,23,31,40
123,171,117,59,30,26,32,40
151,199,130,65,30,25,38,44
118,183,120,53,25,22,33,36
132,190,108,50,27,25,34,37
131,195,101,48,26,26,32,36
156,205,107,51,30,23,33,47
132,189,95,42,28,25,28,42
137,194,97,43,28,26,27,42
142,163,110,51,28,22,26,42
189,171,116,51,28,26,29,48
171,177,125,49,27,27,24,37
178,171,120,50,28,25,24,39
197,182,127,51,28,28,23,40
213,218,123,41,29,30,25,45
180,213,124,39,30,27,24,41
211,211,153,55,32,27,28,43
216,221,169,56,32,27,28,44
213,207,166,56,33,22,30,44
204,167,159,59,34,23,27,39
206,174,160,66,35,22,27,37
175,155,127,54,32,20,25,37
168,172,121,63,35,20,31,38
145,172,117,65,35,23,32,38
119,178,117,64,37,22,34,40
108,172,108,60,39,21,34,42
116,169,95,62,41,25,37,49
165,161,76,57,38,26,34,49
167,184,76,62,42,28,32,48
171,183,75,69,37,27,32,44
170,172,69,292,35,29,32,43
159,168,60,361,38,30,29,38
138,142,62,368,42,34,28,37
134,116,65,373,40,33,28,37
179,140,64,372,43,37,36,43
185,146,65,247,45,38,35,43
195,150,69,130,42,36,36,44
167,148,66,108,40,36,37,42
196,153,68,96,41,34,37,44
181,121,74,102,39,29,31,40
178,120,75,91,36,30,33,40
172,110,74,86,34,30,30,38
306,193,91,85,40,30,34,61
298,197,85,89,45,34,34,61
289,206,83,81,46,38,32,63
292,203,84,82,47,37,31,64
296,215,84,81,49,36,32,63
206,201,93,95,48,34,29,48
193,196,92,89,45,31,30,43
187,192,90,92,45,26,29,41
191,220,94,101,45,25,32,43
221,213,96,102,46,27,31,50
214,183,89,118,44,27,28,48
223,180,91,123,43,28,27,49
227,177,90,118,42,29,31,49
218,141,85,108,39,28,28,47
278,160,84,118,42,25,33,61
257,154,85,101,43,28,33,61
259,166,91,91,39,25,33,61
254,162,92,92,41,26,32,59
255,162,90,91,43,27,33,58
180,148,95,84,40,28,26,38
207,143,82,76,38,26,29,44
202,129,76,74,37,28,31,45
196,128,78,71,35,29,31,47
193,123,76,72,33,29,31,48
211,121,70,61,37,29,33,52
174,105,64,51,34,27,30,43
171,134,73,72,35,26,29,44
171,136,68,75,40,30,32,43
170,137,74,82,43,32,30,43
111,137,71,85,40,31,29,36
156,161,77,86,41,33,31,36
160,140,73,73,42,33,30,35
162,152,101,71,41,28,29,35
176,154,103,66,36,29,30,35
171,147,102,67,32,29,29,33
143,121,100,66,38,26,26,35
169,141,107,74,42,29,30,39
174,135,84,73,39,29,29,38
185,142,82,92,44,28,31,40
180,138,81,99,49,29,32,40
195,145,78,101,48,30,33,43
175,123,69,110,45,26,28,37
189,118,67,111,48,28,27,42
180,120,69,106,46,26,25,44
179,125,84,116,45,28,24,44
196,135,94,118,49,33,28,52
214,138,92,110,51,36,35,58
203,139,93,117,50,36,37,56
193,128,89,106,49,39,37,53
198,142,79,92,49,39,39,53
184,127,73,87,45,36,38,46
155,130,71,79,45,33,34,39
174,134,72,78,47,33,32,39
174,135,74,86,42,29,32,39
183,124,73,80,39,26,29,38
152,117,65,85,44,28,26,33
189,162,78,89,43,31,27,32
177,154,78,87,42,36,29,33
182,155,76,83,49,34,28,39
178,160,78,88,49,35,29,41
186,166,81,80,46,35,30,42
164,136,75,78,42,33,28,43
150,142,78,75,41,28,27,39
199,174,81,73,37,30,30,40
189,160,80,67,36,29,28,40
191,173,76,74,35,30,29,40
183,154,65,78,37,29,29,39
209,164,65,80,36,29,30,44
161,135,81,84,32,26,28,38
164,140,81,86,33,27,29,36
184,127,81,82,34,24,29,39
188,132,81,78,32,25,30,39
155,112,79,73,35,27,30,33
184,114,61,81,42,30,29,35
195,123,75,84,41,29,29,37
185,120,81,90,41,30,27,33
173,120,81,89,42,29,25,31
172,119,79,90,41,28,23,31
176,126,79,78,39,27,30,35
163,120,71,77,41,32,30,33
195,117,74,91,47,31,32,37
200,118,80,92,48,35,34,40
203,125,96,97,49,35,35,42
168,114,99,106,49,34,30,39
164,107,94,107,47,30,28,38
132,106,85,88,40,31,27,38
126,97,82,82,41,26,28,36
119,85,61,82,41,25,27,36
115,71,55,67,37,27,27,33
116,71,67,72,40,27,28,34
64,57,67,72,38,24,28,26
71,75,69,79,41,26,25,25
69,80,74,76,37,26,25,23
67,81,72,78,38,23,22,22
66,79,63,69,37,24,24,23
61,80,68,71,38,26,22,24
64,80,79,68,37,27,25,26
67,84,82,71,41,37,26,25
67,88,82,79,40,36,25,27
68,98,92,84,41,37,26,26
148,103,93,87,45,37,28,35
172,102,83,82,40,35,27,38
181,103,96,99,50,30,25,39
183,104,99,97,56,33,26,38
185,97,93,97,56,34,25,41
131,94,87,91,53,33,23,36
88,90,89,94,53,34,23,32
90,87,64,67,40,28,24,31
89,90,57,57,32,27,24,31
85,93,49,48,28,24,23,28
82,96,64,75,42,29,26,25
75,86,69,95,48,30,26,24
102,92,70,101,51,31,27,30
115,86,71,113,62,31,28,30
115,81,75,123,67,34,29,33
122,92,71,110,59,29,28,33
122,95,66,106,56,30,26,33
82,83,66,107,55,31,26,29
59,83,69,102,44,30,28,31
55,86,71,91,39,28,27,27
42,75,62,93,39,28,24,28
46,81,62,85,36,27,26,31
42,83,67,86,36,25,25,29
38,78,59,75,32,22,22,28
43,78,60,79,30,23,22,32
41,74,75,93,36,30,27,30
37,66,78,94,43,29,24,27
64,73,75,88,42,30,24,29
126,113,78,93,45,33,31,38
132,116,85,109,46,32,31,37
135,115,77,103,43,27,28,38
138,116,73,106,41,27,32,38
128,108,72,105,42,28,33,37
73,73,74,107,42,31,28,31
59,65,72,120,48,32,28,29
52,64,76,126,53,31,28,29
47,62,78,127,55,32,24,28
45,67,89,142,59,31,24,29
61,60,86,139,58,25,23,23
62,54,76,114,53,26,24,23
63,53,71,109,47,27,23,21
61,47,73,116,44,25,25,20
64,49,63,103,47,30,27,23
46,50,67,111,47,31,28,23
42,54,73,129,52,33,27,23
39,55,75,134,58,37,30,23
39,55,71,121,55,37,28,23
35,49,67,118,52,37,25,22
31,51,71,132,66,37,26,21
34,48,68,116,64,39,25,22
32,46,65,102,57,34,25,23
33,49,61,98,58,35,26,26
32,47,62,100,52,34,23,22
35,45,54,75,35,34,23,25
33,49,56,76,32,31,23,26
31,48,53,78,32,31,21,25
29,44,55,76,34,29,21,23
77,64,56,78,42,29,21,25
79,73,65,79,41,27,24,28
80,70,63,76,42,25,24,28
83,73,61,74,44,27,25,29
84,78,59,77,45,31,25,30
45,75,69,69,39,28,26,27
39,64,60,70,36,27,22,23
37,69,81,104,45,28,23,24
33,67,85,105,43,29,25,25
32,64,85,103,39,25,26,23
28,49,77,109,41,25,24,23
38,78,86,106,44,26,24,23
39,79,69,71,36,25,24,23
41,82,74,98,48,27,23,30
41,85,77,101,49,28,22,30
43,86,76,102,48,28,22,30
36,62,66,100,49,29,25,29
41,57,65,107,54,30,26,30
39,53,65,93,49,29,27,22
39,49,64,97,55,28,29,22
39,52,67,96,55,28,30,24
42,59,68,97,52,29,28,25
37,56,64,92,51,29,27,26
35,54,60,95,54,29,27,27
35,57,69,110,59,34,25,27
35,54,68,106,61,34,26,28
32,51,71,112,68,38,29,28
30,51,70,108,65,39,30,24
32,53,68,103,60,39,30,25
30,47,60,94,50,35,29,25
27,45,56,94,48,35,30,23
29,45,54,98,51,32,29,25
31,48,62,109,52,32,28,26
29,46,61,107,54,32,26,25
28,47,59,99,54,32,27,26
29,48,61,104,53,32,27,27
25,47,62,95,45,28,24,23
26,41,51,79,43,27,26,24
28,39,52,73,40,26,26,23
30,41,61,94,50,27,25,23
31,42,66,103,55,27,21,25
33,41,70,110,59,31,21,24
32,44,74,119,67,39,21,23
29,45,72,118,70,47,23,25
31,43,65,104,73,51,28,32
30,39,56,90,69,50,28,31
27,38,53,95,71,52,29,31
26,37,66,113,76,52,28,32
27,37,74,139,85,53,30,29
24,37,79,148,88,51,28,24
22,39,80,157,93,55,31,25
25,46,83,173,93,59,30,25
25,46,74,160,87,58,33,23
25,47,68,145,80,53,31,27
27,47,65,142,76,54,32,26
31,47,62,132,80,55,35,25
29,39,51,96,78,47,35,27
29,36,43,92,79,57,34,29
30,35,39,81,74,57,33,26
27,33,34,64,70,59,32,23
26,39,44,105,69,63,28,25
26,43,55,123,80,66,30,25
27,45,57,124,75,53,27,29
25,46,71,140,80,55,30,30
29,49,75,153,82,53,35,36
30,46,73,134,76,47,35,36
32,43,66,119,64,45,35,36
31,41,68,126,67,46,35,32
32,37,54,106,61,44,32,32
30,36,53,96,57,48,24,27
28,36,50,94,59,44,23,26
27,34,49,91,58,41,23,26
27,32,45,79,53,42,22,26
31,38,49,84,56,40,23,25
29,36,44,74,51,29,23,23
29,38,53,94,46,30,26,24
29,39,62,119,61,35,25,22
30,42,77,142,82,41,28,29
30,45,86,163,93,45,29,29
31,47,88,168,93,45,32,31
30,45,84,154,91,44,31,32
31,41,79,135,80,41,29,32
32,40,67,112,59,33,26,26
30,32,55,85,39,28,26,28
30,29,58,100,49,34,24,27
30,32,57,102,49,32,21,24
29,32,57,108,53,33,23,25
27,32,57,111,57,34,23,28
25,33,50,102,55,31,21,27
26,33,46,94,52,28,22,27
25,31,42,88,48,32,24,29
27,32,38,87,50,31,25,30
27,35,45,93,51,31,25,27
26,35,51,103,53,37,24,24
29,37,54,104,62,38,25,26
30,37,60,119,71,39,24,25
29,39,67,137,77,42,22,21
29,40,70,152,89,44,23,23
28,41,68,146,89,41,22,24
24,39,62,132,79,38,22,22
23,37,60,120,72,35,21,25
23,34,55,96,62,28,20,24
19,26,52,67,50,25,21,23
26,29,52,73,55,25,24,30
27,35,59,85,58,25,22,29
26,42,69,103,64,28,25,26
26,42,68,105,65,29,26,26
27,43,64,102,59,28,24,26
24,40,72,114,55,28,23,18
23,37,73,127,61,31,24,21
23,29,63,122,61,29,22,20
25,30,65,124,63,31,20,22
30,32,68,129,62,34,22,24
30,37,61,128,65,38,22,24
31,40,61,125,67,37,22,22
33,42,69,129,69,41,23,22
32,44,72,137,75,42,24,21
29,44,73,142,80,41,25,21
28,42,75,140,81,39,25,21
26,40,70,127,74,40,26,21
24,36,64,115,68,35,24,22
22,33,59,103,59,32,24,23
18,32,54,99,52,31,24,20
21,33,54,92,48,30,24,20
24,33,51,92,48,28,23,23
24,37,50,101,53,29,23,22
25,37,50,100,52,29,25,21
30,37,50,85,51,28,24,25
29,36,43,74,47,23,24,26
27,35,44,73,44,21,24,26
27,32,39,54,39,23,24,27
27,33,43,62,42,26,23,26
25,32,44,66,39,26,23,25
31,34,45,64,38,27,21,23
30,36,49,76,48,32,22,23
29,35,51,82,49,29,22,22
29,35,49,79,51,28,26,22
28,34,48,83,54,28,25,21
20,32,49,86,53,27,25,20
21,28,45,74,46,26,24,23
23,27,45,67,44,28,25,21
23,26,42,62,38,26,20,25
22,29,48,68,40,28,20,25
22,31,47,67,43,28,23,28
24,33,51,76,43,27,26,26
23,35,50,77,44,27,28,27
24,36,54,82,47,28,28,25
22,35,50,79,45,26,27,25
26,33,52,83,46,27,26,22
25,32,50,80,46,26,22,19
24,32,49,80,44,24,19,21
25,33,48,79,41,25,19,20
29,31,46,69,36,25,24,21
27,32,42,62,32,24,23,24
29,33,39,58,30,24,24,24
29,32,40,55,28,27,24,24
31,32,37,52,32,25,24,23
29,33,36,56,35,25,25,23
33,38,38,58,39,29,25,28
32,37,45,70,47,30,23,29
32,40,53,83,60,34,26,28
29,39,61,92,62,36,25,31
30,40,61,93,62,35,23,31
25,37,60,92,60,35,26,29
27,36,52,81,54,32,27,30
193,81,49,73,45,31,27,38
202,82,41,71,43,29,28,38
209,86,41,75,45,31,26,40
212,87,46,84,47,31,22,38
214,87,48,85,48,32,22,36
100,51,45,82,43,26,19,28
83,48,43,71,40,26,18,25
64,39,42,66,39,23,18,19
56,38,35,57,40,24,21,16
47,38,38,61,43,26,21,16
35,38,40,63,44,26,23,16
30,38,43,71,49,26,25,21
27,40,54,89,52,27,26,22
28,38,55,87,49,25,26,22
28,37,54,85,47,23,25,23
26,35,50,80,44,24,24,28
25,38,56,101,55,31,24,26
25,37,50,90,53,35,23,26
24,37,49,90,54,37,24,27
24,37,46,89,53,37,24,27
26,37,53,96,55,38,24,23
24,34,44,72,40,33,22,22
27,34,44,68,42,33,20,24
25,35,47,70,47,34,18,24
25,34,49,75,48,34,17,23
25,33,44,65,46,31,18,22
26,32,45,64,44,35,22,23
24,32,49,68,39,31,21,21
27,32,51,72,41,27,25,22
24,32,48,66,38,28,25,25
42,40,46,66,42,29,25,33
235,127,46,63,44,26,24,39
243,130,46,56,41,28,25,39
256,137,40,53,39,29,23,39
259,140,47,81,49,30,24,37
260,139,53,92,52,37,26,31
126,73,52,92,49,34,24,23
109,66,49,96,52,33,23,26
77,48,49,97,51,34,25,25
67,41,47,82,42,33,24,27
56,37,43,72,39,24,22,25
38,47,49,80,47,26,23,24
38,60,49,78,52,28,24,24
33,59,50,78,55,25,21,25
28,58,47,77,57,26,24,22
30,59,54,91,62,27,23,23
32,49,52,91,62,27,23,25
32,34,54,94,62,29,23,24
31,35,54,91,61,31,24,24
31,37,55,87,61,32,21,25
29,36,46,70,54,31,22,24
26,36,44,66,53,30,22,20
26,33,37,57,46,26,22,22
31,34,34,54,40,27,22,21
30,30,39,65,38,26,22,22
30,31,40,66,38,26,21,22
29,27,43,65,30,25,18,22
28,29,47,82,41,31,21,20
22,29,56,92,45,29,19,20
23,34,60,92,47,32,23,19
24,36,61,104,49,32,23,20
26,38,62,102,50,31,23,22
24,37,61,93,46,27,22,21
24,37,52,89,45,28,22,24
25,34,44,81,42,24,17,24
26,30,41,66,42,23,19,24
23,30,38,68,43,24,19,23
25,30,35,60,34,23,20,23
25,29,34,53,34,19,21,21
23,27,30,51,34,21,23,19
24,30,33,64,34,24,23,18
31,36,38,71,40,25,24,23
30,35,40,85,45,30,24,23
31,41,54,102,53,35,25,23
30,41,55,106,53,35,27,24
28,39,52,100,53,35,26,24
21,35,49,94,49,34,24,22
22,36,51,89,50,32,25,24
26,31,41,74,42,30,22,24
27,31,42,69,41,28,20,25
29,30,43,73,46,29,23,24
29,30,43,74,46,28,24,24
28,29,44,68,42,26,26,22
24,29,41,63,40,23,27,21
24,28,38,59,40,23,26,20
25,31,39,50,36,26,25,22
30,34,41,48,35,26,25,22
30,37,35,50,37,25,23,22
30,37,40,56,39,28,22,24
30,39,43,70,43,29,23,24
28,40,44,79,46,26,24,22
27,38,46,83,49,29,23,23
28,39,53,98,58,35,22,24
28,38,53,104,60,33,21,21
27,37,53,105,59,32,21,21
29,37,55,101,59,36,21,22
24,34,52,99,55,33,21,19
24,31,54,87,44,29,21,21
25,31,50,76,39,29,21,20
27,30,49,67,42,28,21,21
28,27,45,64,35,23,19,21
28,27,45,68,37,22,19,21
28,29,34,68,41,20,19,20
27,29,38,75,46,23,22,23
26,31,40,79,44,25,20,21
24,33,40,85,53,23,22,22
28,36,47,86,57,27,25,22
26,34,51,85,56,29,26,22
27,37,51,83,56,29,26,20
30,42,51,83,58,31,27,23
28,42,54,86,54,34,25,23
26,41,49,85,52,32,23,22
26,40,47,83,49,33,23,23
28,37,46,79,46,31,20,23
24,32,51,78,46,31,19,20
26,29,47,67,43,29,22,22
25,32,47,65,40,26,21,23
25,33,46,64,42,27,21,22
22,35,46,65,39,26,20,23
24,33,39,64,39,25,20,24
22,33,37,63,38,25,17,23
23,30,46,67,42,29,21,23
26,36,54,83,41,28,22,23
25,35,53,83,41,28,22,25
24,36,57,88,43,27,22,23
28,38,63,100,47,28,24,23
30,37,54,98,42,25,20,21
27,30,53,92,44,25,18,22
29,31,56,93,45,24,19,21
29,31,55,90,40,26,19,23
27,29,52,77,37,26,20,22
27,34,58,86,41,26,20,22
27,34,53,80,35,23,22,21
26,33,50,77,37,27,23,22
26,32,45,72,35,25,24,22
26,34,46,80,41,26,24,22
25,32,57,92,54,31,24,24
28,39,68,128,77,36,27,25
29,43,83,166,95,42,27,25
31,47,90,181,100,46,29,28
31,46,88,177,98,47,28,28
32,49,80,169,94,44,30,29
29,45,74,150,80,44,27,28
30,43,57,111,57,37,25,26
27,39,50,100,53,34,22,22
30,48,60,121,58,32,23,22
28,45,61,122,54,32,21,24
29,43,55,112,49,29,20,24
28,41,54,107,49,28,20,26
29,41,52,95,45,26,21,27
25,37,40,66,36,28,18,26
28,37,34,58,40,29,16,23
27,38,38,81,45,29,18,23
28,42,48,102,53,31,18,22
27,42,50,106,52,30,18,20
27,37,51,107,53,30,22,21
27,38,61,121,54,31,23,20
26,36,59,108,53,33,22,21
25,34,54,100,55,32,26,20
27,38,57,111,63,34,25,20
30,42,71,132,75,38,22,20
31,42,65,126,74,36,22,20
31,42,68,136,81,32,23,20
32,41,70,140,78,32,18,19
32,38,65,130,73,32,20,20
31,34,58,116,61,26,21,22
31,37,62,116,61,30,23,23
32,41,61,110,53,33,23,22
31,41,68,115,49,32,24,22
32,40,69,111,47,30,23,26
29,40,63,107,46,30,25,23
25,37,61,104,45,28,23,22
23,35,70,122,48,28,23,23
27,38,61,112,49,29,25,23
26,38,58,111,49,29,24,21
26,38,59,112,47,29,23,21
26,35,60,116,46,30,24,20
27,34,48,95,37,26,25,20
24,32,46,93,35,23,24,21
23,38,55,113,50,28,25,21
24,41,60,118,56,32,24,22
26,41,54,126,55,31,24,22
26,43,54,130,56,34,24,23
27,40,56,135,58,34,22,20
29,36,51,123,51,31,25,21
29,33,43,116,44,26,26,21
31,35,44,98,47,26,24,20
30,35,48,98,56,27,26,22
29,37,47,92,53,28,27,26
26,37,45,92,56,29,22,26
28,37,48,89,57,30,22,27
26,39,48,86,53,30,22,26
27,37,46,75,43,31,18,25
28,38,50,84,48,30,16,22
29,39,54,90,49,36,19,23
29,38,58,108,62,39,23,22
28,38,61,120,67,39,24,23
29,39,59,121,69,36,26,24
27,37,54,113,66,36,28,22
26,34,51,119,63,30,26,21
29,35,49,113,54,24,23,21
31,32,49,106,51,23,21,20
30,33,52,109,50,24,20,22
30,32,53,110,51,25,21,23
28,31,53,102,48,22,21,24
25,30,48,92,47,25,21,26
21,26,45,90,47,24,22,27
21,25,45,86,44,22,23,23
22,25,44,83,42,24,21,22
24,31,42,82,41,26,20,22
25,31,43,84,42,26,20,21
25,32,42,80,42,28,19,21
27,33,47,92,53,34,20,21
28,35,52,100,62,35,21,21
28,30,53,96,62,34,22,22
27,30,53,98,60,33,22,20
30,35,55,100,61,32,23,20
27,36,49,89,52,27,24,22
25,35,48,87,43,23,22,24
25,34,45,80,40,23,23,23
27,39,43,74,40,24,23,24
33,72,56,74,45,26,24,23
35,73,56,76,46,28,21,22
37,80,58,69,45,29,21,22
43,98,62,75,49,31,20,24
44,100,62,78,49,32,23,25
42,123,59,76,40,29,22,26
46,140,62,83,41,30,23,27
51,153,65,82,45,32,27,30
49,150,62,84,49,31,27,29
51,157,77,99,55,32,27,29
60,147,74,97,58,35,27,33
58,138,75,91,63,34,26,36
54,127,68,89,60,34,23,32
59,164,80,89,57,36,24,31
57,174,65,75,55,37,22,31
55,199,72,78,58,38,23,27
55,212,77,93,52,38,25,24
53,221,77,92,52,37,24,26
72,247,99,90,53,37,28,32
81,277,121,85,48,39,32,35
77,265,116,88,46,45,33,35
76,262,117,65,46,46,32,37
82,261,123,77,54,53,35,40
63,222,97,75,53,53,33,35
56,199,85,77,53,49,30,35
56,204,90,73,51,42,27,36
57,202,87,80,54,41,28,35
62,231,106,73,50,35,26,34
62,231,107,78,53,40,26,36
60,218,97,80,50,44,30,33
66,220,109,79,53,45,31,31
73,240,121,76,50,47,32,33
67,227,117,91,52,45,34,31
71,253,122,95,56,46,32,31
75,276,134,93,58,42,29,34
71,267,121,91,56,40,30,33
63,259,108,89,55,37,29,30
64,276,113,70,51,40,27,29
60,247,105,71,43,36,29,28
57,239,105,92,48,37,28,24
59,243,109,97,51,40,27,25
60,232,117,98,53,42,29,26
55,192,108,107,59,42,28,25
56,222,117,107,71,45,29,30
51,200,103,101,72,46,27,30
44,186,104,107,71,45,26,29
50,200,99,106,71,42,27,30
49,194,84,98,67,37,28,30
53,200,102,92,57,32,26,27
52,187,100,93,55,35,27,26
54,207,100,87,55,36,29,27
48,192,101,93,58,37,26,25
47,195,104,93,56,38,25,25
38,174,88,91,54,36,24,23
43,183,92,80,50,31,26,23
52,197,104,92,58,31,25,25
53,188,97,92,54,34,29,25
53,197,101,96,54,36,29,25
55,206,97,95,54,38,29,26
51,213,100,95,52,38,28,25
42,183,81,77,42,36,26,24
39,184,85,73,43,33,22,24
40,180,81,76,40,32,23,23
41,141,77,80,41,32,23,22
42,125,73,80,42,37,23,23
45,141,72,82,39,36,22,25
48,164,75,86,41,37,25,25
47,160,70,78,39,34,23,25
43,160,83,81,44,36,23,24
42,160,79,84,46,32,23,24
41,145,84,90,50,33,24,22
40,137,85,85,49,32,22,23
44,143,97,93,54,35,24,24
48,159,102,91,55,32,25,27
50,183,109,98,63,36,24,28
47,174,107,92,62,36,25,28
48,162,102,94,61,35,26,27
43,158,93,88,59,34,25,27
38,139,74,81,56,35,24,24
37,110,70,78,43,30,24,22
47,135,80,77,41,31,24,22
45,133,80,74,40,30,22,25
48,143,87,77,38,28,23,24
50,150,83,80,40,25,22,25
49,147,80,71,38,25,23,26
41,127,79,71,40,22,21,26
39,157,90,79,43,25,22,23
38,144,92,88,53,28,24,27
38,141,103,99,55,28,24,27
37,142,107,109,59,30,24,26
38,149,105,111,58,30,24,24
39,140,98,109,60,29,23,24
36,151,96,95,54,26,22,20
35,144,85,83,48,25,21,18
35,143,81,74,51,27,23,19
33,148,80,73,53,31,23,25
33,134,77,75,50,29,23,24
33,121,68,79,48,30,22,24
40,128,70,96,54,32,23,26
42,138,79,97,51,32,21,25
42,143,78,107,46,28,22,21
42,138,82,116,48,30,23,21
43,140,86,121,50,33,23,24
35,132,84,110,46,32,22,23
30,113,72,111,47,28,23,24
28,81,77,99,48,31,21,23
37,104,81,92,49,30,19,24
38,104,76,91,49,27,20,22
39,115,77,86,48,28,19,24
42,124,81,81,44,27,19,25
41,123,69,79,46,26,20,25
40,123,62,98,57,29,22,27
38,126,73,97,58,33,23,27
38,122,71,97,58,34,24,26
41,133,69,94,58,35,24,24
41,136,71,103,63,36,24,26
36,128,72,79,51,33,26,23
35,120,70,77,46,30,24,23
36,117,72,80,46,30,23,22
31,100,68,80,43,28,23,24
32,96,66,84,35,26,22,24
32,90,66,90,32,27,20,26
35,104,61,86,37,27,21,26
34,119,64,86,36,25,20,25
33,116,67,91,37,26,20,23
32,117,69,79,37,30,20,23
33,111,63,73,35,32,22,21
30,114,70,72,32,32,21,21
27,101,68,75,33,32,22,23
26,97,65,68,36,32,24,24
30,117,72,68,36,31,24,26
29,117,79,67,42,31,22,24
28,110,70,67,40,29,21,23
35,118,71,71,42,31,21,23
38,121,73,70,41,31,19,22
37,116,83,70,44,33,20,24
39,118,77,74,41,30,19,25
38,107,76,72,42,31,22,25
36,109,76,63,38,28,22,25
35,106,73,62,38,28,21,24
36,102,55,58,33,24,23,24
36,99,56,53,34,25,24,22
36,98,58,55,37,25,22,22
36,101,51,63,44,26,24,22
37,103,52,74,46,27,25,23
34,93,56,81,47,25,22,20
33,107,59,83,51,26,24,23
33,110,60,86,51,26,24,24
31,106,64,82,52,28,22,25
29,104,64,72,51,30,21,24
29,108,74,71,54,30,21,23
28,94,68,67,48,30,23,23
34,112,67,74,53,32,25,23
33,102,68,81,52,31,26,23
35,109,70,80,51,29,26,27
34,122,58,78,51,34,27,27
34,122,58,79,51,34,23,25
29,103,58,77,49,33,20,26
27,108,61,78,51,32,20,25
24,113,58,80,53,35,22,22
26,95,51,80,50,29,22,23
29,108,60,88,57,30,24,22
32,128,70,100,59,32,25,22
32,121,70,103,61,33,24,22
33,111,75,109,61,34,22,21
32,117,75,106,60,34,23,22
31,104,69,97,53,33,21,22
30,86,62,79,47,30,21,25
34,121,60,72,42,31,21,25
35,123,67,87,53,31,23,26
36,116,70,97,58,34,24,25
35,125,74,97,60,34,23,25
34,122,75,102,64,35,22,21
34,94,78,111,62,34,21,22
33,120,70,94,47,31,21,19
35,121,72,86,44,32,20,22
34,113,67,89,45,33,21,23
36,118,62,86,40,33,22,23
31,113,57,67,41,35,22,21
33,82,57,64,46,35,20,23
34,82,54,73,47,33,20,21
31,80,55,68,45,33,20,20
34,111,56,62,45,31,20,25
35,108,58,65,42,29,21,24
33,121,59,70,42,29,21,23
30,130,60,61,42,28,21,24
33,130,60,64,42,30,21,25
27,98,53,68,40,32,19,22
32,108,63,69,46,30,19,22
37,100,71,78,50,32,20,25
36,87,72,88,54,34,21,24
37,89,82,102,56,31,48,23
38,87,84,108,63,36,92,30
36,82,75,106,61,37,95,31
30,69,65,98,55,35,97,30
35,86,64,91,51,33,99,29
33,83,52,79,52,36,90,35
36,85,63,73,43,31,48,30
35,85,64,73,42,31,43,29
36,108,67,75,46,33,38,30
33,96,70,76,44,33,32,30
33,98,69,69,37,30,29,25
32,105,64,68,42,30,25,24
32,101,62,76,43,32,22,24
32,86,62,72,39,30,21,21
32,88,56,64,39,30,21,24
32,90,59,68,40,29,22,22
30,81,58,68,36,26,21,20
31,85,62,60,36,26,23,19
35,101,63,67,42,35,24,21
34,110,71,67,40,35,23,19
34,120,74,62,40,37,25,19
34,136,69,61,39,37,27,20
34,133,71,67,41,37,24,21
28,122,70,69,42,33,24,19
32,118,60,72,42,32,23,17
36,114,61,78,45,30,23,20
35,101,67,74,47,32,21,19
37,104,61,68,51,35,21,19
37,105,58,70,56,33,22,20
35,105,62,84,62,35,22,22
34,136,67,84,61,35,22,22
35,137,67,82,60,32,22,22
36,143,80,89,58,26,22,22
35,137,87,90,51,29,21,24
35,134,85,78,43,27,20,24
32,94,81,77,47,28,19,23
33,98,80,87,53,32,18,27
34,89,70,98,54,33,19,26
37,92,66,98,56,33,22,26
38,92,69,106,61,35,23,26
37,95,67,106,56,34,22,24
41,86,62,105,51,34,25,23
37,83,63,96,49,33,24,24
33,80,57,94,47,30,22,24
33,80,53,93,48,34,21,23
37,95,64,101,52,33,22,25
31,107,78,105,51,34,21,25
32,119,76,102,50,33,20,24
35,122,83,101,50,34,24,25
36,120,83,92,43,28,25,27
32,118,78,82,38,29,24,27
35,109,71,69,37,27,23,33
38,100,69,63,35,28,23,32
36,100,65,58,33,25,19,29
37,108,65,58,37,27,17,28
35,91,61,58,38,24,18,26
37,116,57,58,39,28,19,19
34,110,56,62,42,28,19,20
34,114,52,58,40,28,21,20
33,124,59,58,47,28,22,19
35,126,57,58,50,33,22,20
31,107,55,73,54,28,23,19
34,111,57,73,54,31,24,19
34,111,55,78,54,35,23,20
34,90,47,79,46,35,24,21
34,100,51,83,46,46,24,22
33,97,53,81,41,46,24,20
34,117,58,81,41,47,23,23
37,118,63,86,49,45,22,24
35,127,65,85,51,45,21,27
34,119,62,84,49,29,20,25
37,115,65,92,53,35,19,28
37,98,67,102,55,37,21,27
33,92,66,103,50,37,23,25
33,84,63,103,50,38,23,22
32,89,62,104,54,41,24,27
30,95,60,88,48,36,23,29
26,91,51,76,43,34,24,28
34,102,49,69,40,33,20,29
33,106,53,70,38,34,21,30
35,103,54,64,33,33,19,27
34,95,48,81,46,37,20,21
39,108,58,94,63,39,21,24
35,99,68,96,68,39,22,23
35,94,67,97,70,41,23,25
35,105,69,97,70,39,24,23
34,104,68,90,64,37,26,24
32,88,66,87,49,34,24,23
31,87,60,88,50,36,24,23
34,89,60,91,45,32,24,22
33,69,55,92,48,33,24,22
37,87,57,92,50,32,22,23
38,99,58,85,51,30,21,23
38,103,55,80,47,28,23,24
38,116,56,82,46,26,22,22
37,122,66,81,45,26,22,22
33,111,68,75,41,25,25,20
31,101,61,71,37,26,25,18
27,91,56,72,37,26,24,23
29,63,61,78,44,31,25,27
29,88,53,82,45,31,24,27
30,95,50,83,46,33,23,27
30,98,61,91,55,38,23,28
33,116,66,85,51,40,23,24
32,122,59,67,47,37,22,21
32,102,59,62,47,38,24,23
33,100,65,72,49,38,24,23
34,104,57,67,44,34,24,22
33,93,63,76,49,32,22,20
29,88,68,85,48,31,21,20
33,96,68,88,50,38,22,20
34,103,65,81,47,38,20,22
33,99,76,85,51,39,20,22
36,102,83,101,56,39,22,22
36,107,80,97,62,43,25,29
34,100,81,97,61,36,26,29
33,96,79,102,65,35,25,27
34,98,75,100,66,34,26,28
29,96,60,85,60,36,27,29
30,94,58,82,54,32,25,21
28,93,56,83,54,30,22,23
28,89,58,78,48,31,24,24
26,81,48,73,39,30,24,21
35,111,54,64,37,28,25,22
34,111,55,62,40,29,25,23
37,114,55,60,44,29,24,21
37,111,56,72,50,31,22,20
39,113,57,71,52,32,22,26
32,80,47,76,53,30,19,25
33,78,50,80,51,30,18,25
31,71,54,79,49,35,22,25
37,90,54,67,45,34,22,25
34,85,52,65,39,31,21,19
36,86,57,63,42,31,22,18
35,86,57,65,49,33,24,18
37,95,57,62,49,30,24,22
30,86,53,59,48,30,24,23
31,91,58,58,47,31,25,26
28,88,54,52,41,30,25,27
27,86,53,46,33,26,24,28
24,73,48,49,34,27,21,26
30,98,58,47,33,26,22,26
32,99,54,51,39,31,22,23
32,102,53,55,43,34,20,25
34,104,53,59,48,36,22,26
37,105,56,74,53,36,23,24
33,71,46,75,53,34,21,21
33,70,49,78,53,35,22,22
32,65,50,74,51,32,23,20
31,57,49,72,47,32,22,19
27,58,44,53,36,27,22,20
28,70,53,66,37,29,23,21
28,65,52,65,34,25,23,22
28,67,52,69,31,24,22,23
28,72,55,85,36,28,22,24
32,81,67,90,45,30,21,27
31,76,66,85,45,30,23,30
32,82,70,87,48,30,21,30
35,80,72,101,54,32,22,29
35,80,72,93,52,29,21,29
31,68,60,92,50,30,21,26
29,64,56,98,54,31,19,23
28,69,55,99,56,29,20,21
26,79,58,96,60,30,21,25
24,80,56,91,60,29,23,24
25,80,59,93,56,28,21,27
28,85,55,86,52,29,21,26
30,80,58,80,49,31,21,25
27,66,53,68,36,28,20,22
27,66,52,75,35,30,19,22
29,66,52,72,41,31,22,19
25,61,59,77,37,30,23,20
26,59,56,88,42,33,23,22
27,60,58,90,49,35,24,21
28,54,57,84,48,34,23,20
26,56,58,90,46,34,23,19
28,60,71,135,70,41,25,23
30,57,82,173,86,41,27,26
31,64,87,181,91,44,29,31
35,88,89,182,93,44,30,33
36,96,88,181,94,44,29,33
36,103,79,155,83,37,26,31
35,104,68,105,64,38,26,31
33,107,59,87,50,35,22,29
31,89,58,89,53,38,24,28
32,85,68,83,48,39,24,28
33,75,62,72,47,43,26,28
31,77,61,80,51,41,24,25
33,70,61,85,57,41,26,22
31,86,60,81,55,38,25,20
29,82,58,92,63,41,23,21
25,81,62,96,63,36,23,23
28,83,61,96,62,35,23,23
30,80,69,110,66,36,21,24
30,64,76,126,74,37,24,24
31,63,73,134,76,35,26,27
33,88,72,130,73,35,25,25
33,99,78,135,72,34,25,25
30,105,71,122,69,31,24,27
32,104,65,107,64,36,23,26
31,103,58,85,51,33,21,22
33,85,58,85,52,31,22,23
30,70,43,88,63,32,22,22
33,74,71,99,67,36,24,20
33,74,74,96,64,31,24,21
32,72,77,107,69,33,23,22
30,71,78,108,72,36,25,24
31,88,88,93,64,37,25,24
26,86,66,78,54,33,22,24
27,93,76,75,53,33,24,23
27,94,73,62,47,31,23,24
26,97,76,70,46,32,23,20
27,96,64,67,43,31,23,20
30,107,69,70,44,32,24,21
28,104,54,71,41,29,22,20
27,106,54,71,41,34,23,20
29,102,47,65,38,30,23,22
30,91,47,69,41,32,23,25
27,70,38,64,41,33,20,22
29,79,40,65,40,32,22,23
30,83,43,72,42,30,22,23
32,92,53,70,44,30,21,21
29,88,53,74,42,30,22,18
34,87,57,82,45,31,26,23
34,75,55,88,52,34,25,22
35,67,54,84,52,33,25,21
34,67,46,83,46,33,28,21
35,67,45,82,44,32,28,23
29,65,48,79,41,31,25,19
32,69,52,71,33,31,26,20
32,84,50,68,31,30,26,22
33,74,56,83,47,30,23,22
41,105,69,97,56,33,25,23
42,107,74,97,57,32,25,25
39,106,74,100,60,33,27,25
38,98,78,102,61,38,27,24
35,106,73,86,50,36,27,23
28,91,67,69,39,36,23,22
28,103,61,66,43,36,23,21
29,101,62,85,49,36,20,22
28,98,61,94,54,35,20,24
29,91,68,95,58,40,20,24
26,78,63,105,64,39,21,24
30,82,64,126,70,41,22,25
29,98,64,112,63,39,25,25
29,100,65,106,57,42,25,21
31,111,58,108,53,38,24,22
33,111,60,103,49,36,23,22
30,94,54,79,39,32,23,21
30,81,55,81,46,35,20,20
30,87,52,80,49,29,20,20
28,83,61,86,52,28,22,22
26,86,58,77,52,31,26,21
32,89,62,77,52,35,26,22
33,93,60,80,49,32,27,21
33,88,58,82,48,31,27,21
33,76,47,70,43,30,27,19
33,74,56,85,44,26,24,20
26,79,59,98,54,29,23,19
33,93,67,92,51,29,25,23
33,93,75,101,54,30,23,25
34,95,78,108,59,30,23,25
35,99,74,104,58,30,22,24
34,98,78,91,47,33,21,26
27,76,70,96,53,36,19,23
28,79,64,85,49,35,18,23
27,79,69,92,50,38,18,25
27,69,69,96,51,38,19,27
29,64,63,107,57,32,20,26
29,75,63,111,60,33,21,26
26,69,59,108,60,33,24,26
28,67,54,97,53,31,23,24
27,78,53,95,57,33,24,21
28,80,45,87,51,29,22,21
34,94,52,84,46,29,24,22
35,96,53,82,45,30,21,21
34,96,50,83,49,33,21,22
33,86,48,82,42,30,22,21
32,85,53,77,45,32,24,24
26,63,50,75,41,28,21,24
27,57,52,85,48,29,20,24
26,61,56,98,54,25,19,23
26,61,56,90,53,26,17,24
28,68,57,87,50,26,19,21
32,71,51,83,50,27,20,24
31,79,49,75,44,29,20,23
33,81,45,56,34,30,21,23
37,85,47,66,38,32,24,24
34,82,43,67,39,31,23,23
31,84,48,71,36,35,23,20
35,78,51,71,37,31,23,21
34,73,49,73,35,32,22,20
30,72,51,70,30,29,18,17
30,72,50,72,32,32,18,17
31,65,47,68,33,28,18,19
31,70,52,72,38,30,18,21
30,71,52,71,40,28,19,21
30,73,51,75,46,31,21,22
30,69,52,77,46,29,21,23
31,76,53,81,49,28,22,21
25,72,44,76,47,29,21,22
27,74,42,85,45,31,23,22
27,69,41,79,42,29,21,23
28,66,50,101,53,29,21,23
26,61,49,101,52,29,21,24
27,58,50,102,51,27,22,22
28,60,51,90,55,27,21,24
27,60,51,92,58,30,23,23
26,60,42,74,51,29,21,28
27,56,42,71,52,32,20,28
26,56,50,83,58,37,19,28
25,65,52,89,57,38,17,26
25,64,49,84,53,36,20,27
25,66,47,72,50,36,21,22
22,70,49,77,56,36,22,21
24,80,55,104,65,38,23,23
22,65,55,103,64,35,23,22
23,66,60,106,64,36,21,22
23,64,60,105,63,36,20,22
25,56,57,105,55,33,20,24
26,41,47,66,39,27,23,23
26,42,49,64,38,28,22,23
27,61,50,83,47,29,22,22
29,67,53,94,54,29,23,23
32,77,58,100,57,30,24,21
31,79,59,103,59,31,25,23
30,79,58,110,67,31,25,23
27,66,55,95,61,31,27,24
25,58,50,93,61,31,25,23
21,44,45,84,60,31,24,25
19,38,42,85,61,32,21,25
19,36,39,75,55,30,22,25
21,34,40,86,54,28,20,22
22,34,41,82,51,26,21,21
23,34,43,82,51,25,22,20
23,37,57,96,52,24,22,19
27,38,59,102,52,24,20,20
27,33,56,91,48,23,21,21
25,38,54,87,48,24,22,23
23,36,52,86,44,22,20,24
25,32,38,78,38,24,19,23
20,30,35,70,36,24,25,24
23,33,37,69,38,27,25,25
25,26,39,90,46,30,24,25
26,28,41,93,55,34,24,26
28,34,50,101,59,37,28,28
30,35,51,108,61,37,24,28
30,35,51,113,62,35,24,25
28,35,48,96,54,34,24,24
28,35,47,93,46,31,25,24
24,30,46,83,45,26,21,23
24,34,47,76,40,26,21,21
25,34,49,83,48,28,21,23
25,34,50,93,54,27,19,22
26,32,50,96,54,26,21,20
28,36,45,87,56,29,21,19
26,33,39,87,61,30,20,19
24,34,40,81,55,29,21,18
26,35,43,86,53,28,22,19
27,38,47,91,56,30,21,19
26,34,46,93,54,29,21,20
27,33,47,91,52,29,22,21
27,33,46,98,50,27,21,20
25,32,43,90,51,26,19,20
23,33,40,85,52,27,19,21
22,33,40,85,47,25,18,21
24,36,43,91,48,26,22,24
22,36,46,88,52,26,23,25
24,47,57,99,59,30,25,26
24,54,95,182,73,34,29,27
27,60,108,198,82,37,32,29
24,59,107,196,81,36,29,26
26,59,105,193,79,37,32,27
26,50,102,187,72,35,30,25
25,40,69,109,56,32,25,22
21,30,45,72,45,31,25,20
23,29,44,71,43,31,25,19
21,29,44,75,41,32,20,19
22,32,49,85,52,36,21,21
25,35,50,94,53,35,22,24
24,32,50,100,50,34,19,23
24,34,51,97,51,36,24,23
25,33,52,94,48,33,25,24
26,36,49,87,43,29,26,23
24,33,46,80,38,25,25,21
26,37,50,90,47,28,27,22
24,37,50,92,50,26,22,24
24,36,49,89,51,26,22,24
22,30,41,78,45,28,21,22
21,29,43,78,46,28,21,23
19,26,37,66,45,24,19,22
18,25,36,73,45,24,19,19
19,29,35,77,44,25,19,18
19,30,36,79,46,22,19,21
20,29,32,71,45,24,21,20
19,26,33,71,38,22,22,20
21,30,41,73,43,26,25,21
19,27,43,74,46,27,24,21
21,26,43,85,50,30,26,21
19,27,43,84,48,28,24,21
21,31,43,80,51,29,23,22
22,27,38,70,44,25,20,21
23,29,38,69,42,22,21,21
22,30,36,59,39,21,19,21
22,31,37,61,42,23,19,20
21,29,35,54,39,26,21,21
23,32,40,60,37,25,22,21
24,33,39,60,39,26,24,23
23,32,39,57,33,25,25,22
25,32,38,57,32,25,24,22
24,31,38,57,32,25,26,21
21,31,38,78,42,29,25,22
18,32,41,92,45,31,25,20
21,32,42,94,47,34,25,21
20,32,40,93,50,34,25,20
21,35,45,97,51,32,25,21
21,35,40,78,45,29,23,18
24,32,40,56,43,27,22,20
26,37,57,54,41,21,21,26
25,36,57,54,38,23,23,28
25,35,56,50,38,22,22,29
25,35,57,47,40,24,24,30
23,36,56,47,41,27,25,30
19,34,42,45,43,29,26,26
22,33,42,42,41,29,26,24
21,32,39,39,41,29,26,23
21,30,35,36,36,30,25,22
21,29,32,36,31,27,25,21
25,25,34,42,31,24,25,20
34,28,38,46,38,27,23,23
34,29,37,47,37,27,20,27
34,31,39,48,38,26,20,28
34,32,40,53,45,30,22,28
30,32,40,58,46,35,21,28
16,30,36,56,42,34,24,24
18,30,36,57,42,34,25,20
19,26,34,58,46,35,28,22
23,23,34,51,37,34,26,23
23,24,28,41,37,31,26,24
27,24,29,45,36,31,26,24
27,24,29,44,34,29,25,27
27,24,30,44,30,28,23,26
21,25,28,46,32,26,23,26
24,22,27,43,28,24,23,26
21,29,38,65,40,32,23,25
22,36,56,150,67,37,24,21
27,46,73,189,85,40,30,26
27,48,73,193,87,40,31,25
30,48,73,195,90,44,31,24
31,47,70,191,88,39,29,24
30,41,57,137,71,38,29,24
26,30,34,77,50,34,21,17
25,29,36,70,50,34,21,18
23,29,35,74,48,29,18,20
22,25,31,71,43,29,21,20
21,26,31,67,44,26,19,21
26,29,32,74,49,24,20,22
26,26,28,74,46,25,18,20
24,28,29,67,44,24,21,20
23,28,33,65,46,23,18,20
24,27,31,71,47,27,19,18
23,27,31,59,44,34,18,19
24,28,33,58,45,33,22,21
24,28,36,58,47,33,21,19
27,28,35,58,48,33,21,19
26,27,38,54,45,36,23,22
26,26,40,56,41,30,26,21
27,25,38,51,40,31,24,19
26,22,35,53,38,32,26,19
26,24,37,51,34,32,27,22
27,24,34,46,35,25,26,23
24,29,35,46,38,26,22,23
23,40,35,51,41,27,21,24
24,41,34,45,41,25,17,28
23,42,36,44,39,27,19,26
22,42,35,45,36,26,19,23
24,38,35,45,37,26,19,25
24,25,35,41,30,23,19,25
23,25,34,41,32,24,20,22
22,24,32,44,34,23,19,31
22,27,32,43,34,24,19,34
26,25,27,40,29,26,19,34
27,27,30,45,33,26,19,34
27,28,31,45,33,27,18,34
27,25,30,42,32,27,21,26
27,24,35,43,38,28,22,22
22,24,34,45,37,26,22,21
21,24,33,47,38,29,23,21
25,24,34,49,37,29,24,20
25,27,34,48,42,31,23,22
81,29,30,52,41,30,24,21
91,30,34,53,43,29,24,20
91,29,31,48,41,23,22,19
91,29,38,52,46,29,23,20
91,28,37,63,45,31,22,19
51,28,39,63,48,32,26,20
31,27,39,63,47,32,27,21
31,28,38,64,47,33,29,22
30,27,32,61,42,28,27,23
29,27,32,53,39,26,26,23
26,24,29,47,33,25,21,22
24,24,28,45,33,25,19,20
24,26,30,48,36,25,19,25
24,26,31,47,35,26,19,23
23,25,35,47,37,22,18,25
22,30,36,49,41,22,17,25
22,34,33,51,43,24,18,25
21,36,32,47,41,23,16,21
21,41,30,47,42,25,18,21
23,42,23,42,38,25,19,19
25,43,31,45,34,30,24,23
25,42,34,46,33,29,25,23
24,41,35,46,34,30,25,25
24,38,36,51,33,28,23,25
23,36,37,54,35,28,22,24
20,34,30,50,34,24,17,20
21,30,31,46,33,24,18,21
20,26,31,50,36,23,18,22
21,23,30,48,37,26,21,21
20,26,33,46,35,26,22,24
20,29,34,45,34,25,24,25
20,31,31,46,34,23,24,24
21,32,30,43,30,24,24,23
22,32,29,38,28,21,22,22
23,28,32,37,28,20,23,20
25,24,32,37,27,20,23,19
25,21,31,34,25,26,21,18
23,21,31,34,30,30,20,19
24,25,32,35,28,30,19,20
24,28,27,31,30,32,21,20
24,28,26,29,32,35,20,22
22,29,28,32,37,32,21,24
22,29,33,32,34,27,23,23
20,26,36,37,36,30,24,23
22,23,37,39,37,27,22,25
21,25,38,39,36,24,22,25
22,26,41,39,33,24,21,24
22,26,38,44,34,24,18,23
22,27,35,43,31,22,19,23
19,26,34,42,29,24,19,23
24,27,35,61,29,25,18,22
26,27,32,63,30,25,20,22
24,29,31,58,28,25,22,23
25,28,31,58,28,25,22,26
26,29,29,58,25,22,21,26
21,27,25,37,25,21,23,26
23,26,25,33,26,23,23,26
25,25,29,35,28,23,22,25
27,25,33,40,30,25,23,21
28,26,36,41,33,27,24,21
29,24,38,45,36,27,24,22
26,28,43,73,37,26,23,21
34,30,46,81,41,28,25,23
32,31,43,83,42,25,25,24
30,30,42,85,41,24,23,23
32,35,47,104,46,24,24,23
31,35,45,91,46,22,22,25
22,33,39,84,42,23,24,22
21,32,38,78,38,21,22,21
21,34,39,76,39,22,23,21
19,28,31,51,32,20,20,20
20,28,31,42,34,21,24,19
20,28,32,41,34,21,21,20
22,29,34,46,40,25,21,20
22,27,35,46,42,28,23,20
24,31,36,42,42,29,23,21
24,29,33,52,42,30,21,19
25,30,33,54,42,30,23,21
25,29,32,53,39,28,24,22
25,29,30,53,37,24,22,21
23,27,28,54,39,24,23,22
27,26,26,48,33,22,23,23
25,27,27,51,34,22,25,21
23,27,28,51,35,22,30,20
23,28,29,53,36,25,31,20
23,27,28,48,32,24,29,21
17,25,29,45,33,23,30,20
18,24,30,46,39,23,30,19
22,24,30,52,39,25,24,19
27,25,31,51,39,23,24,19
25,25,34,58,41,26,24,18
27,28,35,60,43,27,26,19
27,28,36,59,39,26,23,21
27,27,33,50,34,25,24,21
21,25,31,49,33,23,24,21
25,24,29,40,30,23,24,20
25,21,27,37,28,21,21,19
23,21,31,39,25,25,21,20
24,23,31,37,29,23,21,21
24,24,31,38,27,24,21,21
22,27,34,49,36,27,21,21
20,29,39,71,50,29,20,21
21,30,33,77,57,26,23,20
18,29,34,78,54,26,22,19
18,28,36,96,62,27,23,20
20,26,39,100,61,24,24,21
23,26,34,87,52,24,24,22
22,27,41,87,50,25,21,23
24,29,48,95,58,30,21,22
24,29,49,84,53,28,21,22
23,32,47,78,51,27,20,21
23,32,47,76,50,28,20,23
23,28,40,68,44,26,20,21
20,27,38,65,35,20,17,22
22,27,33,55,30,20,16,21
21,25,31,50,28,22,18,23
20,26,31,48,25,21,18,21
19,27,32,45,26,22,18,21
20,27,25,32,26,23,20,22
19,26,28,31,26,23,20,22
22,26,29,41,27,21,19,19
20,24,27,46,27,21,20,22
23,25,28,46,29,20,22,23
22,25,28,44,29,20,20,23
22,26,26,45,31,21,21,22
21,26,23,37,27,21,22,22
22,26,26,37,28,21,20,21
20,25,25,38,25,23,16,19
24,23,23,39,25,22,19,18
25,25,25,41,24,21,19,22
24,23,28,46,28,21,20,22
24,23,27,54,34,20,21,21
24,26,29,59,37,20,23,21
21,26,32,63,38,21,22,25
21,25,32,65,37,21,21,21
24,25,30,60,37,23,19,23
23,27,30,50,31,22,19,23
24,26,28,46,29,22,18,28
23,25,28,39,28,21,17,26
22,25,26,32,29,22,20,25
17,24,26,30,26,23,20,24
22,24,24,30,26,24,19,23
23,23,25,26,25,23,20,19
22,23,22,30,27,26,19,18
22,23,23,35,27,26,18,20
24,23,27,43,32,25,21,18
21,22,28,46,33,26,24,20
20,22,26,48,32,27,23,20
21,23,26,47,28,25,25,20
22,24,28,46,30,27,25,19
22,24,24,40,26,28,22,22
23,24,25,36,29,30,21,20
24,23,27,43,30,29,22,19
25,26,27,46,34,29,21,19
24,24,27,44,30,27,21,21
24,23,26,47,33,26,22,19
24,26,27,48,34,22,21,20
22,25,24,46,36,23,21,21
21,23,28,48,37,25,25,20
21,23,26,50,39,25,24,22
23,27,31,53,41,26,25,22
22,26,29,52,40,26,24,23
25,25,33,47,40,28,24,23
26,27,29,39,36,27,20,25
26,27,30,36,36,27,23,22
24,22,25,28,30,26,24,23
25,22,25,29,26,26,25,22
23,24,20,33,24,25,24,22
21,24,23,36,24,23,23,20
20,25,23,36,23,22,22,20
21,29,25,38,27,25,19,19
22,28,29,43,30,26,20,20
22,26,29,51,37,28,23,19
22,27,29,54,36,27,24,20
23,26,29,54,37,29,26,21
23,24,28,55,35,25,25,22
23,30,28,51,35,26,27,21
22,29,28,48,29,24,25,22
25,28,27,45,29,23,25,22
23,29,28,47,29,23,23,21
22,28,27,44,27,22,23,23
21,21,26,45,27,20,20,26
20,23,26,38,27,19,20,24
20,22,28,43,32,24,20,25
21,21,28,42,33,23,20,24
22,19,28,41,32,24,21,22
21,22,28,39,30,25,21,19
22,22,27,36,31,25,20,20
20,22,25,28,26,22,19,19
23,23,22,25,28,23,21,20
23,25,22,27,28,23,22,22
23,25,25,35,35,23,25,24
21,25,27,37,35,23,26,24
21,25,30,38,36,24,27,24
19,26,31,38,33,22,24,22
18,25,32,36,34,22,23,20
21,23,31,34,35,23,20,17
22,24,29,36,32,23,20,19
22,24,31,39,33,22,19,20
21,21,31,39,32,24,20,21
22,23,31,39,33,25,19,19
22,25,28,36,25,23,19,20
23,25,27,37,25,20,20,18
23,27,26,43,28,22,19,18
23,26,28,46,29,20,18,18
24,28,31,49,29,19,19,19
24,28,31,47,28,21,17,19
22,26,33,47,30,22,20,18
22,23,34,40,27,23,21,18
22,26,34,40,29,26,22,19
20,26,33,49,42,33,23,18
20,26,37,54,48,38,24,18
21,28,37,52,50,39,22,20
21,29,35,54,50,38,22,19
22,30,33,59,49,36,21,18
22,28,34,59,39,31,21,19
20,27,31,57,34,23,19,20
22,25,30,56,32,22,23,18
23,26,32,55,32,22,23,18
20,31,42,63,31,24,22,21
21,30,41,63,34,27,23,21
20,32,42,61,32,28,22,19
22,32,42,61,32,29,17,19
20,31,40,62,31,30,18,20
22,26,32,48,29,27,19,19
22,26,31,37,22,23,19,18
24,24,30,40,23,24,21,19
20,26,30,43,22,22,21,23
21,27,30,40,22,24,21,22
21,28,28,40,25,26,23,21
21,28,28,42,28,26,24,22
23,29,28,42,28,26,22,22
23,28,26,41,29,29,22,17
23,29,25,41,29,27,23,17
22,29,25,38,30,26,19,18
24,27,24,35,27,27,18,17
21,28,24,36,28,26,19,17
22,29,24,37,28,25,21,18
22,26,26,37,28,25,20,20
22,24,26,39,26,27,20,19
20,25,25,38,29,27,21,19
20,24,26,38,29,29,23,20
22,23,24,35,31,27,22,20
21,26,26,36,32,26,20,18
20,26,25,33,32,24,22,22
19,25,25,34,29,24,22,20
22,27,23,30,29,20,19,21
23,27,28,33,34,22,19,21
25,27,33,44,37,22,19,23
25,28,33,44,36,22,17,21
27,28,33,43,36,24,18,22
23,24,34,42,35,24,19,21
21,25,32,41,29,24,19,21
19,23,25,34,22,27,19,17
21,24,30,40,27,25,21,20
20,26,31,47,32,23,21,20
21,26,31,51,32,24,21,22
20,28,31,51,32,23,22,21
19,28,31,48,33,23,21,23
18,25,28,48,32,22,21,20
19,25,27,42,28,24,18,20
19,26,26,41,35,22,20,20
21,25,26,39,33,22,20,21
21,26,27,41,34,21,20,20
24,26,26,42,31,22,21,21
23,25,26,44,35,20,22,22
25,27,26,45,30,22,21,22
25,27,25,45,30,22,21,22
28,30,23,41,31,23,22,22
29,31,23,38,36,25,22,22
29,33,23,33,31,25,22,21
28,33,23,36,31,24,19,19
27,32,24,38,33,25,20,19
24,29,27,44,36,24,19,20
19,27,26,44,30,21,17,19
20,25,26,46,33,21,18,19
19,24,26,41,33,21,20,20
19,24,24,44,37,21,19,20
19,25,22,40,34,22,19,22
21,27,23,40,35,22,20,23
19,27,24,40,35,24,21,22
20,26,25,40,31,23,19,21
20,25,26,37,27,22,20,22
20,23,26,38,26,22,22,20
22,21,26,40,28,24,24,19
21,21,25,39,27,23,22,20
25,23,25,43,28,23,23,22
24,26,26,44,29,25,22,21
24,26,26,42,29,26,20,20
22,26,28,41,29,25,19,20
23,27,28,38,29,25,18,21
21,25,29,36,31,28,18,19
22,23,29,40,27,26,20,20
21,22,30,42,27,22,21,21
22,22,31,43,28,22,20,21
21,20,30,45,28,22,21,20
21,20,29,45,28,22,22,22
20,24,31,42,31,25,22,21
23,24,30,43,32,26,21,21
22,26,29,40,31,26,22,20
23,26,29,38,32,28,21,22
20,27,29,40,37,25,21,19
22,24,25,37,36,27,20,20
20,26,25,39,38,27,21,21
19,24,24,38,37,26,21,22
21,26,25,39,36,25,24,22
20,25,27,37,29,25,22,22
19,25,26,37,28,22,23,24
20,24,28,32,23,24,22,24
20,25,29,35,24,24,21,23
18,23,29,34,23,25,20,23
20,23,28,32,26,25,20,23
20,24,27,31,26,25,20,20
19,25,25,32,26,25,19,18
21,24,27,31,26,24,19,18
22,25,25,35,28,23,19,19
20,25,29,53,30,23,19,19
23,27,35,64,39,28,19,19
23,25,34,63,38,26,19,18
21,27,34,67,41,29,20,19
21,26,34,69,40,30,18,17
21,27,34,61,39,31,21,17
19,27,30,53,34,26,21,17
20,28,31,53,33,25,21,18
21,25,29,53,32,25,22,19
22,26,31,50,35,25,24,20
24,24,27,46,33,23,19,20
24,21,29,47,32,23,21,21
23,27,31,56,36,26,21,22
23,28,31,51,32,24,23,20
24,30,31,52,31,23,24,22
22,31,32,56,32,23,25,21
23,29,32,58,32,25,24,22
22,27,33,55,37,27,25,21
23,25,32,54,37,27,24,21
26,22,30,56,37,28,22,19
26,23,31,50,38,30,22,20
25,24,28,46,38,28,21,21
26,25,27,48,38,29,25,26
26,26,30,54,42,30,26,26
22,25,31,52,42,29,26,26
24,25,30,56,45,26,27,26
22,27,33,57,47,27,27,24
23,24,29,50,39,24,22,19
22,24,28,46,36,24,21,20
22,24,28,47,34,24,24,20
50,22,29,42,33,26,23,21
57,22,28,39,29,26,24,19
58,22,28,39,28,24,23,18
57,22,28,38,28,22,24,17
58,23,27,36,31,23,22,19
37,23,26,40,26,23,24,21
26,23,27,46,28,26,24,23
24,24,29,49,30,25,24,26
24,24,28,48,30,26,23,26
22,24,27,50,29,28,22,25
19,23,28,49,29,28,19,28
21,25,25,46,30,23,23,27
23,25,24,49,32,23,26,26
24,27,27,47,34,26,26,27
25,26,27,43,31,24,26,27
24,27,27,42,32,25,26,22
24,26,27,51,32,26,21,22
22,28,29,51,32,27,18,21
22,26,27,51,29,22,19,22
23,27,28,52,31,21,19,21
23,28,29,52,31,23,18,20
26,30,28,41,31,24,19,18
24,26,26,41,27,26,21,27
24,27,26,43,28,27,19,31
23,29,25,42,29,30,22,32
24,27,23,39,27,26,23,32
19,25,25,39,23,24,22,33
20,25,25,32,23,22,21,27
19,26,25,28,21,21,23,22
17,23,25,27,20,17,18,20
20,24,26,34,22,25,20,21
19,25,25,37,23,26,22,23
20,28,28,39,27,30,22,22
24,25,28,46,29,32,21,21
26,29,30,49,29,33,22,20
26,27,29,46,28,27,19,18
28,28,28,41,28,31,18,16
29,27,24,40,26,30,20,19
28,27,25,38,28,27,21,19
30,25,24,36,32,28,22,19
26,25,24,36,32,28,23,22
24,24,25,41,37,25,25,27
24,24,27,42,35,23,23,29
22,24,28,40,33,21,24,28
18,24,26,39,29,21,24,29
20,24,28,39,32,21,24,27
21,23,26,33,27,22,21,22
22,24,26,34,28,23,23,22
20,24,25,40,29,27,20,24
21,25,28,42,31,28,20,25
21,24,26,43,28,32,19,25
21,27,28,47,30,32,19,25
21,26,26,46,30,30,23,21
24,25,25,37,28,26,23,21
25,23,23,37,24,26,24,21
25,25,25,42,27,22,27,28
24,23,25,42,25,22,27,34
23,24,25,44,26,24,23,34
21,25,25,44,28,27,25,33
17,23,28,54,28,25,24,95
18,25,28,53,29,26,22,106
19,26,31,50,28,26,22,109
22,24,31,52,29,26,22,110
22,23,31,52,28,25,21,110
24,25,29,38,29,27,21,65
25,21,30,34,27,24,22,39
24,21,29,36,29,25,28,24
21,23,28,31,26,25,27,27
20,27,36,32,26,23,28,29
19,28,38,38,27,23,28,29
18,30,39,38,30,29,28,27
19,29,38,35,29,28,23,30
21,28,39,38,30,26,26,28
25,25,31,37,30,26,25,27
25,26,28,39,32,26,25,25
24,27,28,44,32,21,26,25
24,27,29,49,36,22,25,22
25,29,28,49,35,23,22,21
22,29,31,51,41,26,21,23
23,24,30,53,42,32,23,23
23,25,26,47,39,32,23,23
23,26,27,41,35,35,23,23
21,26,27,46,37,37,25,24
24,27,26,47,35,36,25,21
22,29,29,42,31,30,24,21
27,26,30,45,33,29,22,22
28,27,33,53,38,25,26,20
26,26,35,57,37,21,25,19
23,26,37,60,40,24,27,24
23,26,34,58,40,24,27,25
20,26,34,57,38,23,29,24
19,24,32,53,36,27,24,25
23,25,32,47,35,27,25,25
23,24,28,39,27,23,21,23
24,25,27,39,25,24,22,24
24,28,28,40,26,25,22,25
25,32,32,38,25,26,23,24
23,30,29,37,26,26,23,24
24,31,32,41,25,27,22,22
24,32,34,42,26,28,18,23
26,30,35,40,29,28,19,20
25,26,30,43,29,22,21,22
24,27,32,40,27,26,21,23
24,26,28,40,29,24,22,26
22,25,27,43,35,24,24,25
21,26,29,48,33,24,22,26
22,27,29,47,33,26,22,24
22,26,29,52,33,24,21,28
23,26,30,50,35,28,24,22
27,25,29,52,28,27,23,25
25,23,27,49,28,28,25,35
24,24,30,46,27,25,23,36
25,23,28,42,29,25,22,33
23,24,29,49,26,23,19,33
19,25,32,49,30,21,22,31
23,23,30,49,28,19,19,19
25,22,31,51,31,23,19,20
23,24,32,49,27,22,23,20
24,23,30,41,28,21,23,22
24,22,25,36,24,25,21,26
22,27,28,35,27,27,25,26
22,28,29,39,27,26,25,28
21,26,27,41,28,25,23,28
26,26,28,41,26,28,22,30
27,26,31,38,29,25,22,27
27,22,27,37,27,23,17,28
29,24,28,34,32,26,19,26
29,24,29,33,34,28,19,26
24,24,29,38,35,25,24,23
22,26,31,39,35,25,25,24
22,27,33,40,35,27,26,23
22,24,29,37,29,24,27,21
23,24,28,36,27,23,30,22
22,26,29,31,29,25,26,23
25,26,25,32,29,25,26,23
27,26,24,32,30,23,27,23
25,26,27,43,35,25,26,23
23,30,28,48,35,30,20,21
26,28,28,51,33,29,25,19
26,26,31,54,39,28,27,20
24,27,32,58,39,27,30,24
23,26,32,58,35,30,31,24
25,24,32,54,35,28,32,24
22,24,31,50,36,29,31,26
21,26,34,48,29,29,28,27
21,25,33,51,26,31,25,23
23,24,32,45,26,30,27,28
21,26,34,44,27,29,26,31
22,25,34,43,25,27,25,30
22,23,29,45,23,30,23,31
23,22,29,34,26,33,23,31
31,23,28,35,28,33,23,25
32,23,24,37,26,33,24,25
32,23,25,40,28,39,23,26
33,24,23,40,30,36,23,22
36,26,21,39,29,33,25,21
29,26,23,36,26,32,21,25
30,23,23,34,29,31,19,21
31,23,22,44,31,26,19,22
30,23,24,42,29,28,20,23
25,22,25,44,31,30,22,26
28,22,24,46,33,27,22,21
26,27,24,47,31,29,23,26
25,29,24,37,27,29,24,25
24,28,23,35,26,27,24,25
25,28,22,35,26,25,19,25
25,26,23,36,23,26,22,27
25,26,24,39,23,22,22,24
26,25,23,41,25,24,21,24
31,25,23,42,31,30,21,24
30,24,26,41,29,30,25,24
28,27,26,41,31,28,26,24
30,23,25,37,33,30,25,23
34,25,27,34,33,29,26,23
42,24,29,42,31,25,28,27
51,24,28,42,34,24,27,31
53,25,26,39,33,27,24,29
52,34,27,41,32,27,24,32
50,35,29,43,32,29,22,31
41,36,28,35,30,28,20,28
27,36,27,35,26,30,20,23
23,35,28,41,29,30,20,26
23,27,29,45,30,28,23,24
19,24,28,53,30,25,23,27
19,25,28,53,29,25,23,28
23,29,29,54,29,24,22,30
24,30,28,50,30,24,21,28
33,31,27,46,31,29,19,27
34,32,26,37,32,30,20,26
34,33,27,39,35,32,23,25
32,28,25,37,38,32,23,21
32,27,26,37,36,34,24,20
22,25,26,36,33,30,24,25
32,25,29,41,36,29,26,25
32,24,29,48,36,27,22,27
32,24,32,49,33,26,24,28
34,25,31,48,32,23,24,29
33,25,31,49,31,23,23,30
24,24,28,45,25,22,23,38
27,23,26,34,29,27,23,39
27,24,23,35,29,30,22,39
25,24,24,36,30,30,22,39
26,24,26,37,30,33,24,38
24,24,27,41,30,34,22,31
20,23,27,44,28,29,24,29
23,24,27,42,29,26,23,27
20,24,27,47,27,29,21,26
25,23,27,45,32,25,21,26
27,24,26,42,34,28,21,25
28,24,27,38,32,28,20,27
27,23,30,42,31,29,21,31
30,23,35,43,34,23,24,33
27,26,33,44,32,30,21,30
27,71,39,44,32,31,22,35
27,73,37,45,32,30,21,31
27,76,36,40,32,29,21,29
26,77,33,71,28,34,20,26
27,77,33,87,25,31,21,27
26,42,28,111,30,28,22,23
24,38,29,114,34,33,22,25
27,34,30,115,34,35,21,23
27,33,27,99,36,32,20,24
24,31,29,93,39,31,21,26
25,28,33,71,42,30,19,24
25,26,30,68,40,25,20,24
24,28,31,73,41,24,23,24
27,27,31,73,41,21,23,24
28,31,29,62,41,22,23,22
29,34,24,52,32,24,23,22
31,40,30,57,38,24,28,20
29,48,32,52,37,24,27,22
27,50,38,55,38,23,27,22
27,51,37,59,37,24,27,22
25,51,37,61,38,26,30,23
23,46,33,56,30,25,26,22
23,37,32,54,29,25,28,22
20,34,26,47,26,27,26,22
22,32,27,44,26,25,26,23
27,32,31,49,27,22,22,21
25,32,34,48,29,24,23,23
27,28,33,48,30,23,20,23
27,29,32,156,32,24,20,22
27,27,30,182,28,28,20,22
23,24,28,183,26,26,23,23
26,24,26,183,27,25,21,21
26,26,25,184,28,29,20,21
26,25,26,112,28,27,22,24
26,25,30,62,30,24,22,21
25,23,27,54,31,26,21,23
27,28,26,53,32,26,21,23
27,26,26,49,30,22,21,25
27,26,30,42,28,27,24,20
29,24,27,38,27,26,25,23
31,26,27,42,29,23,24,22
30,29,29,45,26,28,23,28
30,31,30,49,27,28,26,27
33,32,27,46,26,27,21,27
33,33,27,46,28,28,22,30
34,32,27,42,28,29,35,30
33,26,25,36,27,26,45,24
34,25,28,32,27,27,45,25
30,27,29,40,31,23,45,26
27,25,29,40,31,22,45,22
32,27,33,41,27,27,42,24
31,29,32,42,27,29,33,24
33,29,29,40,25,28,30,22
34,25,28,35,26,31,28,22
37,28,26,39,27,31,29,20
31,26,23,41,32,29,20,20
30,23,24,43,33,27,24,20
27,23,27,49,35,28,26,20
31,23,28,47,33,25,28,24
25,20,30,45,36,29,26,27
28,23,28,48,34,27,24,26
28,24,29,53,36,25,24,25
27,23,26,49,34,25,22,27
29,24,27,49,34,23,25,25
30,25,26,48,28,19,27,22
29,24,29,45,27,24,26,24
32,23,28,36,22,27,23,24
32,24,29,36,24,27,27,22
29,23,28,35,22,27,23,18
29,22,31,51,26,28,22,23
32,24,30,50,26,25,23,23
30,27,33,53,34,24,27,23
29,27,32,57,33,24,23,24
28,27,32,64,35,26,26,27
32,29,29,55,33,28,26,24
34,30,31,60,34,29,28,26
64,39,35,74,31,29,25,29
126,66,37,80,34,29,30,31
141,70,38,75,40,28,29,36
147,73,38,76,48,25,29,36
147,73,39,78,49,28,30,37
155,73,32,66,48,27,30,35
120,74,34,57,50,26,26,32
109,74,36,60,44,26,24,27
100,72,38,70,40,29,27,32
99,71,36,66,40,23,27,30
69,67,36,61,40,27,27,31
49,40,32,59,34,31,25,30
36,34,31,63,35,30,28,29
30,33,29,52,35,28,26,23
27,29,31,50,34,30,24,26
30,31,31,56,33,29,22,27
30,30,31,55,34,26,23,26
26,32,32,47,35,41,22,29
28,31,29,46,29,52,20,32
28,31,27,48,29,53,22,29
23,29,28,40,30,54,21,28
22,27,28,45,29,54,24,28
21,26,27,46,27,47,25,26
19,27,28,58,29,36,26,21
28,30,31,64,32,35,26,23
28,28,31,64,32,32,26,22
28,30,29,61,32,34,25,27
30,28,28,60,32,29,24,27
33,24,25,47,29,28,25,26
24,21,26,50,25,26,23,28
26,23,30,56,26,27,25,28
30,22,30,54,27,25,22,23
29,23,33,56,29,25,24,26
28,27,34,62,31,24,20,28
27,29,33,48,30,23,20,26
72,36,28,45,30,22,21,25
75,41,28,47,30,28,24,28
78,43,28,48,29,30,24,25
102,49,28,40,28,30,26,25
124,53,27,43,30,30,27,29
176,91,32,40,29,30,26,36
176,91,33,47,31,23,25,36
181,93,29,48,35,25,27,37
172,92,32,50,37,24,25,37
208,103,31,53,41,28,27,37
171,76,30,63,41,28,25,33
176,76,32,62,41,29,26,33
174,75,32,59,37,26,22,32
173,72,33,61,37,28,23,32
111,49,33,66,32,26,20,30
110,50,34,58,34,28,23,27
100,45,30,56,32,30,21,25
93,43,32,62,37,35,24,26
89,44,29,60,41,33,24,27
85,46,28,49,39,32,23,26
100,58,25,46,39,31,24,31
106,60,25,45,39,29,24,32
108,59,23,37,34,25,22,34
108,58,24,36,27,24,26,33
109,58,26,37,29,25,27,32
89,56,30,48,33,26,26,27
82,55,32,47,32,25,34,25
80,55,33,50,35,24,36,26
80,56,37,63,39,28,34,28
78,56,38,73,41,26,33,26
41,34,34,69,46,26,32,26
78,43,34,70,45,25,22,28
77,47,32,66,42,27,20,23
81,50,29,58,40,25,21,23
82,51,25,46,39,28,22,24
81,51,26,41,33,29,22,25
80,49,26,44,32,28,23,23
82,44,27,50,35,26,26,26
81,40,26,46,33,25,25,24
80,40,29,48,31,24,23,25
81,40,29,49,30,26,25,28
43,32,30,48,30,28,26,28
77,41,29,43,27,27,23,26
78,41,35,49,29,27,22,26
81,42,32,47,28,28,23,27
82,43,32,46,23,25,20,24
83,44,36,46,26,23,16,24
69,38,35,49,31,26,19,23
79,40,30,43,31,26,19,25
79,39,33,54,31,27,21,20
79,37,33,54,33,27,26,22
79,37,27,56,34,28,30,22
62,37,31,54,30,27,30,23
80,42,31,56,31,28,31,21
81,40,32,49,33,27,28,22
82,41,34,52,32,25,26,21
83,41,34,49,30,26,23,19
83,37,32,49,29,30,21,22
88,39,29,46,28,32,21,25
85,43,28,47,26,32,23,26
85,44,28,48,26,40,23,26
84,43,27,46,28,43,21,26
84,43,28,45,31,44,24,24
42,36,28,51,34,43,24,24
38,30,27,46,34,45,22,24
80,36,23,44,33,39,24,26
81,36,25,47,35,33,25,28
82,37,22,48,33,31,26,29
82,33,24,45,28,30,27,30
84,35,26,49,30,23,28,33
41,27,31,47,36,24,26,35
59,30,29,43,31,29,29,35
79,40,30,46,35,28,25,36
81,40,28,42,33,29,28,35
83,39,27,39,33,29,30,32
83,40,24,42,27,29,39,32
71,39,26,44,29,24,38,30
44,28,26,39,27,26,38,28
85,44,30,38,32,25,37,34
85,44,28,37,32,24,35,33
85,43,28,34,36,24,25,31
85,42,31,31,37,25,27,31
85,42,32,37,39,27,26,33
40,25,33,41,39,29,23,27
35,24,35,48,41,30,24,27
30,22,35,49,37,34,21,27
53,24,32,49,35,34,23,26
74,41,34,49,35,33,23,25
76,41,31,45,35,33,28,33
78,43,27,41,31,32,33,34
80,44,29,43,34,33,34,38
67,45,29,47,34,30,35,38
83,45,24,43,35,27,36,39
82,46,24,46,41,28,32,31
82,45,26,43,40,34,31,31
84,45,24,39,47,29,30,27
84,44,25,39,48,31,25,28
48,31,25,45,46,31,26,26
42,26,25,41,37,33,34,26
40,30,24,44,36,29,34,26
34,29,23,43,24,28,33,31
71,36,24,43,24,27,33,29
73,38,27,36,28,30,33,30
77,41,30,46,28,28,27,30
78,43,35,46,29,31,21,32
79,44,42,58,31,32,21,26
49,39,41,55,33,36,26,28
43,37,40,57,32,37,27,25
37,35,39,55,35,35,25,26
80,38,34,56,35,31,28,22
83,41,26,45,34,40,30,25
85,39,28,46,34,43,28,25
86,40,28,51,35,41,25,25
115,53,27,47,36,40,28,27
92,48,27,43,36,40,25,30
90,49,29,43,42,34,25,28
89,51,26,40,39,34,24,27
89,49,28,39,38,39,26,26
46,37,31,46,37,41,29,24
41,36,31,48,37,43,27,22
78,38,31,47,34,40,26,23
79,38,32,51,51,33,26,24
82,41,33,49,52,33,25,25
85,41,30,43,50,34,24,29
84,39,31,45,49,34,28,29
51,34,30,46,46,36,31,32
47,31,29,44,29,37,30,33
40,29,25,41,31,35,29,33
74,38,26,43,36,35,26,29
77,40,28,43,42,36,25,29
79,41,27,43,42,36,23,28
79,43,26,41,40,35,29,28
80,41,24,38,38,32,30,29
47,35,26,35,32,31,30,31
81,43,24,34,26,29,29,29
80,43,24,35,30,28,32,29
83,42,26,44,28,32,29,28
84,46,31,49,30,32,28,27
82,44,29,49,31,30,27,26
46,39,36,53,35,31,28,29
42,37,35,51,33,32,22,26
54,39,36,44,33,29,20,27
76,40,34,46,31,33,21,30
81,40,36,47,31,40,24,32
83,36,29,40,26,39,25,31
82,36,32,40,26,37,24,31
76,33,34,40,28,37,24,30
66,31,35,32,28,34,26,30
80,42,33,38,28,27,26,30
81,43,35,45,31,25,24,28
84,45,34,51,33,26,27,29
81,46,32,55,33,26,26,29
95,52,27,56,30,25,26,27
81,44,29,55,33,34,27,24
82,46,28,56,31,34,25,29
80,43,25,54,29,35,25,29
81,44,29,52,29,36,24,31
85,43,30,50,28,37,25,32
88,47,27,54,30,28,22,31
87,45,29,51,34,26,22,28
86,45,33,58,35,33,20,26
86,43,32,62,38,34,23,23
50,38,31,64,38,32,20,20
80,44,32,61,38,31,22,22
79,46,32,68,43,34,22,22
81,48,32,61,45,27,22,22
81,50,30,55,44,26,23,23
82,49,32,54,47,28,25,24
45,37,31,51,45,29,23,22
41,35,31,45,38,25,24,22
52,38,33,51,36,24,24,22
76,41,31,54,35,24,19,21
77,41,31,57,35,23,22,23
81,40,32,55,34,24,23,24
81,41,31,49,33,25,22,27
72,35,26,40,31,25,23,27
45,32,25,36,32,24,26,29
49,33,25,58,34,25,23,28
80,44,33,71,39,27,25,28
83,43,34,74,41,25,24,25
86,46,35,76,40,32,26,25
87,43,38,81,40,32,23,22
82,42,38,64,35,31,25,21
47,39,30,51,31,29,22,23
41,40,30,52,31,33,23,21
31,38,29,52,31,30,20,21
32,39,31,59,37,31,21,21
32,43,31,60,40,30,20,21
77,44,32,59,39,30,22,17
81,45,32,53,37,28,22,20
84,45,33,63,38,24,21,21
82,46,28,51,34,27,22,24
82,43,26,53,34,28,21,23
80,43,26,54,32,25,19,24
86,47,26,54,34,27,20,21
87,46,26,42,32,26,21,23
88,46,29,41,37,23,21,23
88,44,31,43,36,23,21,22
86,48,32,48,38,25,21,24
80,47,33,49,36,22,21,26
80,48,34,50,37,22,23,25
82,48,30,56,32,21,22,23
83,49,34,59,35,23,23,26
53,39,32,54,33,22,24,26
75,37,29,53,34,22,24,26
75,36,27,53,33,24,21,26
73,35,29,46,30,22,20,26
75,39,25,38,27,29,21,26
75,38,24,37,26,29,22,24
46,34,26,36,25,29,23,23
80,41,27,35,24,27,23,25
82,46,27,33,26,28,24,26
81,42,24,38,22,20,24,24
83,43,28,41,24,20,23,23
83,42,30,46,25,21,21,25
47,34,29,45,26,21,22,25
41,29,30,50,27,20,24,24
37,27,31,44,27,20,22,24
30,26,31,48,36,29,25,24
29,29,30,49,41,31,24,24
25,31,31,51,41,33,25,23
24,31,28,48,40,35,23,24
75,40,29,54,43,35,25,26
79,41,29,49,35,28,21,27
84,44,29,45,28,25,22,27
98,46,29,46,28,23,22,26
111,51,31,50,27,21,22,26
89,45,32,47,26,24,22,23
88,44,30,47,25,22,23,23
84,41,30,46,25,23,22,21
67,38,29,41,26,22,20,22
45,33,27,39,26,25,21,21
36,33,27,38,26,21,19,20
28,33,27,37,26,23,20,20
28,31,26,39,29,26,20,21
28,31,32,45,31,25,20,18
28,28,31,40,31,24,20,20
28,29,31,39,29,26,20,21
29,27,29,41,28,26,19,23
26,29,31,43,27,25,21,23
26,28,27,38,24,27,22,25
21,30,32,62,27,27,23,24
23,29,34,68,31,28,22,24
77,38,34,67,33,25,23,25
80,38,34,66,33,27,21,24
83,39,35,72,33,27,20,22
86,39,33,58,33,28,19,21
87,41,29,55,33,26,20,22
47,35,29,61,34,27,20,19
65,37,29,62,34,25,20,20
71,38,27,54,35,24,21,21
73,40,25,49,36,22,21,25
73,40,28,46,34,23,21,25
74,39,32,43,34,23,21,25
57,41,31,40,33,21,20,26
45,45,34,42,32,23,20,26
53,46,35,43,29,26,22,24
79,53,37,49,30,26,20,23
80,54,35,47,30,29,20,24
81,52,35,46,29,29,21,23
81,46,35,58,31,29,20,23
72,43,35,61,33,27,19,22
42,33,34,60,35,27,18,22
81,41,32,56,35,26,20,25
82,42,31,57,35,27,21,25
84,42,30,45,34,25,23,28
85,41,27,42,32,26,22,30
84,40,28,36,29,24,23,29
45,31,30,40,27,21,23,34
39,31,30,46,29,21,22,35
32,29,30,45,29,20,22,31
56,36,36,43,24,20,22,29
77,43,35,44,29,22,20,29
80,45,33,41,29,22,21,20
82,44,33,35,29,24,20,17
84,44,33,35,29,25,20,20
72,41,28,38,33,25,19,20
86,43,29,41,29,24,20,21
83,41,32,54,33,27,19,22
84,42,35,58,38,23,20,24
81,43,34,59,36,25,19,23
105,49,34,56,36,24,18,24
81,42,34,53,36,26,21,26
83,46,32,40,31,23,20,25
82,45,30,38,26,24,20,23
82,43,28,35,27,21,20,23
86,49,28,38,27,23,21,22
86,48,35,65,27,21,21,18
85,44,36,69,29,23,22,20
84,45,34,66,30,25,23,23
86,46,34,67,31,25,24,24
42,33,35,66,30,25,27,23
38,34,26,41,29,25,27,24
32,36,27,33,26,23,27,24
29,34,28,34,28,21,25,23
24,33,27,40,31,21,26,21
75,43,31,49,35,28,25,22
79,43,30,48,34,28,24,21
81,41,29,50,37,28,25,20
82,42,29,50,35,29,24,21
82,42,28,46,38,33,23,23
77,37,22,36,40,29,19,22
77,39,22,40,45,30,19,24
77,39,23,43,45,31,20,25
78,41,24,45,44,30,20,23
79,41,24,49,39,27,21,23
46,34,26,49,35,25,23,23
38,30,27,48,29,24,22,22
72,38,27,46,26,24,22,22
73,36,28,47,30,24,23,22
76,36,28,44,31,22,23,21
78,37,29,56,36,23,21,21
79,38,29,62,44,26,22,24
48,31,30,64,44,24,22,22
51,33,28,61,42,26,21,23
80,40,30,60,43,29,22,24
80,40,30,52,36,29,22,25
83,39,29,46,31,29,21,26
82,38,31,43,31,29,20,26
78,35,32,44,32,27,20,25
78,35,31,42,32,26,22,26
77,39,30,41,32,27,21,25
76,42,32,41,27,25,21,23
78,43,31,41,27,25,22,23
78,44,32,42,26,26,21,22
46,38,32,43,29,27,21,21
80,40,34,42,33,25,22,22
81,37,33,44,34,25,22,20
81,34,34,52,36,25,23,21
82,35,33,49,35,25,23,23
82,31,33,51,32,25,19,22
58,26,31,52,28,24,18,21
77,37,32,52,29,26,19,23
78,38,31,43,26,25,20,23
78,38,33,45,30,26,21,22
79,41,33,41,27,22,21,22
104,47,33,37,29,24,22,24
89,38,29,36,25,22,23,22
88,43,30,38,24,23,21,21
88,44,29,38,23,22,23,22
87,42,28,39,24,22,22,22
81,41,30,43,24,27,22,19
85,44,35,43,29,26,22,20
87,43,33,44,30,25,23,23
87,42,32,51,31,26,24,22
87,44,33,53,36,25,24,25
90,47,32,51,35,19,25,26
87,43,27,48,33,20,24,26
85,41,28,60,38,22,24,25
84,39,33,63,39,24,23,25
85,37,33,63,38,24,24,23
40,25,32,71,39,25,22,23
38,27,37,76,42,29,24,29
35,31,39,68,39,28,22,27
35,31,35,63,35,28,22,29
57,32,35,62,33,27,21,29
74,41,37,55,34,30,21,28
77,43,36,61,34,26,21,23
79,41,32,63,35,27,23,24
79,42,32,59,35,26,22,21
98,48,32,61,36,26,24,24
91,45,30,61,37,24,26,23
91,43,26,46,34,22,23,22
89,43,24,40,31,19,21,23
89,43,28,50,31,24,24,23
49,36,29,58,29,25,21,19
35,30,29,60,26,26,19,19
72,38,28,62,25,26,22,21
74,39,28,60,26,29,22,21
78,38,27,56,28,25,18,21
78,39,28,47,28,25,21,21
79,40,33,47,31,24,22,24
53,32,34,50,32,27,20,23
61,29,34,51,34,31,22,21
57,30,32,46,32,32,22,25
77,34,31,49,32,31,20,26
91,38,27,43,30,31,26,26
89,39,27,41,33,31,26,25
83,41,28,50,32,25,23,25
85,41,30,63,34,29,24,24
66,37,29,59,34,28,25,21
44,34,31,86,36,33,20,19
39,34,31,100,34,31,19,21
38,33,32,99,34,30,21,24
75,38,30,93,34,26,21,23
76,37,33,93,34,26,22,23
81,38,31,70,32,21,22,24
81,38,34,44,31,23,25,23
81,39,32,35,30,23,24,21
44,31,33,36,27,23,23,21
43,37,32,36,26,23,24,23
41,50,38,38,31,25,22,23
39,49,37,49,31,24,19,23
37,49,38,53,31,29,22,24
37,49,38,58,35,28,21,25
35,46,37,66,40,28,22,23
23,28,31,63,34,26,21,23
26,27,29,57,35,29,22,24
31,25,28,56,35,23,20,25
32,25,28,53,31,22,19,23
32,24,30,44,27,22,20,25
33,22,28,45,27,25,22,23
31,24,28,44,27,22,24,22
25,24,25,42,25,22,24,27
24,25,26,51,27,21,26,32
23,25,27,54,35,25,25,34
22,27,27,54,34,22,23,34
21,25,26,56,35,26,21,35
23,26,31,61,40,27,22,29
23,26,31,54,39,29,20,22
27,29,31,55,32,27,22,17
26,27,35,56,33,28,22,17
27,26,34,54,33,25,23,17
25,25,31,49,27,25,23,18
23,24,36,52,26,25,22,20
21,22,34,48,29,27,21,22
22,22,31,46,29,30,22,22
22,24,32,49,31,32,20,20
24,23,31,49,31,32,20,20
24,27,25,44,32,33,23,19
22,28,26,41,31,29,21,20
25,27,27,42,31,26,20,21
23,28,30,38,28,27,23,23
22,28,31,44,27,26,22,23
21,24,30,45,27,24,22,24
23,25,35,46,26,23,21,22
20,26,36,48,26,24,22,23
23,25,35,53,31,18,24,21
22,27,35,47,30,16,24,21
24,30,33,42,28,20,23,20
25,28,28,47,32,21,25,22
28,28,26,44,31,20,25,23
27,28,25,41,28,21,22,23
27,27,25,48,29,26,23,24
30,25,27,49,29,24,24,24
27,26,29,46,24,25,22,22
24,27,31,52,28,26,21,20
23,28,31,52,26,29,20,20
25,28,31,47,24,26,24,19
22,29,35,48,30,26,22,26
21,29,34,58,37,26,22,27
23,27,35,53,36,26,23,27
24,26,39,52,36,24,23,27
23,26,38,51,36,30,19,27
24,26,36,50,31,29,20,23
26,28,36,34,22,27,20,21
27,33,35,35,21,28,20,21
26,33,32,37,19,27,23,22
25,35,33,38,22,22,24,20
24,34,31,37,21,21,22,18
107,35,28,41,20,23,23,19
129,36,30,45,24,24,27,18
131,41,29,41,25,25,25,20
132,38,28,40,25,21,26,20
133,37,31,48,34,22,27,20
84,35,33,45,36,23,26,20
45,28,30,41,35,22,24,20
38,19,29,44,37,23,23,19
38,23,30,43,37,24,22,25
33,25,30,35,30,24,22,25
30,25,28,39,31,32,21,25
29,25,28,39,31,32,24,30
29,25,27,36,28,30,23,28
25,26,28,38,28,30,22,24
23,24,25,39,28,29,21,26
24,28,28,39,30,23,22,26
21,27,30,41,28,23,18,22
22,30,43,48,31,24,20,21
21,30,43,47,30,26,20,22
21,32,43,45,31,29,20,21
20,29,42,43,28,25,20,20
20,31,44,44,27,26,20,18
20,30,31,36,27,26,21,21
22,27,33,35,28,24,21,22
22,23,33,39,27,20,22,21
20,24,31,40,26,23,21,21
24,22,31,39,28,26,22,23
23,25,33,40,26,25,20,22
23,28,35,40,25,28,21,20
23,28,34,37,26,29,22,20
24,28,38,41,26,28,22,24
22,29,35,42,25,27,22,24
23,33,37,43,26,28,22,24
22,33,38,47,28,26,21,25
21,33,39,52,26,25,24,27
20,33,36,54,34,29,24,22
22,34,40,54,38,30,24,22
22,29,35,53,37,29,25,22
23,28,31,53,36,30,24,22
23,28,33,49,40,31,20,19
25,27,32,43,35,30,20,21
24,24,30,40,34,26,17,22
24,24,32,46,36,27,21,22
25,25,33,53,39,27,21,23
26,30,35,58,37,25,22,24
26,30,37,61,40,28,23,25
27,30,35,62,41,28,24,23
26,32,39,62,41,29,21,23
26,32,38,55,39,28,21,23
27,30,37,54,38,29,21,24
26,30,35,49,34,22,20,23
26,33,38,46,29,26,19,22
27,29,36,48,26,25,19,23
27,37,41,52,25,24,19,23
24,36,41,46,27,23,20,22
26,37,49,45,33,25,20,22
27,38,48,55,35,23,24,23
26,37,51,51,40,25,23,20
26,33,60,46,41,24,22,20
26,33,58,49,41,27,23,19
26,33,55,53,39,27,23,24
30,32,54,48,38,27,20,28
29,34,51,55,33,25,21,29
28,32,36,65,35,27,22,31
31,31,39,63,32,23,18,32
31,40,55,65,33,24,21,31
27,42,56,66,30,23,20,26
26,42,57,66,33,26,21,24
30,44,74,62,30,24,22,21
30,44,78,64,32,26,23,23
31,38,66,60,29,25,20,20
30,34,66,57,29,25,22,19
33,38,73,52,26,23,20,22
32,34,55,47,27,24,22,22
28,33,49,45,28,23,21,21
30,32,46,46,29,23,22,21
30,35,54,63,32,23,21,24
29,31,42,67,32,26,21,26
27,33,43,68,37,29,20,26
28,36,44,71,39,31,20,26
29,38,48,73,41,29,22,29
30,35,36,67,45,29,24,26
30,36,37,69,49,30,24,25
29,37,40,71,48,34,25,23
28,36,41,70,46,33,25,25
24,34,37,66,44,34,22,22
25,35,38,59,41,35,20,24
24,32,43,48,38,31,22,21
28,38,41,48,38,25,21,23
33,38,52,67,40,25,22,26
35,41,53,74,41,26,24,25
35,40,53,73,38,25,27,25
38,43,50,75,35,25,25,26
44,64,91,75,35,24,24,27
41,64,84,68,36,25,26,23
40,65,87,60,34,26,24,24
40,67,90,75,36,26,20,24
43,73,91,80,44,28,20,25
43,54,59,80,47,28,20,23
46,53,67,90,49,27,21,25
46,53,65,96,57,30,21,27
47,51,62,94,63,32,22,27
42,47,65,90,59,30,22,27
36,48,61,94,55,30,23,27
34,48,57,82,52,28,20,25
33,46,58,83,49,25,21,23
32,47,57,84,42,24,21,22
39,55,56,87,42,25,22,30
38,53,55,101,45,24,20,30
37,54,52,98,44,25,21,29
43,57,54,103,43,23,22,30
43,58,55,98,41,25,25,31
38,46,50,100,43,28,24,24
41,47,49,85,42,30,26,25
49,58,49,90,42,30,26,27
54,68,53,94,48,33,24,27
58,69,51,97,48,30,22,27
60,76,55,99,47,30,21,27
62,80,51,94,48,29,20,26
61,77,49,88,47,31,19,26
57,70,41,74,40,29,19,29
53,70,42,65,38,30,21,27
53,66,38,61,39,28,23,29
55,72,40,62,36,28,26,29
53,68,40,64,36,27,34,28
50,66,37,65,36,26,34,25
54,76,43,74,45,25,32,27
52,72,40,71,44,25,53,25
53,71,47,77,51,25,74,24
51,73,48,78,51,25,79,25
52,74,48,73,51,25,85,25
51,67,49,74,46,32,100,27
53,67,49,73,44,35,97,30
49,63,44,63,35,35,86,29
47,60,44,63,33,39,89,31
49,61,43,67,31,39,102,38
48,59,39,64,29,39,90,38
48,64,38,64,27,36,87,37
50,61,39,67,33,38,83,37
55,64,38,63,36,35,85,37
58,74,39,56,34,38,64,31
61,77,37,52,37,38,71,30
59,75,38,50,39,36,67,30
59,78,37,50,38,39,66,30
61,87,38,49,37,37,48,29
65,91,40,47,38,34,53,31
63,97,42,42,33,33,38,30
73,129,139,42,37,35,44,32
78,145,142,41,36,39,67,33
74,147,159,52,43,52,77,37
75,153,161,55,44,51,77,35
76,154,163,57,44,53,78,37
77,138,98,54,41,52,75,35
77,140,111,60,40,49,57,35
82,143,142,53,33,37,42,54
80,152,156,55,33,37,37,66
110,200,160,60,35,32,31,73
108,196,166,68,39,34,31,73
106,191,162,65,37,31,28,74
107,188,116,70,37,31,28,60
110,188,100,68,33,32,26,50
85,150,108,63,34,36,26,43
94,188,122,59,29,39,24,46
103,202,134,72,32,39,23,47
100,198,136,69,35,39,25,46
94,185,133,71,39,38,24,46
90,173,119,71,36,32,27,45
76,130,93,77,36,28,27,39
56,86,62,64,34,25,27,34
60,86,56,66,35,27,24,35
55,76,50,63,35,31,25,33
54,76,49,64,40,33,23,25
54,78,48,58,42,34,25,25
58,83,48,59,42,34,25,26
50,79,42,54,39,34,30,26
54,82,45,59,38,31,35,25
51,78,46,58,36,31,42,24
51,74,44,56,34,28,44,24
51,78,43,52,34,28,43,24
55,88,50,69,41,28,39,23
52,84,49,69,44,34,34,24
53,81,51,71,42,35,23,25
51,81,48,71,41,37,18,23
48,80,51,73,43,38,20,24
43,71,49,61,37,38,19,24
46,77,50,60,36,39,21,24
44,76,46,55,35,38,22,26
45,74,47,51,40,37,22,27
47,68,46,66,46,39,21,29
47,66,41,64,45,37,21,29
54,69,42,70,47,30,22,28
54,68,42,74,47,28,21,26
54,62,40,74,44,26,21,26
53,71,38,61,38,28,24,28
56,74,45,71,39,30,26,29
43,62,43,77,35,28,25,28
45,63,43,78,37,28,24,35
53,94,50,82,41,29,24,34
54,89,48,83,39,24,24,30
52,86,47,83,45,25,22,29
52,88,46,71,46,26,22,30
50,86,46,69,46,29,23,22
42,60,42,63,43,28,26,27
38,54,43,63,44,28,25,27
39,56,41,58,43,27,25,26
41,56,38,59,40,27,25,25
41,60,37,55,39,27,24,26
44,64,40,57,41,30,20,24
46,67,39,58,42,30,21,23
45,73,37,55,38,29,20,27
48,76,40,55,42,29,21,27
47,74,41,57,44,27,21,25
42,65,39,63,48,25,20,26
43,64,44,69,48,27,21,27
41,52,41,63,45,27,25,22
40,48,39,65,42,26,24,21
42,55,41,66,40,30,25,24
42,57,40,66,33,29,24,25
39,59,42,60,38,32,23,30
39,60,43,62,37,33,20,31
35,63,42,63,38,33,19,30
37,60,39,59,39,30,22,30
38,58,37,51,38,29,24,28
40,59,31,49,33,23,23,23
44,61,33,45,33,21,23,22
46,59,34,48,32,26,29,23
41,52,34,49,34,26,26,21
42,57,37,52,35,28,26,21
38,52,34,55,38,29,25,20
35,52,33,55,38,30,27,22
32,47,31,50,39,27,21,22
33,48,32,51,40,28,23,24
29,42,29,47,39,29,25,24
34,43,30,40,34,28,27,28
33,41,29,39,35,26,25,26
33,48,33,39,35,28,25,26
32,47,32,36,31,26,30,26
34,48,33,38,34,26,27,25
36,50,34,41,35,28,25,23
36,50,33,41,35,29,27,24
36,45,30,43,34,24,27,23
37,48,32,47,36,24,20,25
34,46,32,53,33,23,20,24
29,45,33,54,33,23,22,22
39,55,40,64,37,25,22,25
39,55,42,66,37,28,22,25
39,55,40,65,39,31,22,26
40,58,43,65,39,30,23,27
38,56,45,72,44,30,23,30
29,46,39,64,40,29,22,27
28,47,38,58,38,28,21,29
30,50,43,63,35,29,23,26
29,49,38,62,34,29,23,24
34,50,32,52,25,28,23,25
36,52,34,53,24,30,23,28
37,50,35,55,30,29,22,25
37,48,30,51,30,25,21,24
41,45,30,45,33,29,21,27
36,41,36,54,44,36,20,26
34,42,35,55,46,34,21,22
36,48,35,54,42,36,22,24
32,45,35,53,43,34,20,26
26,48,38,58,42,33,20,22
30,52,39,61,40,28,18,21
29,48,38,62,39,29,18,21
26,41,37,60,40,29,18,21
29,47,36,59,44,34,18,20
34,46,34,60,47,35,17,22
32,43,29,49,39,31,19,22
32,45,31,47,38,30,19,23
32,46,32,50,39,31,18,20
32,41,35,49,33,29,20,21
33,41,39,44,27,28,21,22
39,53,40,48,33,29,20,24
40,54,41,51,34,29,20,24
41,52,40,52,32,24,21,23
40,53,38,53,33,21,21,24
37,53,33,54,41,23,20,25
29,42,30,49,36,24,20,22
29,46,33,49,37,24,22,23
27,45,32,46,40,25,25,24
24,43,32,53,39,25,23,23
26,44,33,49,29,24,25,20
27,43,31,49,31,23,26,20
24,37,27,45,26,22,27,22
26,40,29,46,24,22,23,21
28,44,28,39,24,23,24,22
29,42,31,37,25,22,23,24
29,43,36,37,27,24,23,30
28,48,36,41,33,27,22,28
30,47,38,42,38,28,23,28
29,46,37,44,38,27,22,27
29,48,37,46,38,26,24,28
31,53,35,50,36,27,23,22
31,50,34,51,33,25,21,21
29,49,33,50,25,28,21,22
31,48,32,48,27,28,22,24
33,46,28,47,32,28,20,24
32,35,29,44,37,30,21,23
31,31,31,50,37,30,20,25
32,36,33,50,38,27,24,25
30,37,34,51,39,29,23,23
27,34,35,53,34,28,23,20
25,39,38,56,35,27,24,22
29,42,38,47,34,29,24,22
28,39,36,52,33,28,21,20
29,45,39,58,31,26,22,22
32,49,41,56,32,27,24,21
32,48,36,55,25,26,22,21
30,50,37,63,30,23,22,22
32,50,38,57,30,25,22,25
31,45,35,52,31,26,23,25
34,47,32,54,33,26,20,24
32,47,33,52,35,27,21,23
31,43,30,41,32,25,20,22
30,43,27,46,33,24,24,21
33,43,30,50,34,25,22,21
30,38,32,55,35,26,25,23
30,37,32,58,36,27,24,24
30,37,33,61,41,30,25,24
32,40,37,59,40,30,24,22
28,38,35,56,40,29,25,23
27,37,36,50,36,29,24,22
29,41,35,46,33,27,24,22
30,41,37,46,29,27,24,23
28,40,37,45,32,28,25,24
30,42,36,43,33,28,25,23
36,46,34,38,35,26,24,22
33,44,37,36,38,27,27,22
34,46,36,43,36,25,26,21
34,44,37,44,34,27,23,23
32,43,37,46,32,26,24,21
30,47,39,53,32,26,26,24
31,43,37,55,28,29,23,24
32,45,38,54,31,29,23,23
33,46,36,55,32,29,25,23
35,48,37,57,33,32,23,24
32,42,35,53,32,32,22,21
32,50,36,53,34,29,24,20
32,48,34,56,32,29,25,20
35,50,32,55,32,27,22,20
39,50,32,57,34,24,24,23
39,48,31,57,31,27,23,24
40,47,35,58,35,25,23,27
40,45,35,52,38,25,25,27
38,47,40,60,43,27,25,26
37,48,39,59,44,27,24,27
37,48,38,59,44,26,25,26
37,44,35,59,42,30,25,23
39,48,35,63,40,30,22,23
39,44,29,58,31,27,20,23
39,43,29,56,35,28,22,20
39,42,31,59,36,27,20,21
37,42,33,62,36,27,18,21
38,39,34,61,38,29,21,23
33,37,34,58,37,29,24,24
35,34,33,59,30,28,22,24
33,39,33,57,33,28,24,24
33,38,32,60,37,23,23,22
30,38,29,57,37,22,23,21
33,43,30,57,38,25,21,19
28,43,31,60,42,25,19,22
31,44,35,89,47,27,21,20
31,43,35,92,47,31,23,19
32,43,36,92,45,30,25,21
31,42,36,93,47,29,24,21
30,42,35,93,48,30,24,18
29,37,32,69,42,32,25,23
33,38,29,59,39,33,24,25
35,39,29,59,44,34,22,24
36,41,27,55,42,33,22,26
36,43,28,53,40,32,25,26
36,43,28,57,41,29,21,24
32,43,33,75,49,33,21,23
31,46,43,96,51,34,24,28
38,51,49,107,60,36,24,26
39,50,50,109,59,38,21,26
39,51,51,108,59,38,28,25
43,59,49,99,51,31,28,26
42,58,45,86,50,36,28,22
38,62,44,80,42,37,29,23
38,65,45,80,43,36,31,24
37,65,47,82,46,37,26,26
33,61,49,93,57,40,28,30
60,66,51,96,59,33,29,30
60,56,44,91,58,31,28,29
63,56,49,97,61,33,27,27
66,56,47,98,59,32,26,25
68,53,44,83,50,28,23,22
47,46,39,72,40,26,26,21
46,45,40,70,39,29,26,21
41,40,32,54,30,27,29,21
35,37,30,46,29,27,29,25
29,34,33,56,38,34,31,23
26,29,35,62,45,35,28,23
24,30,35,61,51,32,27,24
24,33,37,66,57,32,27,25
27,36,37,68,59,34,27,23
27,38,33,61,55,27,25,25
28,37,29,55,49,27,24,25
28,42,30,57,44,27,24,25
31,49,33,60,43,32,24,26
32,54,40,66,45,38,25,25
35,55,44,74,49,41,26,23
35,56,44,72,48,41,26,22
35,54,42,69,48,41,24,23
32,45,40,62,42,38,23,20
31,36,37,56,40,31,25,19
31,40,38,48,32,27,25,23
31,42,38,51,37,29,24,23
29,40,39,55,38,30,25,22
29,41,40,60,41,29,24,25
27,40,38,60,35,28,21,26
26,38,34,62,36,33,21,22
26,37,36,61,32,31,20,21
28,37,37,65,35,34,22,29
28,37,35,65,42,38,22,26
32,44,33,61,45,38,23,27
34,44,33,62,48,34,25,29
35,45,34,66,48,36,31,30
34,45,32,57,48,38,32,20
39,46,36,77,48,33,32,24
36,41,38,82,48,36,32,23
33,39,36,78,45,35,32,23
33,38,36,80,50,35,26,24
33,42,41,90,53,32,25,24
29,44,40,77,54,30,26,22
28,44,43,94,62,30,25,21
31,43,44,96,64,32,27,24
28,45,44,94,63,32,28,24
28,45,39,85,59,32,28,24
27,42,41,92,57,33,30,24
27,41,38,77,47,33,30,24
24,41,39,77,42,31,29,20
25,40,40,78,40,29,28,19
26,35,40,77,40,31,27,24
27,36,33,67,34,31,23,24
26,36,35,76,44,33,25,24
25,35,32,77,48,34,25,24
23,38,34,77,50,37,24,24
25,40,37,84,53,39,26,22
27,43,44,90,61,43,29,20
26,47,44,94,60,44,27,23
29,47,45,98,63,46,26,24
29,43,42,96,59,43,28,24
29,41,40,94,57,40,27,23
30,38,37,88,49,34,24,25
30,31,36,75,44,30,23,21
29,32,40,74,42,24,22,26
28,36,42,82,50,29,25,27
29,41,47,87,53,30,24,28
26,42,49,92,60,30,25,27
27,45,48,93,58,28,26,28
26,44,44,86,55,28,27,24
29,41,43,78,51,25,28,25
29,39,42,89,55,25,29,26
28,36,43,91,53,29,28,24
29,39,48,99,65,32,28,24
35,43,52,103,71,33,28,26
32,42,52,109,71,32,25,24
30,43,52,106,74,34,25,23
31,45,47,95,71,31,24,27
31,40,44,93,64,32,23,26
27,39,45,98,62,32,22,24
28,40,45,97,62,33,23,25
28,37,40,83,53,29,22,25
30,35,41,82,49,29,23,22
30,37,36,69,46,27,23,26
29,38,37,75,47,28,23,25
27,39,39,70,44,26,21,26
28,39,38,69,45,28,21,26
26,40,41,71,45,29,23,27
26,37,44,70,42,29,23,25
25,34,37,48,33,28,22,25
25,32,35,58,35,29,22,24
26,32,36,66,43,31,24,23
27,29,37,75,47,34,22,25
25,28,37,79,51,34,24,24
40,33,39,85,55,36,24,25
181,115,43,83,59,42,32,47
192,124,45,85,54,41,32,51
203,133,51,90,58,40,33,51
209,135,51,92,55,40,34,52
220,141,51,93,54,39,34,55
203,127,50,88,51,36,32,49
201,123,48,83,52,37,31,46
191,114,41,75,45,37,30,46
189,115,45,92,47,37,27,46
175,109,44,85,47,38,29,43
81,60,43,84,47,38,23,29
65,58,45,93,49,35,25,30
59,62,47,97,51,33,25,29
45,54,42,77,49,33,25,28
50,52,42,78,48,31,25,27
49,52,42,89,49,28,25,27
45,46,41,83,50,30,25,27
44,40,38,75,49,32,24,27
43,41,37,73,47,34,26,25
32,38,37,73,47,34,26,23
29,37,38,61,47,35,27,24
28,37,37,62,46,35,25,23
27,35,36,61,43,30,26,22
29,37,42,71,47,31,26,23
31,38,46,78,52,36,25,25
30,34,46,82,50,35,25,22
29,36,43,76,44,35,24,22
32,38,47,77,49,39,25,21
28,38,42,75,48,40,23,19
25,43,38,73,43,36,22,18
27,47,36,65,40,34,23,21
28,47,36,68,44,33,24,21
23,45,32,68,43,29,23,20
28,44,32,68,51,28,24,22
30,41,32,66,49,27,26,23
30,36,34,73,51,29,27,21
31,41,37,83,52,29,28,21
31,41,37,81,50,30,28,21
29,42,38,82,47,30,27,20
29,43,45,94,60,33,28,23
31,48,46,101,68,36,26,24
31,44,45,93,70,36,23,25
30,44,45,99,71,37,24,26
32,43,44,93,68,35,23,29
32,40,39,79,55,31,19,25
29,34,40,68,47,25,22,24
30,35,43,84,48,31,23,23
33,36,45,93,56,36,22,23
31,37,46,93,55,35,22,20
28,35,43,97,62,37,24,20
29,37,42,102,65,37,21,22
30,37,38,89,60,34,20,21
32,38,35,70,50,29,22,20
32,43,37,75,51,34,25,25
32,44,37,70,45,33,25,25
33,44,40,65,38,33,32,25
31,46,40,64,34,32,31,24
28,45,40,66,40,33,31,25
31,45,38,68,40,29,32,22
33,44,37,68,42,29,31,21
34,45,34,68,43,29,26,20
34,41,34,83,44,28,27,22
36,42,35,91,47,27,25,21
33,39,34,86,44,25,22,20
32,45,39,89,45,29,24,20
31,45,40,84,44,27,23,22
30,47,38,69,48,27,23,21
27,51,37,55,43,31,26,24
26,49,38,57,47,32,28,26
28,46,34,60,50,37,27,26
27,46,40,81,58,39,29,25
28,47,47,100,61,40,28,25
29,47,47,104,64,38,28,23
32,53,48,104,61,38,26,19
33,54,47,100,59,33,24,20
33,54,41,84,49,31,24,19
31,55,36,58,40,30,25,20
34,49,35,50,32,29,25,23
32,45,33,48,36,31,27,23
32,45,34,44,30,28,28,24
31,43,33,44,31,29,27,24
31,41,31,48,33,29,25,23
27,41,28,48,32,29,24,21
25,39,31,43,28,26,22,20
23,35,30,47,34,28,24,20
27,38,35,64,43,31,25,19
27,38,39,79,48,29,25,19
27,44,44,91,53,30,25,20
27,44,45,97,55,32,25,19
30,42,44,98,55,31,24,20
29,44,39,85,51,33,22,22
29,44,38,78,49,36,24,24
28,39,33,71,46,34,23,22
30,42,36,72,48,37,26,25
30,43,38,81,50,36,30,25
27,42,43,88,54,35,32,27
27,45,40,80,51,32,31,25
32,54,42,83,54,34,31,26
31,53,43,84,54,33,31,24
31,57,47,84,53,36,29,22
32,56,46,80,48,33,29,21
31,55,47,80,53,35,30,20
28,43,48,79,55,38,28,21
27,44,44,76,54,38,28,20
25,40,42,68,54,37,26,20
25,36,38,64,52,37,25,23
34,49,43,89,59,39,26,25
34,50,45,96,59,38,30,25
38,53,46,94,59,38,31,25
37,52,44,99,61,35,28,26
35,54,50,108,66,39,26,23
28,49,46,90,59,37,25,22
32,51,42,75,54,36,22,22
30,47,40,74,52,34,20,22
30,49,40,65,46,34,22,22
35,48,35,48,40,31,23,21
37,43,36,62,43,30,23,21
33,44,38,66,46,28,23,21
37,56,42,69,47,28,22,21
39,54,41,69,49,27,26,23
36,55,40,73,49,29,26,24
38,55,38,59,43,28,25,24
39,51,35,59,40,29,26,24
33,41,35,64,39,29,25,24
32,46,33,60,36,29,21,23
32,62,35,59,37,28,21,23
46,170,103,62,40,32,24,30
52,179,114,60,42,31,23,29
61,221,127,51,40,36,40,42
88,247,153,87,64,51,48,53
91,248,157,88,62,51,49,54
89,205,154,95,63,48,50,52
86,210,155,95,64,49,52,52
82,172,146,95,64,47,43,45
56,144,125,71,46,28,38,32
59,169,145,88,55,34,42,33
61,174,131,78,52,38,39,35
63,185,125,79,52,38,37,34
67,205,141,79,53,36,35,34
68,216,143,86,52,38,30,33
73,250,142,80,51,35,27,33
70,247,131,83,50,32,26,28
75,241,146,91,57,38,31,32
94,277,140,96,61,45,42,37
101,285,162,89,64,49,43,41
94,253,157,77,59,48,42,41
91,245,154,73,57,45,42,41
90,247,142,70,54,43,40,39
66,191,145,61,46,41,33,39
63,218,180,70,42,36,38,37
76,266,212,73,41,39,38,38
76,294,224,77,45,41,38,38
72,297,228,69,40,38,39,38
80,303,227,78,47,35,39,36
96,319,228,94,61,42,38,45
98,298,211,105,68,49,45,50
98,269,198,103,67,49,46,50
99,260,191,104,68,48,44,49
94,250,186,101,68,47,43,47
69,195,154,81,55,42,39,37
58,192,132,68,52,34,35,30
59,214,138,72,53,32,34,30
58,216,144,74,56,38,35,31
59,239,152,72,52,44,34,31
67,240,140,73,54,48,40,37
64,220,153,75,52,46,38,35
70,201,164,72,51,45,39,35
83,244,195,79,51,47,40,47
81,224,186,77,51,43,38,47
81,254,200,86,54,46,34,46
80,241,187,79,50,47,34,48
73,253,176,78,49,47,34,48
59,215,140,70,47,45,29,37
60,215,150,73,53,47,32,39
54,173,142,62,47,44,29,34
55,195,160,63,46,44,27,31
60,200,169,61,45,44,25,30
57,190,169,60,44,44,27,28
55,190,166,64,34,42,25,24
56,198,160,69,37,37,23,27
63,207,156,74,41,39,25,30
59,185,142,74,42,43,29,30
60,185,140,73,43,39,28,30
60,218,155,69,46,38,29,32
62,230,149,60,48,42,30,27
55,228,140,55,44,43,32,25
56,236,139,52,42,37,29,25
58,244,147,54,41,40,28,28
56,210,124,59,45,38,26,28
46,180,114,67,41,36,25,28
57,184,113,79,46,37,29,33
56,172,136,84,50,37,31,35
55,167,134,83,48,33,31,33
57,170,134,76,42,31,30,33
57,157,122,67,38,28,31,34
45,122,134,57,31,24,26,29
47,135,115,56,33,28,24,26
52,163,128,70,43,33,27,28
51,167,132,80,49,39,28,30
52,172,138,80,52,45,27,28
54,171,128,78,54,45,25,30
52,164,125,77,52,43,25,30
46,132,128,83,49,44,23,28
43,127,122,77,46,39,23,27
44,132,125,75,45,38,26,28
40,131,110,76,47,40,25,25
39,139,108,88,55,44,26,26
41,153,85,75,54,42,26,25
42,147,82,71,51,42,26,22
43,148,70,76,54,39,36,21
51,159,101,80,51,38,35,23
52,153,99,67,44,42,36,23
50,147,100,67,43,41,37,25
55,159,118,64,46,49,41,29
57,172,137,59,41,47,31,28
51,164,121,49,38,45,31,27
50,167,122,49,43,40,30,28
52,177,116,56,48,42,29,27
47,188,109,69,54,35,24,24
42,171,97,74,58,36,25,25
40,169,95,75,63,44,32,24
40,173,100,72,60,42,31,23
39,153,99,62,54,40,31,26
41,141,91,56,47,37,35,26
41,146,78,50,44,42,56,28
43,142,73,49,37,35,55,29
41,127,74,50,36,34,56,28
43,140,90,53,39,40,57,25
40,127,88,47,38,41,55,23
42,124,93,46,39,36,34,21
43,141,101,55,42,35,32,22
42,139,96,56,42,37,30,22
38,133,87,60,42,31,29,22
39,139,97,58,41,33,29,25
38,131,96,59,38,32,29,25
33,119,99,53,37,35,27,23
33,120,96,50,36,33,31,27
41,126,110,52,37,37,32,27
40,115,99,52,37,34,31,26
39,132,96,54,39,40,34,26
46,121,84,55,40,38,33,28
46,121,85,57,39,37,32,27
39,115,60,54,41,37,28,26
42,122,59,56,41,39,27,27
41,102,58,53,40,39,25,27
33,97,58,47,37,41,26,28
40,107,68,49,39,42,23,30
41,104,72,44,37,40,25,30
53,129,103,47,42,45,29,37
53,128,103,54,55,45,33,36
56,132,106,67,61,46,37,34
51,131,102,68,61,45,39,32
51,128,102,70,61,43,39,31
37,100,79,70,60,37,35,25
37,102,80,65,50,30,31,25
33,108,81,57,44,33,27,26
36,100,76,59,42,34,24,25
34,94,70,61,39,36,23,27
33,86,65,54,34,35,23,24
32,94,61,59,37,36,21,24
33,86,53,63,44,32,21,24
46,90,66,58,48,34,23,24
48,92,70,60,51,37,24,25
50,101,72,70,54,37,23,25
52,102,71,68,52,34,24,26
51,98,78,61,46,35,23,25
41,99,80,63,43,35,22,23
39,97,82,60,40,38,23,20
36,89,84,56,40,38,24,21
37,78,84,56,41,40,24,22
39,102,102,70,45,41,28,27
37,95,92,73,44,42,28,28
38,98,88,72,49,43,28,29
39,98,82,66,46,46,26,27
38,112,86,69,49,46,28,27
39,115,61,61,49,46,26,22
37,111,62,63,54,45,25,22
36,113,59,61,52,39,27,23
37,119,67,65,52,37,29,25
35,107,63,73,49,36,28,24
38,93,57,71,47,31,27,24
38,100,65,68,43,34,27,26
38,99,68,65,42,32,26,27
36,98,62,61,42,32,24,25
39,95,66,56,48,37,24,25
31,81,63,53,45,42,23,25
37,99,65,53,46,39,25,24
36,104,62,58,44,42,24,25
38,119,74,59,43,43,27,24
38,126,101,77,51,51,31,24
43,133,109,79,53,52,32,27
36,118,104,76,50,52,31,27
39,116,105,80,53,52,32,25
38,100,99,86,56,52,31,25
37,100,75,75,43,42,27,25
35,93,69,73,41,38,28,24
37,102,72,75,44,38,27,25
35,99,73,89,43,37,27,25
36,104,77,88,42,37,26,27
35,101,91,86,40,35,26,28
33,100,86,90,40,34,24,25
32,102,85,89,41,40,30,24
30,102,85,72,38,38,30,24
30,87,77,64,37,41,31,22
31,91,61,56,35,41,31,21
29,129,87,58,39,47,31,21
30,123,89,65,38,47,28,21
30,123,86,62,39,46,28,19
30,128,88,70,44,45,24,18
39,127,85,75,49,45,25,19
40,89,62,67,48,40,28,21
38,85,62,58,47,36,27,21
43,93,66,58,50,40,25,23
43,89,65,47,45,41,27,25
37,82,71,42,43,45,27,26
42,83,72,44,42,49,26,25
45,87,69,46,41,47,24,26
44,82,68,45,34,42,25,27
44,85,65,59,39,42,28,25
44,91,65,63,40,41,26,23
39,89,59,62,39,35,24,24
37,80,58,68,42,36,26,25
35,91,58,77,46,38,27,22
33,91,62,70,46,40,25,22
31,83,52,66,48,37,26,24
33,87,65,69,50,37,28,22
34,96,67,65,47,36,26,25
32,88,66,62,49,40,25,27
34,91,73,61,48,36,26,27
36,90,71,56,42,36,26,27
36,96,67,54,45,37,25,28
39,116,70,61,50,40,26,26
39,111,85,56,47,40,26,26
40,104,78,62,51,47,27,25
40,120,82,68,52,46,27,25
38,113,81,70,51,47,27,27
36,90,81,60,46,43,29,26
35,86,69,62,45,37,29,26
36,92,71,58,44,31,25,26
34,77,79,74,48,34,26,27
37,86,77,78,46,30,24,25
38,96,74,79,48,37,23,24
39,99,70,75,47,39,22,22
38,100,71,86,49,39,24,22
38,99,61,78,49,39,23,24
37,100,65,78,53,43,23,25
36,98,66,79,53,40,24,25
39,126,73,83,55,37,24,27
39,125,78,77,50,38,26,27
41,123,77,67,46,35,26,23
42,123,74,64,43,37,25,29
40,117,85,67,42,35,25,27
39,82,79,65,43,40,25,27
38,80,73,57,40,40,22,35
38,83,77,57,40,40,22,36
34,71,72,60,44,34,23,32
38,86,71,61,47,38,23,33
38,94,76,70,50,37,23,34
37,94,73,74,53,35,22,28
37,90,69,75,52,35,23,27
38,99,72,73,48,34,26,27
35,89,64,71,47,50,26,27
35,80,62,61,40,48,24,22
35,79,63,54,34,49,26,21
36,94,73,54,37,50,25,26
37,87,71,55,35,50,22,24
36,85,83,53,36,31,23,25
33,87,81,51,38,35,26,26
37,90,81,52,39,35,25,25
37,78,73,56,41,36,25,23
37,88,77,55,41,37,24,23
40,89,61,58,44,37,24,24
40,92,64,59,45,38,23,24
37,106,67,60,43,36,24,22
34,105,64,54,40,33,25,22
38,95,63,66,45,37,28,25
38,98,63,68,40,36,28,24
38,93,56,66,38,32,27,26
37,75,54,70,43,36,27,26
40,75,53,73,42,41,26,24
36,82,55,66,40,37,26,27
35,73,50,67,41,40,24,26
37,73,49,70,38,39,25,24
40,88,56,66,37,36,26,25
40,93,61,62,35,34,25,27
40,91,55,54,33,34,22,22
40,114,67,47,38,33,23,24
39,117,71,42,39,31,22,25
34,105,66,45,37,29,21,25
35,105,65,58,43,30,24,24
38,104,85,65,47,30,24,26
37,97,80,65,44,30,26,24
37,91,77,65,45,32,26,24
39,91,80,66,47,34,27,23
40,93,86,63,46,33,26,23
35,108,67,56,40,32,26,21
35,91,64,68,45,35,25,20
35,110,68,69,48,39,28,20
36,112,61,66,46,38,25,20
31,103,57,77,48,38,26,20
34,92,66,91,58,43,25,20
34,100,64,83,51,40,24,21
33,82,73,82,48,40,26,21
33,94,81,88,50,41,27,23
35,96,81,74,46,43,28,24
34,91,87,59,36,40,28,24
40,100,99,70,40,45,32,26
39,99,92,72,39,41,27,25
38,96,87,65,40,45,26,23
40,105,99,63,41,40,23,25
38,104,89,65,39,37,25,25
35,96,85,56,40,33,20,23
35,99,88,55,44,36,22,26
34,95,90,57,42,30,22,26
31,92,76,66,41,32,25,24
35,95,89,66,45,39,23,24
38,94,81,63,42,39,24,26
41,99,77,58,37,35,23,24
39,92,75,59,37,35,24,23
39,102,86,49,35,37,23,23
40,111,76,49,30,32,23,23
37,111,77,50,33,33,23,22
36,107,73,58,33,33,23,21
36,131,84,55,34,35,24,23
37,140,71,55,34,36,22,24
34,130,69,54,35,35,22,25
34,123,70,62,33,35,21,24
35,129,73,58,32,36,20,25
35,110,70,61,32,35,19,27
36,88,75,63,35,35,19,24
36,94,73,67,39,33,21,23
36,98,72,66,43,31,25,28
38,97,72,63,42,30,25,29
37,96,65,62,42,32,26,26
38,94,63,66,43,33,28,27
38,93,67,58,37,35,26,27
36,96,68,49,35,36,24,22
34,102,70,51,36,39,25,23
39,109,71,54,38,38,28,23
37,111,65,52,35,37,26,25
37,113,73,52,35,37,28,25
39,113,79,53,35,36,28,26
38,125,82,62,39,38,28,24
35,115,84,65,45,40,27,25
34,110,84,59,43,42,28,23
39,117,75,61,46,42,27,23
37,113,67,60,42,42,26,24
41,109,66,70,43,42,26,26
38,110,59,77,46,42,22,25
40,110,57,79,52,42,23,25
35,106,54,81,52,42,22,24
38,112,53,81,55,43,24,23
34,98,65,70,54,41,25,19
35,108,63,61,46,39,30,18
37,115,65,59,40,36,30,21
37,111,68,58,39,35,30,22
35,110,75,61,39,32,29,23
38,102,64,58,43,32,29,26
42,95,65,54,44,34,25,27
40,83,68,54,44,33,24,25
40,76,65,51,44,34,24,24
39,73,64,48,41,41,24,23
41,95,89,51,45,40,32,22
36,93,90,61,46,38,32,23
36,97,90,66,48,47,32,24
38,100,97,69,53,49,32,27
37,102,98,84,56,54,33,27
34,85,78,93,56,54,28,26
33,91,85,91,55,55,29,25
33,87,82,91,58,51,29,25
37,96,85,96,58,51,29,23
40,100,89,86,59,42,29,24
40,111,93,90,58,43,27,25
42,110,91,94,64,44,28,25
45,108,91,95,66,42,30,22
39,97,83,95,69,41,30,22
41,91,82,110,77,46,33,25
42,83,75,101,78,51,34,28
41,74,68,93,75,51,33,29
39,82,69,89,76,56,34,30
44,102,74,88,75,74,34,31
62,117,68,86,80,75,35,29
63,113,66,88,82,74,34,25
70,135,100,103,87,78,35,25
69,143,104,109,89,81,33,25
67,130,100,104,84,68,34,26
53,116,100,112,88,66,33,23
54,120,115,119,87,76,35,26
49,105,93,123,89,72,35,28
49,90,91,137,90,69,36,27
50,94,99,146,101,80,36,27
46,94,102,161,111,92,36,27
44,98,85,164,115,96,34,26
50,104,81,154,113,108,34,24
51,111,85,136,109,108,32,24
49,112,89,127,100,99,30,23
50,115,87,83,75,90,27,24
51,117,93,63,66,88,29,25
45,110,101,75,76,84,28,27
44,103,97,82,74,82,29,27
56,112,89,98,80,89,32,30
55,107,88,124,94,103,37,29
55,102,100,133,98,101,38,32
51,100,92,129,88,94,38,32
54,102,101,154,114,102,39,32
44,91,97,151,117,97,38,30
43,94,97,136,111,90,33,29
45,118,82,137,116,88,32,25
49,118,84,138,120,91,32,23
46,117,86,118,107,103,31,27
46,121,82,113,106,108,33,27
49,126,91,114,102,99,35,29
42,97,93,126,101,113,33,28
41,95,93,130,97,111,33,29
45,109,93,119,87,95,32,28
51,104,107,148,95,104,35,29
51,103,103,155,100,107,34,29
55,123,103,145,93,92,33,27
53,120,102,141,98,99,34,26
49,108,89,148,99,100,34,25
57,110,82,116,82,82,26,26
55,116,80,104,75,83,29,27
58,114,84,103,78,81,31,30
61,122,85,100,72,66,32,29
60,123,92,88,67,70,34,29
47,122,86,105,86,80,36,28
51,124,87,115,95,78,34,26
43,110,82,105,89,78,32,25
48,119,90,154,121,109,40,29
49,117,92,161,123,106,39,30
48,114,95,154,114,105,39,29
46,106,92,158,109,106,41,31
48,109,105,189,127,112,41,29
46,93,97,154,102,92,33,26
47,117,99,159,107,93,35,28
49,119,96,162,107,101,36,29
48,122,92,147,105,100,33,27
51,120,70,109,90,105,34,29
50,119,82,124,99,104,37,30
52,92,70,112,93,102,34,27
49,84,69,104,91,90,32,25
50,78,78,107,93,98,32,27
47,78,87,116,93,87,32,27
47,105,99,122,96,82,28,27
43,107,101,136,110,85,30,26
44,112,108,144,115,88,33,30
41,134,106,147,114,81,36,29
41,135,102,143,117,81,37,30
41,134,101,155,117,90,41,30
39,131,100,150,112,89,43,30
41,135,98,144,106,82,41,28
40,109,93,138,101,78,38,26
40,112,88,126,89,73,63,27
35,96,58,82,66,58,59,24
43,98,62,71,50,73,61,25
44,107,67,74,50,78,61,24
45,113,71,81,59,82,62,28
47,107,71,85,67,94,36,25
50,102,76,92,77,96,38,27
48,115,78,86,78,85,32,28
48,112,88,80,78,86,31,31
48,112,87,71,72,80,31,28
48,112,88,70,68,70,30,30
49,125,88,72,71,72,28,28
50,114,95,88,72,73,30,26
49,108,86,90,73,66,32,22
51,114,88,92,73,65,30,22
51,118,91,94,78,61,29,18
46,110,89,87,78,64,29,20
43,116,77,70,77,69,30,20
39,117,67,70,74,67,30,20
34,112,70,68,75,68,30,20
34,109,67,70,76,74,32,23
35,111,79,69,64,69,32,21
38,106,78,66,64,59,31,23
43,105,76,66,65,62,26,26
48,103,80,70,66,63,27,25
47,101,80,70,63,60,26,25
46,89,74,101,77,63,29,25
44,89,76,121,84,62,28,25
43,107,90,130,89,63,32,23
38,104,77,126,88,61,34,22
44,110,82,129,89,62,35,21
41,111,81,109,79,53,33,23
42,114,80,87,67,56,33,27
41,93,64,71,58,52,31,27
47,93,85,92,66,58,32,31
44,88,77,84,64,51,31,30
48,109,74,76,60,55,31,31
47,113,72,75,62,52,31,26
44,112,79,91,73,60,34,28
42,117,71,75,67,57,30,25
39,120,74,76,67,58,28,25
40,109,76,80,70,56,26,26
41,99,75,79,69,57,25,26
42,98,67,57,59,47,23,24
40,117,72,66,57,54,27,26
41,116,80,67,62,59,29,28
45,117,82,70,61,54,28,26
42,117,84,72,60,54,30,26
45,130,87,76,64,61,30,26
43,110,75,76,74,62,30,25
46,107,70,84,73,76,35,24
41,111,68,85,73,77,35,23
43,112,70,89,72,77,34,22
40,109,81,100,83,81,36,25
40,111,79,101,79,79,35,24
37,119,74,89,73,60,28,21
38,130,71,85,74,59,28,24
42,135,72,90,77,63,31,26
48,132,60,83,66,60,27,24
48,134,66,77,64,57,26,25
46,133,69,80,67,60,26,28
47,119,78,86,67,61,27,27
45,114,79,82,67,57,23,26
39,124,80,83,67,50,25,27
38,120,75,79,62,49,23,26
41,136,86,83,61,47,27,23
42,131,82,77,58,45,27,24
39,130,77,72,56,48,28,23
39,137,85,68,53,51,28,22
41,147,89,70,53,53,31,23
41,135,84,69,56,55,28,25
41,141,83,79,56,57,27,25
42,141,86,84,59,66,29,26
43,120,76,79,56,63,28,26
46,121,82,78,57,64,26,26
48,118,84,78,52,61,25,25
48,117,91,67,50,60,28,24
49,127,93,95,68,58,26,26
47,128,95,103,76,63,29,25
43,120,99,108,77,61,29,24
41,125,88,109,78,62,29,23
37,117,79,118,84,67,28,25
41,105,79,95,67,57,26,24
43,146,98,90,61,55,26,24
43,146,85,82,58,56,25,22
41,142,97,87,61,55,28,24
44,147,96,73,55,48,27,22
44,149,93,71,54,50,28,22
44,117,75,67,49,45,25,22
48,119,79,84,59,51,28,24
48,119,68,83,57,52,26,26
45,116,65,85,59,53,27,26
46,131,70,82,59,54,29,25
46,122,63,86,67,60,31,26
41,116,60,73,63,54,28,24
39,108,58,65,61,54,28,23
44,108,59,61,54,51,30,23
38,86,57,62,57,52,28,25
39,90,63,53,51,46,26,25
41,90,59,49,46,44,28,26
42,91,59,49,47,41,28,24
40,94,66,65,54,39,26,25
45,114,70,68,57,41,27,26
46,112,64,68,53,43,26,27
43,107,65,75,60,45,25,26
47,118,79,79,64,52,25,28
45,114,76,78,60,55,26,27
42,99,67,77,54,48,25,26
42,106,70,79,57,51,25,24
43,120,72,79,50,50,24,25
47,116,57,77,42,45,27,26
48,116,56,69,38,44,26,29
48,112,61,65,35,48,24,28
47,111,68,62,32,47,26,28
47,96,62,54,30,45,26,27
39,100,69,57,42,45,26,24
43,123,78,56,53,54,27,21
47,131,75,56,56,49,28,23
47,126,69,59,54,45,28,25
48,138,75,76,61,53,32,25
47,130,73,76,59,59,33,24
48,124,70,72,53,54,32,25
52,137,68,73,52,55,33,26
51,141,68,76,61,59,31,25
55,137,63,64,60,57,28,27
56,133,60,63,55,52,23,27
52,134,65,67,57,50,24,27
43,113,68,69,57,49,22,27
47,114,70,72,51,48,22,28
49,119,77,69,44,48,25,29
47,124,101,72,48,47,27,29
48,113,93,76,43,46,27,28
52,114,93,82,47,46,28,28
49,113,98,77,55,45,30,26
45,110,97,85,61,44,29,25
47,109,71,82,62,47,30,23
50,103,70,75,62,45,28,23
46,101,72,70,63,49,28,21
45,110,67,70,55,55,28,22
42,112,65,59,48,52,27,23
41,123,64,53,44,50,25,23
38,126,75,53,44,53,28,25
41,128,74,53,41,58,28,25
45,126,77,53,44,51,25,25
44,117,80,57,45,50,25,24
42,105,81,56,52,50,27,23
42,106,81,64,56,55,28,22
40,98,90,71,56,48,28,22
37,90,90,72,57,50,28,26
40,97,88,72,55,49,28,25
41,108,94,76,55,61,27,25
44,110,94,75,62,60,23,30
43,128,88,79,61,58,23,31
41,123,84,78,62,58,22,29
41,120,84,77,64,60,24,30
43,114,78,81,69,62,27,32
39,104,76,81,62,57,27,27
42,93,85,74,62,57,28,28
43,93,84,71,59,55,29,26
40,87,81,72,60,53,28,26
40,74,80,63,50,37,24,25
39,81,78,66,48,36,24,27
38,92,79,66,46,37,25,26
36,92,77,66,43,37,26,27
39,93,81,68,45,42,27,29
40,108,80,78,49,43,27,27
42,106,82,84,52,45,28,25
41,101,85,83,53,44,27,24
43,104,85,83,54,47,26,24
42,107,82,81,48,44,24,22
39,92,87,77,46,42,30,22
37,97,86,62,41,40,29,19
36,108,74,64,43,42,28,24
34,107,73,67,43,43,30,22
34,108,81,65,48,45,31,23
40,113,82,64,47,46,25,25
39,115,79,64,48,51,27,29
39,117,73,53,44,47,27,27
43,119,83,52,50,48,28,27
46,130,81,55,55,49,28,27
48,130,78,49,58,51,28,27
48,124,80,53,58,46,27,25
49,108,80,55,58,47,30,23
46,103,73,86,73,49,30,26
44,96,72,92,71,48,30,25
35,107,90,92,67,46,31,26
35,112,87,90,66,49,32,26
34,107,89,92,68,50,30,26
31,110,91,64,50,43,27,24
32,95,88,56,48,43,27,23
34,84,70,57,50,45,27,23
35,79,71,54,48,51,26,22
41,92,80,52,50,55,26,22
52,103,87,55,50,55,26,25
51,102,85,57,47,58,26,28
51,97,81,64,47,54,26,28
55,100,97,73,55,51,30,29
53,91,89,81,59,46,29,28
46,104,81,87,67,52,31,29
46,107,83,84,67,53,30,26
48,109,83,79,68,51,30,26
45,118,88,80,65,48,29,29
45,114,84,70,63,52,29,29
46,120,87,77,59,49,29,26
47,125,88,84,62,43,28,26
50,136,93,96,62,49,28,27
47,127,73,97,63,57,24,24
48,142,106,118,64,57,29,25
45,127,101,107,57,55,26,24
47,135,101,102,53,62,28,26
44,127,102,93,52,58,27,27
49,135,102,91,47,49,29,27
49,131,77,70,48,45,25,26
49,133,77,72,49,53,26,27
46,119,74,68,51,50,25,25
44,116,70,72,52,53,25,25
43,106,83,77,58,56,25,23
38,91,79,81,59,57,26,22
43,86,81,81,60,51,27,26
45,95,89,89,57,52,25,26
43,92,91,86,59,51,27,24
51,108,105,87,59,56,26,26
52,145,117,78,56,53,25,28
51,137,120,76,55,51,26,24
51,141,117,67,54,45,28,26
52,140,113,62,50,44,27,26
47,131,86,57,41,42,27,26
47,98,63,60,39,43,29,23
42,104,69,63,41,45,27,22
43,100,78,71,48,53,28,22
45,102,82,75,50,52,27,22
45,105,82,71,49,47,28,21
44,106,92,72,49,46,27,23
44,103,83,71,51,44,26,23
46,116,70,61,48,37,23,20
44,116,71,58,47,36,27,20
41,121,69,59,52,40,27,21
43,118,70,67,58,41,26,19
48,114,79,68,63,43,29,19
44,92,82,76,62,41,29,23
44,90,85,82,62,47,29,25
50,93,85,80,59,42,26,27
50,97,80,66,55,42,27,27
44,96,68,61,46,39,24,28
47,108,63,56,51,45,25,26
47,108,63,49,51,39,21,24
43,99,77,49,54,44,25,26
41,92,74,49,50,49,25,27
46,111,99,59,53,51,25,27
43,102,106,59,50,46,26,26
48,103,103,62,51,46,26,27
47,123,110,68,54,48,28,26
48,122,108,70,61,41,27,24
50,105,89,73,65,46,27,25
51,104,93,73,66,56,28,28
50,102,90,69,66,56,28,29
54,98,72,67,67,55,25,27
54,107,80,68,66,56,26,29
50,135,79,63,58,60,29,29
50,137,69,68,55,51,26,28
49,146,76,76,62,52,27,27
41,127,75,75,62,52,25,26
41,126,68,71,62,57,26,26
37,97,72,67,60,48,23,25
39,99,78,66,61,52,26,24
37,92,73,62,54,56,26,23
39,104,69,58,49,53,25,23
38,108,70,60,45,44,25,22
42,108,71,87,63,48,25,23
38,106,62,96,69,52,27,23
40,99,65,91,70,51,27,23
44,108,92,93,70,54,28,24
42,95,89,93,69,54,27,23
46,93,85,71,56,52,28,24
47,102,84,53,48,54,23,24
47,113,84,57,45,50,23,23
45,95,61,61,52,50,25,24
49,108,82,64,53,57,28,27
44,108,78,61,55,56,27,24
48,101,81,62,55,48,29,23
46,97,83,66,59,48,29,23
42,90,81,60,52,47,27,24
44,82,67,57,54,46,26,22
47,94,72,69,64,50,26,23
44,100,75,73,66,49,25,23
43,104,77,68,64,55,25,24
46,117,76,69,65,56,25,25
41,115,78,71,69,50,24,25
37,111,74,65,56,46,24,27
38,123,78,64,53,49,27,28
42,115,77,65,54,48,26,26
41,105,78,67,53,48,26,24
40,108,79,69,47,49,27,24
38,104,78,63,46,48,27,22
36,80,93,73,59,52,27,22
38,88,91,77,60,49,26,24
43,98,90,76,61,56,27,24
45,91,85,73,60,57,25,24
46,96,87,70,60,58,23,23
51,107,70,63,45,52,20,27
49,108,70,59,44,50,20,26
43,121,76,60,41,42,20,25
45,121,81,60,40,39,20,25
45,120,88,67,43,41,26,26
45,113,89,58,42,39,26,25
46,112,91,76,47,42,29,25
49,94,95,78,50,48,27,27
46,96,91,77,52,47,28,26
47,97,88,72,54,46,26,26
44,97,87,75,58,48,27,25
43,93,86,74,63,54,27,25
41,102,75,69,60,45,28,25
40,109,83,71,62,45,29,23
40,105,77,77,65,44,27,23
39,109,73,80,67,43,25,23
36,111,65,66,59,31,25,22
40,100,72,81,60,43,26,23
43,103,76,82,60,44,25,25
42,99,78,79,54,45,24,24
42,91,77,81,56,46,26,24
43,100,87,96,56,48,24,23
42,112,80,86,55,39,24,21
38,116,74,90,55,41,25,21
41,115,79,91,52,40,27,24
41,121,83,93,49,52,28,22
53,144,85,80,46,51,28,23
50,130,83,76,45,51,29,25
52,133,92,75,46,54,30,25
52,138,84,75,47,51,29,24
52,139,78,66,40,40,28,25
42,105,68,62,41,42,27,24
45,123,79,69,41,44,25,24
40,113,68,65,37,43,23,23
43,118,70,70,39,46,25,25
43,113,71,73,44,44,25,26
42,113,70,70,47,40,24,25
45,127,75,73,50,46,24,27
47,125,71,69,52,51,25,27
43,121,70,60,51,50,21,24
44,122,70,60,55,54,19,25
43,128,73,64,58,58,21,24
40,104,73,63,56,62,22,23
42,107,73,70,55,58,22,24
43,104,76,70,56,60,24,25
42,112,75,69,50,56,24,23
43,109,77,68,46,58,24,25
43,126,67,62,45,48,23,24
45,135,75,61,45,46,24,23
47,135,73,63,43,42,25,24
46,127,73,68,43,52,26,27
45,125,67,72,46,50,27,29
47,117,67,70,46,47,26,31
43,106,58,76,45,45,23,31
41,110,59,76,50,57,23,31
42,117,54,69,48,51,22,28
46,122,61,67,49,52,22,26
42,111,63,74,52,53,22,24
41,105,62,62,53,53,24,24
41,105,62,59,50,43,25,24
41,96,72,64,53,41,25,23
38,88,70,63,51,41,27,22
40,81,64,64,52,48,29,23
43,90,75,66,54,48,29,24
41,87,75,66,53,44,27,23
43,94,72,67,54,45,30,25
42,104,73,70,61,45,26,26
41,116,81,69,67,43,27,25
39,111,72,68,66,43,26,25
41,116,76,81,67,43,26,24
37,115,76,83,66,42,23,23
38,105,75,77,57,40,25,22
37,109,71,74,43,34,21,22
36,106,76,74,42,36,21,21
35,98,69,59,40,40,22,20
35,94,63,60,38,40,24,21
38,109,69,68,41,39,26,21
44,94,69,68,44,40,28,23
43,93,79,69,43,39,29,21
45,125,86,70,44,41,29,24
46,123,90,65,43,40,26,23
43,111,86,61,48,43,24,24
37,113,90,69,66,57,25,24
39,120,82,69,65,57,25,24
38,94,79,66,65,54,24,23
40,108,77,66,64,55,25,23
37,108,75,61,58,56,26,24
41,117,63,50,32,40,23,22
41,123,55,47,36,41,23,25
47,134,60,47,33,40,25,27
45,125,57,46,48,54,25,25
44,124,62,43,50,54,23,26
52,127,65,47,54,55,23,31
51,120,68,65,52,53,24,28
53,106,62,66,57,56,22,28
53,112,67,68,46,56,24,29
54,109,63,70,50,53,24,29
46,93,83,76,48,52,26,25
47,87,82,71,51,55,25,27
43,105,84,76,54,59,27,26
43,96,85,82,58,51,29,25
42,97,84,81,53,50,29,25
41,100,61,73,53,59,28,24
42,101,59,65,51,57,31,22
44,80,60,62,46,52,29,24
44,83,54,50,41,46,25,24
48,94,63,52,44,48,25,24
51,95,69,51,41,37,24,24
51,105,70,57,44,37,21,25
47,111,69,59,45,34,22,24
46,115,66,57,42,42,24,26
50,114,70,58,43,45,28,29
44,115,64,62,45,48,29,28
43,111,62,60,42,54,30,28
45,115,60,56,39,54,31,28
50,111,72,60,44,51,29,25
44,102,62,72,51,58,27,22
46,113,71,80,52,57,25,23
49,115,74,78,55,51,24,25
56,111,80,88,62,54,25,28
52,113,77,88,64,62,25,28
51,114,76,77,59,53,23,27
55,105,76,67,64,55,25,30
50,98,75,68,65,58,26,28
39,97,75,62,59,59,26,27
47,109,79,63,60,52,25,27
50,119,78,60,58,50,26,26
47,112,73,56,53,53,26,25
48,116,78,75,59,56,26,25
47,114,76,81,63,51,28,22
41,113,85,80,56,49,29,22
40,108,84,81,55,58,28,21
36,115,85,84,54,53,27,22
36,111,83,68,41,49,26,21
37,111,77,58,37,50,25,22
37,102,62,54,45,50,25,25
35,111,65,57,50,45,24,25
41,104,62,66,54,43,25,26
42,100,58,63,53,42,24,27
46,97,62,63,56,41,21,26
47,94,62,78,57,48,26,25
49,88,67,78,54,43,26,28
43,92,70,69,49,42,25,25
47,105,80,70,51,43,25,28
46,114,76,72,50,46,26,30
47,116,83,72,57,47,24,28
43,121,82,70,55,49,26,25
45,120,83,68,54,48,28,26
43,136,82,71,59,47,28,24
39,131,85,71,58,46,29,23
38,133,85,57,45,38,29,21
42,131,82,58,44,35,26,23
42,130,77,58,46,34,25,22
40,109,75,57,38,41,24,22
43,119,78,71,34,38,22,22
46,134,87,78,37,41,24,27
51,143,96,79,43,44,25,27
55,150,100,80,46,46,28,30
55,143,93,85,51,46,28,29
61,140,95,76,61,49,30,32
56,120,88,64,61,46,27,29
51,100,81,63,60,43,26,29
45,87,78,79,59,46,23,28
46,100,89,76,56,40,23,27
37,93,84,72,46,41,21,23
39,106,74,73,45,39,22,24
43,143,81,84,45,42,21,23
44,146,80,69,42,38,24,24
43,146,78,72,57,46,26,25
43,142,76,70,62,45,27,25
49,139,80,72,65,50,26,24
47,108,73,64,65,47,28,24
47,108,77,63,66,48,27,23
47,113,68,58,57,41,24,22
47,129,66,61,55,44,23,23
42,131,74,66,52,47,26,24
41,129,73,63,51,48,26,26
46,138,77,65,54,52,29,26
43,132,78,65,56,57,31,26
48,137,92,68,59,56,30,25
48,135,82,65,56,51,26,25
49,139,89,80,60,58,25,22
48,145,85,91,64,64,25,25
49,140,83,90,62,62,25,26
45,120,75,87,56,59,25,25
42,116,73,84,56,58,26,24
48,144,85,77,54,53,28,25
47,132,88,65,47,44,27,21
47,142,90,65,48,42,26,22
45,141,86,62,45,43,26,21
50,150,99,67,48,48,27,24
44,116,84,57,47,45,23,24
43,116,82,63,48,44,23,25
42,104,83,66,44,43,24,26
45,105,86,69,50,45,23,27
40,100,79,70,54,43,22,25
49,111,70,70,52,43,24,27
51,122,97,85,58,44,23,26
51,123,97,86,61,44,23,24
51,126,95,84,60,49,26,22
52,128,92,81,55,53,26,21
41,121,96,83,55,53,26,17
42,106,77,60,46,50,24,20
41,111,75,54,40,53,24,24
40,114,75,63,46,47,23,24
42,118,75,68,45,40,22,24
44,121,70,66,46,38,21,24
39,120,64,66,50,46,25,23
39,117,68,66,51,49,27,21
38,108,66,56,44,47,26,23
39,100,63,50,45,53,30,24
35,94,68,49,47,57,30,23
36,109,66,51,44,54,27,22
44,108,61,49,45,46,24,24
45,114,62,52,47,47,25,23
45,105,63,46,46,41,23,26
49,103,60,48,45,37,23,27
48,90,52,45,52,43,23,27
43,104,64,49,54,48,26,24
41,97,70,62,50,49,26,24
39,106,76,72,52,49,24,23
39,117,95,75,55,50,25,21
39,118,99,82,50,48,26,22
36,111,91,84,51,45,25,24
44,124,89,76,51,43,24,23
45,119,86,73,52,43,25,23
45,106,68,66,49,56,26,25
48,111,66,58,49,53,25,25
49,103,71,58,48,55,22,25
42,88,73,58,47,57,34,26
42,105,71,57,43,57,35,28
44,116,83,57,44,49,35,27
40,118,84,57,39,47,34,28
41,121,83,55,42,45,35,27
47,125,81,61,47,43,25,29
48,122,80,61,55,52,29,25
47,117,65,63,54,47,27,27
58,109,65,61,56,48,29,27
57,105,65,64,60,51,30,28
55,98,71,59,59,54,29,27
54,97,74,57,54,46,28,28
55,93,73,57,52,42,33,27
41,107,82,58,52,46,33,25
40,109,80,62,45,46,34,24
39,117,80,59,44,46,35,24
36,121,81,58,43,45,31,23
35,129,80,56,45,53,27,24
37,113,66,54,45,50,29,24
45,135,81,45,46,46,27,28
44,129,74,45,46,45,25,26
49,115,68,51,45,53,30,27
49,103,71,65,50,47,28,26
53,112,77,68,52,47,27,28
49,90,65,66,49,49,26,27
51,87,65,69,47,48,29,27
47,85,68,66,45,42,28,27
52,121,70,52,44,47,31,27
60,119,71,52,45,46,35,25
59,125,73,57,48,48,37,24
58,130,75,62,49,48,35,23
57,128,73,62,54,50,34,24
56,107,69,64,50,45,31,23
42,104,69,64,51,49,28,23
41,104,88,101,67,52,27,24
39,104,84,98,69,54,28,23
40,108,90,96,66,49,28,23
39,113,95,96,68,52,29,23
40,121,97,98,67,49,28,22
41,111,75,59,48,48,29,24
41,114,77,63,53,51,29,24
41,114,73,64,56,50,30,23
40,114,72,77,57,50,31,25
37,102,66,78,54,49,30,24
48,107,69,76,54,44,29,23
49,111,74,72,48,41,32,24
48,122,72,74,50,44,30,23
50,126,88,60,48,40,30,23
51,127,85,61,50,41,31,24
38,126,82,63,51,48,32,22
41,119,77,62,50,45,30,22
43,112,82,60,45,46,29,25
39,93,62,60,41,47,27,25
38,93,69,58,46,50,26,25
44,101,72,54,50,46,27,26
40,98,70,53,49,46,25,25
40,95,67,53,52,45,29,25
43,113,81,55,52,47,30,25
45,116,75,52,46,44,29,25
41,107,74,51,39,41,28,24
42,104,74,54,39,44,26,24
44,109,83,53,36,39,24,24
41,96,71,55,43,41,23,23
38,92,76,61,45,40,23,22
40,96,74,60,47,39,24,24
46,106,81,57,47,34,26,26
42,116,83,56,49,43,25,22
45,107,79,49,42,38,26,24
49,129,107,53,42,41,26,23
48,127,108,55,40,43,24,22
44,123,103,59,41,46,24,21
46,118,102,63,40,39,24,22
56,138,119,70,45,40,22,24
56,127,94,69,46,40,24,26
55,131,98,74,51,45,25,26
57,130,98,71,51,42,24,25
55,122,87,68,49,41,26,25
44,105,64,69,51,45,26,22
41,93,66,61,52,47,28,21
46,93,62,52,46,39,25,23
45,96,63,55,49,41,27,23
46,98,64,56,48,42,25,23
46,94,68,48,45,45,26,24
45,97,62,52,45,39,22,22
41,88,57,55,45,38,23,20
45,100,58,64,47,44,22,22
45,103,65,65,53,48,22,21
44,103,68,67,55,44,22,22
43,96,66,62,50,45,22,23
46,109,71,68,53,58,26,26
40,97,70,62,49,53,26,24
36,94,63,64,48,55,29,24
39,107,62,61,47,53,28,22
43,120,65,64,48,57,29,24
44,114,67,71,49,46,26,22
44,112,65,72,50,46,28,22
49,121,66,66,45,43,24,24
50,114,63,65,40,43,25,25
48,113,66,63,46,39,24,27
48,115,60,59,49,43,24,27
49,110,60,56,49,49,23,27
46,109,70,57,52,47,23,29
45,105,67,57,53,47,22,28
45,98,84,67,49,46,22,25
42,84,84,62,42,45,23,26
41,100,90,60,40,39,24,25
42,94,83,58,38,43,24,23
41,96,88,63,42,43,25,24
39,95,72,58,45,44,26,23
39,102,73,55,46,51,30,21
39,94,65,56,45,51,27,21
38,101,74,64,49,48,27,21
38,108,81,76,46,51,27,23
45,112,81,76,46,50,25,25
46,111,85,75,46,40,22,26
46,109,88,77,49,44,22,25
45,102,80,81,47,50,22,23
50,100,72,76,48,46,21,24
44,91,74,75,47,45,20,22
50,92,69,76,48,50,21,22
49,97,72,72,48,50,21,24
52,106,75,62,46,46,20,24
47,97,67,53,46,47,22,23
49,106,82,59,50,50,24,23
42,100,86,58,51,46,21,23
45,96,87,61,51,50,20,22
42,88,84,64,56,50,24,22
44,90,86,67,53,52,24,23
44,90,80,67,52,50,25,23
41,93,78,75,56,52,25,22
41,104,75,73,54,48,28,22
40,97,73,73,50,47,27,26
40,115,85,75,57,46,28,25
35,111,75,68,52,48,28,25
37,112,73,58,47,46,28,25
35,109,75,63,50,44,25,26
37,114,75,58,52,46,25,24
37,99,65,67,56,47,26,25
44,107,76,74,64,45,25,26
46,113,77,80,69,45,26,26
47,103,77,80,69,53,29,24
47,97,80,79,65,53,28,24
51,98,89,67,58,54,27,24
48,100,84,58,49,51,26,23
45,107,91,51,44,52,26,23
43,110,87,50,43,47,23,24
45,117,86,56,43,43,23,25
42,113,76,59,46,40,21,23
41,109,81,61,45,42,25,24
44,97,72,59,40,40,25,24
46,103,76,57,41,39,24,26
43,96,78,53,40,47,26,25
42,101,78,50,36,44,26,24
44,104,74,49,39,47,22,26
42,106,84,52,40,47,25,26
41,103,83,54,41,51,25,25
45,105,82,55,46,47,24,26
45,107,83,57,46,48,25,28
43,101,91,56,49,44,25,25
47,106,83,57,52,59,25,25
47,104,82,69,51,54,26,25
44,102,81,73,50,53,29,23
46,90,79,69,53,56,29,24
45,100,72,70,49,56,29,27
41,95,74,69,45,40,27,27
43,95,76,63,47,48,27,28
46,96,77,57,46,47,24,30
43,106,74,61,44,45,24,30
47,105,70,62,50,51,25,28
45,108,75,59,49,50,26,28
46,110,74,62,57,55,30,28
41,110,74,66,59,55,29,26
42,108,75,70,66,55,29,26
45,102,86,72,63,47,30,26
47,93,75,77,65,50,30,28
47,92,87,78,60,38,24,26
50,90,86,73,56,41,25,29
51,83,86,66,47,42,24,28
47,85,76,66,46,43,23,27
50,96,90,63,45,43,24,26
54,102,80,54,41,49,25,25
58,117,83,63,41,46,25,21
58,117,80,61,40,44,27,22
58,111,89,61,41,45,26,22
56,111,76,62,42,49,24,23
49,105,74,67,46,43,24,26
40,108,90,74,56,46,26,25
41,112,91,78,62,50,28,27
38,110,78,72,66,56,28,26
44,111,96,74,65,62,31,27
45,112,97,73,64,61,30,25
47,99,88,62,58,60,29,27
47,94,89,61,58,62,27,27
49,93,88,65,52,56,27,27
41,87,66,61,51,46,23,23
42,85,66,59,54,51,25,25
42,83,63,64,61,52,27,25
42,98,69,70,60,49,26,25
38,100,69,72,62,51,28,25
39,93,68,70,61,47,28,25
39,99,73,68,53,41,26,23
38,104,80,64,47,48,24,22
37,96,76,66,43,44,25,19
38,101,75,60,43,43,27,21
38,117,74,64,51,56,27,21
36,127,82,62,53,61,29,22
39,123,69,58,52,56,29,24
41,120,76,55,52,59,28,26
44,117,79,54,50,58,25,29
49,117,81,57,41,52,24,29
50,103,78,64,43,45,24,29
47,126,85,65,40,43,26,27
46,127,79,59,46,42,26,28
43,124,74,67,53,46,26,25
36,109,75,64,57,51,28,25
36,114,82,58,55,55,27,25
37,90,79,63,56,53,26,26
44,88,79,63,51,56,31,26
45,87,84,65,46,51,31,25
45,89,87,68,44,40,29,25
44,91,77,70,48,40,30,24
48,97,82,78,57,47,30,25
41,96,81,92,67,41,24,21
43,100,78,89,68,43,26,23
46,112,108,90,69,45,27,24
50,105,104,90,64,45,27,24
47,90,99,80,55,38,29,24
48,88,100,69,55,40,28,24
46,93,102,67,58,45,27,23
50,101,85,64,60,47,26,25
48,99,85,76,65,46,27,28
47,104,83,76,69,47,25,26
46,108,83,70,62,50,27,27
44,117,98,72,58,54,26,32
38,102,80,75,58,51,27,29
36,103,81,62,52,50,25,27
43,105,86,60,47,53,26,27
42,110,93,65,56,56,25,27
44,106,79,74,67,50,26,23
49,113,90,82,78,51,25,25
50,117,93,85,81,52,24,25
47,114,89,88,83,55,28,27
50,113,83,89,75,48,29,27
61,116,84,87,65,45,28,26
59,124,78,77,53,45,28,27
56,117,84,74,48,46,29,27
58,122,83,73,44,40,25,24
55,122,79,65,45,39,23,24
47,117,78,68,46,45,26,27
44,96,73,73,47,52,24,27
44,100,59,71,47,51,25,27
39,109,60,69,47,50,26,27
39,111,69,75,54,54,26,27
37,127,92,62,48,50,27,23
40,127,91,52,44,38,26,20
46,130,107,56,46,36,25,19
45,120,110,55,43,33,22,22
43,107,107,47,35,31,24,20
40,102,104,46,42,31,21,21
39,119,105,46,41,33,22,21
33,117,91,60,41,37,20,23
30,124,88,64,42,40,23,20
37,131,100,68,43,37,23,23
38,127,85,67,39,37,24,24
47,157,112,70,38,39,25,24
49,157,110,56,36,36,26,24
51,152,110,52,38,39,24,25
51,159,111,47,36,39,22,25
50,154,107,52,35,37,20,25
48,124,75,51,37,38,19,24
44,119,80,52,40,47,20,23
42,118,84,53,43,46,21,25
40,119,67,64,50,49,21,23
38,112,66,63,49,50,22,23
38,111,79,63,47,46,21,23
44,130,76,67,47,36,22,25
44,133,71,69,43,30,21,23
44,115,78,64,35,31,21,23
44,128,85,63,40,48,26,23
38,113,81,69,48,53,27,25
38,103,80,69,54,56,28,21
37,106,89,69,55,57,28,23
37,120,81,71,60,54,29,23
36,108,75,75,59,42,26,24
35,116,88,71,55,36,25,23
33,110,87,67,49,31,23,25
39,103,81,63,47,30,25,24
38,93,85,58,39,29,24,26
40,94,85,51,38,27,25,25
38,82,63,47,35,26,25,23
38,88,77,57,31,26,23,25
34,103,76,63,36,29,22,25
33,97,69,65,35,27,22,25
33,100,86,69,35,25,19,24
34,100,89,72,35,29,20,26
31,89,75,62,36,27,23,26
33,85,109,66,36,30,23,26
34,101,111,69,37,30,22,24
35,97,100,66,39,32,23,26
37,115,113,74,42,38,25,27
36,115,113,76,42,38,22,24
35,112,87,71,43,35,22,26
34,125,96,67,44,38,24,27
31,156,101,76,45,37,25,25
27,146,87,70,46,29,22,24
31,148,96,76,55,31,22,25
29,150,94,78,56,32,23,24
35,135,92,88,59,30,20,23
36,95,97,86,57,30,20,24
37,94,98,83,54,30,21,27
34,99,96,78,45,30,20,26
34,92,98,82,41,30,18,25
32,98,104,80,46,36,19,25
33,100,92,74,48,35,18,25
34,99,92,70,50,35,19,21
36,115,98,68,50,33,19,19
34,110,90,61,48,31,20,18
34,107,74,47,38,21,17,21
32,115,98,57,41,24,19,24
34,146,110,63,47,27,21,25
31,130,108,64,51,30,21,25
34,151,125,72,54,33,22,28
33,146,127,72,54,34,23,26
38,142,110,65,49,33,22,24
60,132,110,66,46,33,21,27
61,132,103,70,45,31,20,29
62,114,93,63,47,32,22,28
63,115,95,63,47,32,24,29
69,132,147,69,52,35,25,31
51,124,142,74,51,35,25,27
53,137,147,76,57,37,27,26
51,137,151,76,54,36,24,24
51,144,162,78,57,36,27,25
37,151,123,77,61,35,26,22
51,193,153,88,61,35,28,24
51,192,151,83,52,32,26,25
52,194,145,83,54,31,27,26
52,192,144,82,50,31,25,23
53,174,140,80,44,28,23,23
50,127,102,60,46,27,22,21
51,134,102,61,47,29,22,21
54,151,109,71,46,30,23,23
55,164,99,73,50,29,23,27
55,165,100,80,51,38,25,26
51,168,100,77,47,37,26,28
47,165,100,80,47,39,24,28
48,168,97,72,47,39,25,28
57,174,122,84,58,43,26,25
62,180,136,78,56,40,26,26
60,171,138,90,71,53,28,27
66,208,159,95,73,53,28,30
63,200,165,95,75,54,26,29
68,236,179,91,66,53,26,31
68,232,174,94,70,58,29,32
67,244,175,83,54,46,27,30
63,207,162,76,57,46,28,28
69,213,161,75,56,53,29,28
56,170,141,77,62,57,35,29
61,178,140,68,55,51,36,31
63,177,175,70,56,53,37,32
65,190,177,76,51,55,37,32
58,192,181,77,52,50,41,30
65,193,194,82,58,52,37,29
63,216,199,94,65,52,37,30
64,222,175,97,67,52,39,30
61,219,196,89,66,55,38,30
66,219,193,86,71,57,33,33
64,220,196,81,63,57,36,35
60,198,197,75,57,54,33,32
55,187,209,81,70,62,33,30
60,191,191,85,74,56,33,31
58,176,190,83,67,53,31,29
65,187,174,74,67,57,30,26
65,202,176,85,79,65,31,25
66,207,163,86,78,56,27,24
63,204,155,87,78,62,27,22
59,202,177,90,78,60,30,24
43,188,182,89,79,50,27,24
50,181,175,86,71,41,26,25
50,178,182,78,64,45,28,26
48,175,202,76,59,45,29,28
52,210,189,90,71,48,27,27
58,204,188,96,72,49,26,28
56,231,195,85,67,48,29,30
54,223,195,90,63,49,28,29
56,222,186,89,65,43,27,29
54,188,180,73,56,40,27,29
48,191,182,69,50,40,27,26
45,172,204,84,50,42,24,25
46,168,194,80,57,38,27,25
48,160,183,83,62,39,29,23
47,166,213,89,60,38,29,23
48,153,202,85,59,36,28,24
44,109,186,77,62,33,26,22
56,118,189,77,60,46,26,23
51,119,186,68,51,46,26,28
55,118,143,62,49,47,26,28
58,130,137,67,54,57,28,30
59,155,109,65,50,60,29,32
48,147,94,62,51,51,29,31
47,149,150,70,51,53,25,28
57,164,177,84,59,57,29,34
54,165,178,79,55,48,27,33
52,141,196,75,55,47,27,29
53,143,197,84,53,44,24,30
57,142,170,85,59,40,26,33
46,125,143,71,53,36,23,26
41,105,145,71,57,35,24,27
44,104,121,72,58,33,24,29
53,127,130,59,53,33,26,28
58,139,122,56,52,53,25,27
55,140,121,58,52,54,25,26
61,163,125,63,50,57,26,25
65,161,119,68,48,57,26,24
57,167,123,77,56,59,28,27
52,154,124,72,52,45,29,28
59,174,135,76,57,50,29,30
57,164,132,75,60,53,28,32
50,164,154,72,62,52,28,32
56,165,158,70,55,53,27,30
62,178,164,75,56,51,28,27
54,162,155,68,50,44,26,23
62,176,182,74,53,41,26,24
63,194,166,75,53,43,27,23
63,182,152,67,53,42,27,24
55,170,168,92,70,52,28,25
63,180,180,102,75,56,29,29
52,172,157,109,70,55,29,27
53,152,166,110,73,55,29,27
47,152,175,113,73,58,28,24
50,158,163,94,55,52,26,31
43,139,157,88,44,45,25,29
60,144,149,73,45,45,24,31
62,147,151,71,44,48,24,34
62,150,146,68,45,45,24,34
64,177,135,68,48,43,22,27
69,192,141,68,52,47,25,30
57,185,146,66,49,48,25,29
54,187,143,65,51,52,27,27
63,195,146,67,55,56,29,29
59,182,153,62,52,56,28,29
52,195,142,59,50,55,28,26
54,192,149,61,54,57,31,25
55,202,140,60,49,53,31,26
49,227,178,62,44,50,30,26
51,235,199,70,53,55,32,29
56,215,201,69,51,62,31,30
55,214,200,70,53,59,29,27
53,204,205,70,56,58,26,26
55,179,170,66,53,54,25,23
59,160,133,54,46,52,25,23
59,181,139,57,51,50,24,22
58,178,137,61,49,50,21,23
66,182,137,65,47,50,24,25
62,164,145,71,49,54,25,28
55,167,150,74,49,51,24,26
51,173,207,74,47,46,28,26
49,175,202,72,52,49,30,25
37,171,201,85,57,49,31,25
38,168,200,84,58,45,31,22
45,171,202,87,58,45,32,23
52,151,163,90,58,43,28,25
54,157,165,94,57,43,28,25
56,174,165,83,50,43,27,28
54,175,164,90,59,45,26,27
63,173,169,98,66,49,27,29
62,174,139,91,65,48,28,26
71,184,152,88,62,44,30,28
71,163,149,85,67,45,26,26
73,167,148,87,68,52,31,26
61,154,132,75,59,46,28,24
56,136,139,84,60,47,29,24
43,121,117,79,56,44,26,23
42,125,110,76,51,44,27,21
39,110,101,64,42,40,24,26
49,119,132,68,44,41,23,25
51,116,145,61,44,47,24,26
55,103,159,63,45,48,25,28
55,125,180,69,45,49,25,27
55,134,201,81,43,45,24,26
54,138,197,78,42,44,25,31
57,162,202,87,47,38,25,30
51,162,195,86,47,37,25,28
51,150,184,81,44,31,24,28
52,155,191,82,48,31,23,25
51,165,190,92,52,34,25,22
45,164,203,99,49,31,22,22
52,166,196,102,50,35,23,22
52,163,193,101,53,41,21,23
50,169,171,90,46,39,23,24
50,172,173,91,43,40,21,23
50,158,133,76,50,43,22,25
45,156,152,72,51,44,22,26
43,160,148,77,51,39,22,25
42,145,154,84,52,42,23,26
50,133,134,76,56,42,23,26
47,126,139,78,51,41,23,22
49,137,144,80,50,40,22,22
51,141,153,77,51,39,21,22
65,135,139,69,54,36,20,24
58,127,145,69,54,33,20,26
59,125,150,70,52,32,23,26
61,122,134,82,59,29,23,26
65,119,133,92,64,33,24,25
53,138,157,95,64,38,24,24
54,153,156,94,58,35,24,25
55,155,156,91,56,34,22,25
51,151,161,78,49,33,22,25
51,148,164,67,39,29,23,26
62,151,150,74,36,28,26,28
62,140,147,70,36,29,26,24
62,140,137,69,36,32,29,26
62,152,156,75,44,35,28,27
58,153,145,77,54,38,28,26
45,135,141,72,58,37,26,25
40,124,144,78,67,44,28,25
40,125,141,82,68,42,25,24
49,126,137,89,66,40,24,24
53,140,170,94,62,38,23,25
53,150,175,91,55,37,23,24
53,155,181,88,48,30,22,25
52,154,189,83,46,34,22,25
43,141,176,69,41,32,22,27
43,122,148,58,43,35,22,27
41,119,136,72,55,37,20,26
42,118,122,74,57,38,20,26
56,127,116,77,58,35,21,27
58,129,105,80,57,36,25,23
59,127,98,85,59,35,26,23
60,121,100,70,52,35,27,25
58,117,113,66,48,34,25,23
44,103,113,60,45,33,24,22
48,120,116,60,45,33,21,24
44,125,136,57,41,32,22,23
41,123,153,60,40,29,22,22
43,145,173,70,39,31,23,21
45,145,207,75,44,33,24,20
38,125,209,80,51,38,24,22
38,124,203,83,52,39,23,21
37,122,190,80,49,43,23,21
40,105,188,78,51,45,25,25
48,112,149,81,48,44,23,25
52,114,164,82,45,42,25,25
54,126,162,82,52,44,25,26
58,136,167,88,52,39,25,25
56,134,146,84,52,34,23,22
54,132,153,91,63,39,28,25
51,144,129,87,63,39,25,22
52,149,129,82,56,34,26,28
46,137,126,77,57,36,25,29
47,141,131,77,54,38,25,30
42,149,145,65,40,33,20,27
47,150,156,71,38,32,23,28
42,135,167,71,39,33,25,23
46,136,169,74,39,30,26,21
47,124,167,74,46,29,26,23
49,117,146,74,50,30,27,25
41,103,141,70,50,30,28,26
44,117,133,68,48,28,24,25
42,129,128,64,48,30,25,26
46,149,145,61,42,28,25,25
44,148,167,62,41,27,24,24
45,150,168,54,41,27,22,23
49,130,162,60,42,27,21,27
49,119,170,63,41,26,19,27
42,102,148,65,41,28,18,28
41,107,135,66,41,26,19,26
59,121,154,73,39,25,20,28
62,134,151,71,43,26,20,24
60,138,148,69,43,26,21,23
61,139,162,69,43,24,19,25
66,137,157,75,46,26,18,25
52,136,157,81,48,27,19,22
48,132,153,79,45,27,18,22
49,132,148,85,47,29,20,23
53,141,148,85,49,30,26,20
48,168,158,79,47,29,26,21
46,163,137,73,48,29,25,23
43,163,137,76,50,30,27,24
44,173,138,73,47,27,26,25
43,165,119,71,46,27,22,23
43,141,129,66,45,25,21,22
60,142,129,61,40,25,22,23
58,150,138,60,41,28,18,24
57,150,135,60,44,29,19,25
54,149,147,62,42,28,25,27
55,148,133,67,46,33,25,27
47,157,136,69,52,33,26,27
50,162,149,68,52,29,25,25
49,147,152,64,57,29,26,24
49,146,145,62,57,32,23,22
55,141,139,59,54,28,23,22
46,128,149,59,50,28,23,20
43,117,150,58,50,28,25,22
42,121,162,79,47,29,27,22
57,124,168,76,48,30,27,24
56,135,176,83,53,35,27,22
56,132,195,90,56,36,26,23
56,124,177,91,54,36,26,22
60,127,165,74,51,35,23,23
46,122,174,83,53,34,25,23
40,127,164,76,47,30,25,25
42,119,143,69,40,27,27,27
49,125,160,76,46,31,28,27
44,138,160,78,47,30,28,26
45,136,151,84,57,37,28,25
47,131,144,84,61,41,27,25
47,144,136,88,64,40,26,25
40,144,116,82,60,37,24,24
41,127,119,95,65,41,26,27
40,135,109,82,56,35,26,27
46,121,157,85,52,31,27,28
43,102,157,96,55,34,26,26
42,111,162,101,58,36,28,26
42,113,158,85,49,31,27,23
52,126,159,84,48,29,23,25
46,128,140,85,47,29,25,24
53,132,128,80,45,29,28,24
60,132,126,73,40,30,27,25
61,130,126,86,46,30,26,23
54,121,164,96,47,30,27,24
56,153,150,93,48,30,26,23
57,158,178,90,48,28,24,24
49,149,179,90,50,26,23,24
51,161,183,97,56,29,25,24
49,163,153,94,57,34,26,22
48,133,159,97,57,32,25,22
41,131,132,96,56,32,24,20
46,141,129,96,54,32,26,20
43,125,135,78,44,28,25,20
43,116,148,72,39,22,23,21
42,138,171,95,47,27,26,21
51,148,166,93,44,28,25,21
49,145,181,99,46,30,22,21
55,148,176,155,74,37,23,24
61,159,181,171,92,42,25,28
60,161,174,159,91,40,23,29
53,151,182,161,95,42,23,29
54,146,171,155,93,41,25,29
52,154,177,104,75,35,25,28
48,147,160,82,58,30,23,25
53,122,130,82,56,31,23,24
58,122,128,81,56,30,24,23
60,125,130,88,58,30,23,23
54,121,144,80,55,28,22,24
55,114,144,74,48,28,20,22
52,112,143,69,47,25,23,23
50,114,145,63,41,28,22,25
46,114,177,62,45,29,22,26
50,112,161,68,53,34,23,26
47,136,159,68,52,34,24,26
45,135,161,74,55,36,21,28
39,133,155,79,59,36,23,26
37,135,128,83,59,35,25,26
36,129,117,76,53,32,25,23
34,118,111,73,52,32,26,23
38,143,120,75,55,31,28,21
42,140,126,70,50,31,29,23
46,151,113,64,50,33,28,22
44,164,128,76,55,36,27,23
46,165,145,83,56,38,27,23
48,157,153,82,53,40,25,23
49,162,151,85,53,37,23,22
51,160,165,92,54,38,24,27
54,148,169,86,47,36,25,26
54,151,158,87,54,35,24,28
58,140,154,91,54,32,22,29
56,154,167,99,56,37,25,31
54,162,164,97,54,34,25,27
54,164,149,95,56,33,23,27
54,160,152,90,53,33,25,26
47,157,150,81,53,38,26,26
52,146,151,72,50,34,23,23
53,135,155,76,56,35,23,23
51,129,158,80,58,36,22,26
51,114,151,75,54,36,20,27
55,124,150,83,53,30,19,25
56,120,128,86,55,30,20,28
52,106,115,74,46,31,21,27
52,125,117,71,46,29,25,23
54,131,137,73,45,27,23,22
50,147,134,67,41,26,23,24
41,150,136,59,36,28,24,20
44,151,125,56,34,26,23,21
43,137,120,57,33,26,21,21
48,166,114,59,35,28,22,21
48,148,102,54,35,31,25,19
48,149,106,56,40,29,25,18
50,148,112,68,47,32,24,16
51,156,141,70,50,32,24,18
42,115,130,66,52,33,25,18
46,141,144,75,53,32,22,20
55,146,143,83,65,40,26,23
50,152,149,82,65,39,28,24
51,147,131,80,63,39,27,23
55,155,142,81,60,38,29,23
54,142,134,75,61,37,30,23
50,132,135,63,47,28,28,22
54,143,150,59,45,26,27,24
55,139,152,58,43,25,27,24
50,140,145,67,54,34,25,24
49,132,145,72,68,43,27,23
48,146,144,70,68,43,25,24
44,140,130,70,67,43,22,21
44,141,120,72,66,44,23,21
45,138,133,72,60,41,23,23
48,134,127,66,49,34,22,24
47,117,126,66,49,36,24,23
47,113,158,65,48,36,24,24
48,108,160,69,47,34,23,25
51,102,154,75,55,38,21,22
45,118,204,89,55,38,18,22
57,131,205,90,56,35,20,24
60,114,171,89,55,33,22,25
59,118,170,88,58,35,21,23
58,133,180,86,48,25,22,26
56,120,123,71,44,23,22,24
55,150,134,74,46,30,24,26
64,163,137,75,49,31,23,27
66,179,151,75,48,30,24,27
66,184,131,67,51,32,26,27
69,203,168,76,49,32,26,28
60,180,161,75,44,27,21,25
50,173,158,72,41,26,21,23
63,175,149,67,40,25,23,22
62,159,173,72,35,23,23,20
63,129,138,62,35,24,25,20
69,130,150,59,34,24,26,21
76,128,154,62,36,24,28,22
64,99,153,66,36,26,25,23
64,100,123,58,39,32,24,23
63,120,127,62,39,32,23,24
63,113,113,63,39,30,25,25
49,111,101,62,40,32,22,23
49,128,108,60,40,32,22,23
53,140,107,64,38,28,23,26
52,127,96,67,37,27,23,23
52,143,108,68,39,31,24,27
52,146,109,64,35,30,24,27
58,135,96,63,34,30,24,27
58,165,122,66,38,28,23,28
59,171,124,63,37,28,25,28
55,165,100,61,34,24,21,24
58,158,111,82,41,26,26,26
53,169,134,81,39,24,26,28
53,131,118,75,35,25,27,28
55,127,114,76,38,27,25,30
52,125,129,107,51,29,27,30
72,128,126,113,58,35,27,32
109,125,103,112,59,35,27,32
113,127,98,111,58,34,27,31
154,143,107,107,57,33,28,34
164,134,92,77,44,30,29,37
160,136,82,41,28,23,26,34
140,135,82,40,31,25,27,33
138,137,84,86,44,30,28,33
