47,766,76,60,140,30,20,17
43,759,87,60,105,26,20,18
41,687,80,56,93,28,19,18
41,706,87,51,88,26,21,19
38,678,86,49,71,29,22,18
37,666,89,62,67,28,23,18
36,580,89,62,61,29,24,19
37,544,93,63,65,28,24,20
35,525,92,61,68,28,24,21
34,514,94,64,74,26,23,22
32,529,91,52,71,29,24,22
32,529,91,48,66,31,23,20
32,541,86,53,61,31,23,20
29,531,81,54,68,31,21,18
33,525,91,54,67,31,23,20
34,505,93,56,71,32,20,20
38,641,94,65,89,29,21,21
37,671,99,71,93,31,23,20
40,668,100,69,95,31,22,21
41,685,88,69,95,32,22,19
45,680,91,75,101,29,22,19
41,549,87,70,96,30,22,17
51,500,95,64,99,29,19,20
49,506,107,65,96,30,23,20
48,489,107,58,98,28,21,20
48,581,104,52,98,28,21,20
53,640,109,51,103,31,21,22
44,657,103,48,101,29,22,20
46,648,93,48,98,30,20,19
48,646,110,57,93,32,21,19
49,558,110,52,83,31,21,19
45,457,98,52,70,27,21,18
49,420,101,55,72,28,19,19
48,425,111,62,76,27,18,18
48,393,93,53,75,26,19,18
45,399,93,53,73,26,19,20
43,427,102,51,72,28,20,19
42,417,95,50,68,28,21,20
45,397,84,40,61,29,20,21
43,408,83,59,67,28,19,23
42,419,84,61,71,30,20,22
44,403,84,70,68,29,19,23
43,405,89,69,64,30,18,23
42,416,87,73,67,29,21,23
38,423,92,64,66,29,21,22
37,405,92,63,62,27,22,22
36,431,91,58,62,28,22,21
34,460,92,53,63,27,22,20
63,652,110,51,152,35,20,21
65,647,128,50,156,35,19,21
79,661,144,56,164,50,21,21
82,643,140,59,173,53,21,21
88,610,149,65,187,56,20,20
76,356,139,67,138,51,20,17
79,312,129,72,141,52,21,15
71,226,109,69,156,39,18,14
72,154,116,64,152,36,22,14
66,103,119,69,151,35,29,17
71,369,123,73,199,47,34,19
76,586,114,70,210,47,34,20
71,683,130,74,207,46,34,22
69,774,126,77,203,46,32,22
65,833,114,71,192,43,29,20
52,775,113,63,128,28,22,18
34,646,119,64,100,31,22,19
34,565,100,57,64,29,22,17
33,461,95,55,60,29,20,17
34,386,97,55,57,30,20,17
34,363,103,69,65,30,19,18
35,374,99,63,64,28,18,19
34,365,109,66,61,29,19,19
31,350,105,62,61,28,18,21
31,332,103,63,61,27,19,21
29,321,97,54,50,29,21,20
30,299,95,57,50,28,22,21
31,283,91,56,51,29,23,21
36,277,102,61,57,28,24,19
36,261,108,58,62,30,23,22
37,274,104,57,67,27,24,22
36,281,109,55,70,28,22,19
39,290,106,54,73,29,22,20
39,484,105,50,100,29,21,21
48,870,107,51,153,29,22,20
53,927,109,53,168,32,20,23
57,994,112,54,196,31,19,25
61,1033,117,57,208,29,18,23
61,988,119,54,202,28,16,23
56,737,116,56,168,28,16,22
53,691,109,62,156,27,17,19
49,588,104,61,119,30,19,17
40,519,101,60,93,31,21,19
40,465,91,65,79,32,23,18
41,368,81,64,70,32,22,20
37,321,78,55,63,32,22,19
38,314,78,52,61,31,22,20
38,309,90,48,59,31,21,21
32,311,102,41,61,28,19,19
27,328,122,39,56,28,19,18
27,305,135,46,55,26,22,20
33,302,138,55,62,26,21,20
35,318,131,59,65,25,20,18
37,305,126,61,63,28,20,19
39,283,106,62,66,29,22,24
59,304,106,80,71,29,19,47
57,303,99,75,67,29,21,79
65,544,105,74,105,31,22,105
68,886,107,84,147,32,23,110
78,922,121,84,191,33,21,110
81,931,117,82,213,38,20,104
83,1011,118,83,224,37,19,86
81,972,116,89,223,36,19,53
79,741,120,79,206,38,21,48
69,721,105,78,168,35,21,60
51,718,93,57,133,29,23,64
47,631,92,61,118,31,23,59
40,536,93,64,94,31,24,60
39,455,79,65,75,32,21,55
38,457,87,64,70,32,23,38
32,448,89,65,69,32,22,29
39,431,100,62,63,30,22,27
38,425,93,47,48,29,21,28
41,434,119,49,54,25,23,31
42,402,122,48,57,27,21,29
42,403,124,50,64,28,22,30
40,394,114,53,67,29,21,32
38,377,116,61,74,29,21,34
37,390,93,77,79,29,21,36
39,614,83,81,109,29,20,35
56,886,91,85,141,32,19,33
56,1054,96,85,161,35,21,31
59,1101,91,80,169,35,21,27
67,1113,91,70,178,36,24,37
65,1040,93,70,159,36,23,68
57,860,88,72,131,31,23,87
53,668,84,65,106,29,22,89
58,610,91,71,89,30,21,93
47,595,103,67,65,30,18,94
46,558,108,64,74,27,21,95
47,519,116,56,70,29,22,103
48,496,119,58,70,27,21,118
43,490,125,49,80,28,21,121
43,481,117,47,78,24,20,116
44,482,116,46,76,26,19,101
37,481,115,45,80,25,18,78
39,498,115,49,79,30,19,50
36,506,112,51,68,28,18,33
35,499,111,51,63,29,18,31
33,482,118,57,51,28,17,30
41,671,108,61,79,31,16,20
47,922,118,60,113,29,16,16
55,1036,116,60,128,33,16,16
58,1091,124,60,138,35,18,19
60,1120,126,58,146,36,20,19
58,1055,124,56,133,33,19,20
50,882,116,53,108,32,19,21
42,764,112,56,89,29,19,20
37,700,111,54,78,28,18,18
33,662,101,52,64,25,18,18
30,593,104,47,56,29,18,16
39,530,98,51,60,27,18,17
36,506,95,46,62,25,18,19
38,488,87,57,58,28,20,33
40,492,89,59,62,27,20,42
40,510,89,64,67,25,21,43
33,506,107,63,56,25,21,42
39,502,113,69,57,27,22,42
38,518,107,69,58,25,20,31
38,535,104,64,56,26,19,17
36,535,99,61,55,31,20,16
43,658,85,64,106,32,20,18
49,866,79,58,141,34,20,19
50,967,90,50,151,35,20,20
56,1035,103,57,162,36,21,23
59,1077,104,56,173,34,20,23
62,1087,101,54,162,35,21,23
56,962,107,54,138,31,21,23
57,879,111,55,132,30,22,23
53,804,96,50,119,30,21,23
54,809,99,51,120,27,21,24
61,851,124,54,132,31,23,22
63,891,129,55,143,33,22,23
62,906,127,55,140,33,23,24
64,935,129,55,148,33,22,22
61,883,129,53,137,35,22,24
49,735,109,48,105,30,21,24
50,694,103,57,85,31,22,23
49,672,99,58,90,29,20,21
46,685,100,66,76,28,21,23
46,725,104,71,71,28,21,19
45,715,103,72,73,28,23,41
40,685,101,63,81,24,22,45
38,737,96,60,73,27,22,46
40,776,100,57,77,28,24,45
42,752,92,50,79,26,24,45
43,778,86,55,81,28,23,30
46,753,82,54,73,28,24,20
50,719,91,52,80,27,24,19
48,635,83,49,77,26,21,18
49,726,85,52,85,29,22,19
47,733,83,44,86,30,20,15
44,738,91,47,83,32,19,17
44,682,97,49,81,31,19,17
45,677,102,48,90,31,19,19
42,640,114,47,99,29,18,21
43,649,115,47,106,28,19,21
42,666,112,51,109,27,20,21
38,694,101,52,106,29,21,20
37,705,101,55,97,28,22,20
34,641,91,55,76,28,21,19
32,634,86,54,62,27,21,19
37,684,88,57,80,26,20,20
38,683,94,60,85,27,19,20
40,658,90,57,88,27,18,23
46,660,92,57,95,25,18,22
46,739,103,58,104,27,17,21
48,705,105,53,94,28,18,22
50,728,115,51,98,25,19,23
48,743,118,51,97,26,19,20
47,718,117,51,92,28,20,21
49,639,115,50,87,27,20,21
48,738,110,51,100,27,19,21
49,717,111,52,104,28,19,19
52,695,106,49,105,26,19,20
51,688,119,52,110,25,19,18
52,667,121,51,110,24,19,18
48,559,125,53,102,24,21,17
45,656,149,51,94,24,20,24
43,654,155,56,90,26,20,23
41,670,153,55,87,27,19,23
36,647,145,59,82,28,20,24
40,643,157,54,76,28,21,24
39,651,122,51,79,30,21,17
43,665,124,47,89,28,21,17
43,668,121,48,87,30,24,18
45,695,125,42,91,30,24,18
45,672,106,42,88,29,22,18
44,598,107,45,85,28,23,18
44,679,100,45,95,28,24,19
47,699,93,48,100,27,22,21
48,716,98,55,107,33,20,20
46,722,97,55,108,34,20,20
48,723,92,54,108,32,19,22
42,726,96,64,95,35,18,21
42,715,101,61,109,34,17,20
41,709,97,55,98,28,19,20
41,713,109,56,96,27,20,20
46,656,115,57,98,29,21,19
46,570,110,47,97,29,20,20
45,556,106,48,70,29,20,18
45,632,115,49,75,29,19,19
49,635,114,54,80,28,19,20
46,645,106,59,81,28,19,20
49,634,110,66,79,28,19,20
60,711,112,68,87,26,20,22
62,637,115,76,84,29,21,22
59,653,111,72,81,29,23,21
58,686,111,72,80,31,23,23
55,705,109,65,78,29,23,22
42,624,112,71,80,29,23,20
43,721,125,63,88,27,22,19
42,725,132,64,96,27,21,22
43,706,138,57,92,27,19,19
48,718,139,59,101,27,20,19
51,704,147,59,94,28,19,22
47,617,123,57,88,28,21,21
53,674,114,56,101,28,21,21
56,689,113,60,106,27,21,22
52,684,110,60,106,26,19,21
50,734,99,48,114,25,20,22
54,703,109,47,111,24,18,22
50,756,106,45,95,26,18,21
45,768,106,38,92,25,20,21
46,756,101,34,84,25,21,22
48,742,99,55,75,26,20,21
43,773,87,58,77,29,21,22
45,639,88,63,77,26,21,21
50,719,94,66,85,30,20,22
51,726,99,69,89,31,20,25
52,710,95,55,85,29,21,34
53,688,100,55,87,28,22,37
53,669,102,54,87,30,23,36
51,586,103,55,90,26,23,37
48,550,105,54,89,26,24,35
47,573,115,56,95,27,24,25
44,603,114,53,102,27,23,23
47,622,113,52,106,28,23,23
51,573,108,58,99,31,24,29
56,677,106,62,115,32,23,34
57,667,99,71,113,34,25,34
59,652,95,73,105,34,24,32
57,672,93,72,100,33,22,33
54,690,87,67,99,33,22,27
50,602,87,65,76,31,22,19
55,687,90,52,90,29,20,21
54,740,92,53,98,30,21,22
53,777,96,60,100,27,21,22
49,788,99,60,95,25,21,21
47,825,98,57,95,25,22,21
35,742,96,63,78,23,20,20
34,691,107,60,66,24,20,21
32,674,103,52,57,25,19,20
32,638,99,48,58,23,19,20
37,638,104,55,73,24,18,19
37,628,97,49,74,27,18,19
41,611,93,55,83,25,18,18
40,563,96,56,84,28,19,17
40,613,92,56,89,29,18,17
51,522,104,79,80,30,20,23
52,522,106,84,88,30,21,23
53,527,113,82,85,30,20,25
52,480,109,82,83,27,20,25
59,389,129,86,96,29,20,26
47,466,114,59,93,29,21,21
50,478,117,55,87,29,21,21
45,459,111,54,92,28,21,19
46,579,121,56,100,29,22,18
47,581,108,51,89,28,23,18
49,540,111,59,91,28,22,19
46,569,111,64,98,27,22,19
48,553,117,61,90,31,26,19
53,516,135,68,103,27,25,20
43,532,129,78,109,27,24,18
46,527,134,77,118,30,25,20
47,495,134,72,108,29,26,21
45,512,130,72,105,27,23,20
40,516,102,66,91,29,23,21
42,537,102,51,78,28,23,21
38,528,93,42,61,24,21,19
39,573,96,41,74,27,21,17
39,605,83,45,76,26,19,19
37,541,81,41,73,27,21,19
45,517,83,45,75,31,22,21
43,572,76,51,82,32,22,20
49,562,76,63,79,32,22,20
53,593,74,62,89,32,21,19
63,604,131,74,88,30,20,19
57,594,138,74,86,29,20,20
62,577,147,81,89,28,22,20
58,601,145,70,85,28,21,20
64,546,154,72,79,26,20,21
61,544,114,60,80,29,21,22
63,610,104,60,88,28,20,19
61,584,109,50,95,28,17,21
59,582,110,50,94,27,18,23
60,586,114,65,89,28,19,21
57,583,112,67,88,26,19,20
58,514,113,70,89,26,19,21
57,512,99,71,70,29,18,18
67,483,115,74,79,28,19,17
63,468,102,62,82,30,19,18
67,486,102,58,83,30,18,19
68,488,111,64,81,31,18,19
66,539,113,60,87,33,19,19
55,486,93,60,80,32,19,18
55,490,148,62,91,30,19,20
50,563,151,64,91,30,19,21
49,573,151,52,88,29,20,20
56,564,162,58,101,26,20,23
62,716,168,56,122,28,18,24
59,801,122,51,127,28,19,22
57,740,134,56,122,29,20,21
56,810,124,69,122,28,21,23
53,818,103,66,114,28,20,21
47,725,96,68,91,27,21,21
45,662,95,69,75,28,22,21
48,667,72,63,80,28,21,23
48,657,93,51,85,29,22,21
50,658,96,51,83,31,23,22
51,741,103,50,95,32,23,21
52,751,112,49,91,30,22,22
54,761,114,58,96,28,21,19
54,722,103,55,99,26,19,20
49,728,104,49,99,27,17,19
62,720,106,71,99,31,21,21
60,714,94,74,104,33,23,20
60,719,107,78,96,32,24,23
60,689,117,88,104,34,24,22
60,685,118,90,113,36,24,23
48,670,112,74,116,34,20,21
50,659,117,79,117,32,18,20
44,660,104,70,119,35,17,19
45,698,98,62,113,35,17,20
45,682,101,67,112,34,16,18
42,613,127,72,131,37,21,19
56,816,132,71,170,42,22,23
58,941,129,69,176,43,24,25
65,1010,131,79,169,44,23,28
66,989,132,75,165,43,23,29
68,972,107,77,143,38,19,30
55,772,103,74,85,32,17,28
53,558,107,74,78,27,14,26
57,320,103,81,101,27,15,24
55,281,106,85,102,25,17,25
56,217,105,77,103,25,17,23
65,199,104,76,110,27,18,23
65,184,107,80,110,28,17,24
67,147,105,69,103,24,19,22
65,87,93,66,99,28,19,20
68,61,96,71,104,28,19,18
64,44,102,70,94,29,23,19
66,40,97,66,101,33,27,20
62,32,98,59,97,42,28,21
65,19,104,57,95,41,29,22
59,13,109,57,89,42,30,24
55,9,104,58,98,40,27,24
56,179,136,78,88,37,23,21
47,267,136,76,87,27,20,21
46,373,135,77,88,26,18,21
50,435,136,73,96,24,18,21
49,470,136,74,91,25,20,19
46,477,109,62,90,25,20,22
46,455,100,60,87,24,21,21
45,392,95,62,88,27,23,21
40,366,97,62,85,27,24,20
43,337,105,65,85,31,23,21
38,280,97,59,86,32,24,20
36,251,104,57,86,35,25,19
35,225,115,56,94,38,27,18
61,449,126,64,199,45,27,17
71,680,121,72,239,45,25,18
77,795,127,81,251,45,25,18
83,931,124,83,259,46,23,19
85,1009,118,82,259,45,19,18
71,993,90,75,195,38,18,17
60,905,89,65,143,37,19,17
56,854,90,51,117,34,18,17
47,728,89,50,93,33,18,16
45,650,98,51,86,28,18,17
40,555,96,53,68,28,20,18
40,486,100,49,67,26,21,19
38,425,94,44,62,26,21,17
38,407,114,50,65,24,21,19
36,378,121,55,65,28,21,18
35,368,122,52,60,26,20,16
35,356,123,61,55,27,19,16
34,377,122,65,60,30,21,17
34,381,121,68,63,30,21,16
31,381,105,62,59,28,21,18
31,391,109,65,60,28,21,19
40,389,110,67,68,31,21,19
40,445,115,65,76,29,20,20
41,491,97,58,72,30,20,21
48,621,104,59,107,33,21,20
61,936,104,62,153,38,22,20
60,968,110,58,157,37,20,20
67,969,124,61,171,36,19,22
70,1013,124,57,183,36,17,21
73,956,140,59,186,37,18,20
64,700,138,55,156,35,16,20
59,698,125,53,151,33,17,20
53,669,124,51,132,33,18,18
48,573,124,51,121,33,20,19
45,546,100,55,84,29,21,21
42,470,97,52,74,28,23,20
42,405,94,47,68,29,27,20
40,358,79,51,67,28,27,19
39,336,80,56,55,27,28,19
31,345,81,51,53,28,26,18
40,334,96,59,58,27,26,18
40,322,97,63,59,27,24,18
46,316,101,63,58,27,22,19
48,296,107,60,58,29,22,19
47,283,111,58,62,27,23,20
45,276,109,57,62,27,19,21
44,268,109,57,65,26,20,20
38,285,102,53,65,26,21,20
36,291,97,56,67,25,23,21
36,285,89,57,66,25,22,21
41,545,92,64,109,26,22,21
57,916,102,67,164,30,21,21
63,944,109,74,198,33,20,19
82,993,122,89,214,35,18,17
84,1037,124,95,223,35,19,16
83,973,122,94,215,34,21,17
75,679,114,92,175,32,20,19
70,654,104,87,134,28,20,20
48,601,86,73,106,26,18,21
44,527,81,63,93,28,17,22
34,451,85,66,63,30,17,21
33,396,98,66,64,29,17,20
33,363,96,70,66,30,18,20
33,334,104,72,72,28,20,21
32,310,107,72,59,28,20,19
36,292,96,63,60,27,20,19
39,292,94,65,64,25,20,18
37,292,108,61,67,24,20,19
36,275,96,55,59,27,22,18
42,303,92,58,63,26,23,20
41,302,92,60,67,25,22,19
36,314,79,52,64,29,23,19
37,326,59,51,56,29,22,19
35,321,61,49,51,28,23,18
42,512,81,45,85,30,22,18
58,825,83,38,137,36,26,20
65,908,121,51,165,54,34,22
80,1038,144,65,215,62,39,22
82,1069,146,65,225,62,38,21
78,1002,138,67,223,61,38,21
66,806,137,68,195,59,35,20
61,721,109,65,178,41,26,19
39,525,83,59,113,30,18,20
32,482,81,60,92,31,17,21
36,482,95,70,66,37,19,23
34,415,90,69,68,35,20,21
35,397,87,66,60,34,20,21
36,397,84,60,62,34,20,21
39,379,89,66,61,31,22,21
31,343,74,57,60,29,21,19
33,366,80,64,70,27,20,20
34,368,93,63,74,30,21,21
32,379,96,66,75,28,22,21
38,392,95,65,79,30,22,22
40,415,99,67,82,26,22,20
42,436,114,61,73,29,23,23
39,439,101,57,60,27,21,21
46,618,104,61,89,28,21,21
50,874,107,61,127,27,22,21
53,1031,106,61,142,30,23,22
52,1080,89,58,147,29,22,20
52,1112,104,60,152,31,23,19
52,1070,97,53,147,29,22,20
48,901,91,51,119,28,20,19
44,725,92,46,98,25,19,19
44,658,98,47,87,25,20,20
44,620,103,45,80,23,20,20
36,547,102,45,62,26,21,21
32,533,99,47,54,28,21,21
35,533,97,44,60,28,21,21
37,512,96,52,63,28,22,20
36,507,89,54,59,28,21,20
41,505,96,53,59,31,21,19
41,496,96,52,60,30,21,19
42,496,91,58,54,32,20,17
45,511,90,61,54,32,19,17
44,517,87,63,60,35,22,18
42,528,89,64,65,33,22,19
45,708,100,64,132,35,22,20
58,885,111,64,163,40,22,21
61,991,110,61,167,44,22,22
66,1043,109,59,171,42,19,21
66,1082,113,62,172,42,18,22
68,1055,108,61,141,43,20,22
58,947,98,65,111,37,19,22
51,851,97,61,103,36,19,22
52,796,92,60,99,35,19,21
52,845,92,59,122,32,20,22
55,877,104,66,127,29,21,20
56,915,106,60,137,32,21,20
57,966,111,58,142,28,21,19
55,980,117,60,141,31,22,20
54,895,111,59,118,33,22,20
49,807,97,53,103,31,21,21
46,763,103,51,86,28,20,21
46,698,103,55,86,30,19,21
45,753,105,57,89,27,18,20
44,799,114,61,96,25,19,19
41,739,116,56,94,26,18,18
41,685,106,58,90,26,19,18
42,697,103,57,85,26,20,20
41,707,102,53,94,28,21,21
41,680,119,52,93,28,19,20
44,688,125,53,88,28,19,21
43,671,126,50,94,28,20,20
45,657,124,54,99,28,20,18
49,559,116,56,88,25,22,18
53,579,92,51,87,25,22,18
53,634,83,56,91,26,23,18
51,656,91,58,84,24,23,19
48,642,116,60,82,26,24,21
42,689,114,57,90,29,23,21
40,705,112,63,90,29,23,22
42,699,112,59,88,29,21,22
44,700,119,61,99,31,22,23
44,690,100,56,99,28,19,23
44,656,103,61,93,29,21,22
41,614,106,57,92,30,23,21
36,593,111,59,92,32,22,21
39,653,106,69,97,31,21,19
41,705,98,70,103,33,22,17
43,675,109,66,100,30,19,17
43,682,107,63,98,30,19,18
43,757,101,64,114,28,21,17
41,720,96,49,108,28,21,18
44,682,109,48,103,28,21,20
43,696,101,49,104,29,21,18
42,665,100,52,104,28,21,19
46,579,104,48,86,28,19,22
51,668,104,53,89,29,20,22
47,684,106,53,86,27,20,21
47,682,110,59,88,26,19,23
49,678,121,65,88,25,19,23
46,669,130,70,89,24,20,19
38,552,130,65,80,22,20,21
40,605,123,68,96,29,21,21
37,628,113,62,93,30,21,20
37,630,108,57,93,31,21,19
43,612,91,52,89,30,21,20
46,619,92,58,91,30,20,19
48,631,88,55,82,27,20,18
55,602,94,62,83,26,20,19
55,619,96,66,81,28,19,18
50,620,101,65,79,28,19,19
49,611,104,69,75,27,19,19
44,556,110,69,64,26,18,18
40,663,112,64,76,26,18,19
49,660,122,58,99,27,20,22
53,687,131,59,111,32,19,22
52,679,125,53,107,32,19,20
56,683,125,53,117,32,19,22
56,678,124,54,131,31,17,22
50,681,120,63,117,27,19,20
49,680,105,64,109,28,20,20
53,713,113,66,117,32,20,22
49,671,108,67,111,31,19,21
51,625,102,69,82,32,20,21
64,692,85,76,84,35,18,22
63,676,89,75,97,31,19,23
61,665,80,76,94,30,21,22
62,671,90,74,91,30,21,21
59,625,98,75,92,30,21,21
50,548,114,64,93,28,19,21
52,603,114,63,88,28,19,20
51,612,123,61,86,26,18,20
50,618,116,60,88,25,18,20
47,602,113,52,90,26,20,20
39,596,99,44,89,25,21,16
45,648,115,43,95,28,23,16
51,653,105,41,99,27,23,17
51,680,106,45,102,29,23,19
53,709,107,53,104,30,23,22
53,691,107,56,99,32,22,23
46,611,105,63,80,28,20,23
46,687,125,63,79,30,20,22
47,691,123,63,79,30,21,22
48,705,128,59,79,28,20,21
49,735,131,56,83,28,20,20
47,704,141,57,88,26,20,20
43,688,132,55,91,25,22,21
44,688,141,52,90,25,23,21
47,689,132,49,88,30,24,21
48,697,134,64,83,30,23,22
48,711,116,54,78,31,23,21
46,653,106,55,70,32,21,20
46,662,94,58,65,32,21,19
52,698,122,67,78,31,19,17
50,679,121,60,82,31,20,15
51,703,112,61,87,31,20,18
50,661,114,62,85,29,21,18
48,639,131,64,87,29,21,17
40,648,126,55,80,26,22,18
40,652,125,54,79,28,20,19
40,621,123,55,77,27,21,18
39,651,122,53,87,30,20,19
43,611,106,48,86,30,19,21
49,627,81,55,86,31,19,23
49,629,72,50,86,31,21,23
53,638,77,49,89,31,21,24
57,641,69,52,84,32,20,24
55,665,91,59,84,31,20,24
53,572,110,57,77,31,20,23
54,706,112,58,85,31,19,24
50,757,118,59,89,31,20,23
47,809,125,64,95,30,20,24
46,808,113,61,94,31,19,24
40,811,99,57,95,28,20,22
41,664,101,63,86,32,19,22
40,604,103,61,74,32,18,21
44,590,102,56,72,29,19,21
44,601,98,57,74,30,19,21
45,569,111,75,82,29,22,21
47,654,109,71,87,23,22,19
48,631,103,71,89,24,23,20
43,573,101,74,88,22,22,19
41,617,107,79,88,27,23,17
40,612,97,64,76,28,20,16
33,532,110,64,75,29,22,17
33,563,116,66,79,32,21,18
34,556,114,64,70,33,20,20
35,523,113,60,80,28,20,21
35,555,109,65,79,30,20,22
34,542,106,63,73,30,18,22
33,511,101,64,67,26,18,22
35,529,101,63,69,26,20,21
40,545,100,64,60,26,20,21
40,507,109,60,65,27,21,21
40,521,113,59,66,28,23,23
39,513,110,55,70,28,23,22
38,557,106,50,73,28,21,20
34,477,113,43,73,29,20,21
38,481,101,40,67,25,19,19
40,536,82,44,74,22,17,19
41,558,85,42,71,24,17,19
46,563,103,45,74,24,19,21
44,573,88,43,72,25,20,20
42,577,97,47,76,24,20,22
41,517,99,53,69,27,20,21
44,540,105,58,76,27,20,23
38,458,106,61,69,27,19,21
40,463,105,62,66,28,19,21
39,481,97,59,70,31,19,19
39,495,101,54,70,30,20,20
36,447,92,51,60,27,20,20
38,513,79,45,69,27,19,21
40,515,94,46,71,25,18,21
39,514,98,51,71,22,19,22
43,583,95,49,83,21,18,23
42,582,97,46,86,23,19,20
45,541,106,55,83,22,21,21
47,559,96,57,92,23,21,22
46,564,94,52,88,23,21,21
40,548,105,51,77,22,20,21
43,561,102,51,76,22,22,21
38,552,88,49,71,23,20,20
35,536,90,50,59,21,20,20
37,532,106,53,62,22,19,21
39,562,99,52,65,22,18,21
38,548,103,66,72,20,16,21
42,544,113,63,78,22,18,22
41,564,125,57,75,22,18,21
45,590,119,58,85,23,19,21
52,478,117,63,86,21,20,22
52,482,120,54,79,22,21,23
51,508,108,56,83,20,19,22
50,474,98,56,92,26,21,20
47,495,103,60,87,29,23,18
40,509,100,58,91,32,21,18
42,504,105,60,92,31,20,18
38,480,114,54,86,33,22,18
46,523,116,58,85,30,21,20
45,447,101,49,81,26,19,21
47,444,111,48,76,25,20,20
47,488,101,44,86,26,20,20
46,477,95,48,82,26,19,20
39,455,98,44,75,29,18,20
39,462,101,46,78,29,17,21
36,458,97,45,84,28,17,20
35,461,95,42,80,29,18,20
34,462,93,49,82,28,20,21
35,502,100,63,83,24,19,20
36,529,107,66,81,24,19,20
38,544,119,71,69,25,19,22
39,555,141,73,71,24,19,21
39,598,144,67,71,24,19,21
37,538,134,59,66,24,19,21
35,506,127,59,65,24,19,19
36,535,114,55,69,25,21,19
31,512,93,55,66,25,20,20
34,541,93,59,63,25,20,19
34,561,91,60,69,26,19,20
38,559,91,58,68,28,22,21
36,558,90,59,65,28,21,22
40,629,96,61,61,28,21,23
39,561,99,62,62,26,20,21
41,551,101,60,55,25,19,22
41,667,106,61,60,24,18,23
44,653,106,67,70,24,18,23
44,554,91,64,70,23,19,21
48,606,95,59,85,24,19,23
48,593,98,59,87,24,21,21
49,487,104,59,88,22,21,21
44,468,99,50,79,20,20,21
47,541,107,53,80,21,19,21
44,498,115,53,67,22,19,21
45,521,114,50,74,26,20,22
44,490,120,51,69,26,20,23
50,547,131,47,80,27,21,23
46,481,132,44,80,26,20,24
45,470,118,43,80,26,21,25
51,504,132,46,74,23,21,25
48,513,114,54,73,25,22,24
45,488,118,56,71,24,21,24
44,513,111,58,68,25,23,24
47,595,120,62,80,26,22,22
39,557,109,60,80,27,21,24
42,647,113,58,84,24,23,24
40,619,106,59,81,26,23,23
41,593,117,58,78,26,22,24
38,529,111,56,66,24,21,23
39,533,116,57,62,23,22,20
40,495,115,52,66,25,20,21
47,526,113,55,67,24,21,22
49,531,107,50,73,22,23,22
50,522,106,58,72,25,23,22
52,589,88,55,78,25,23,22
53,528,96,53,70,25,23,22
47,516,95,49,64,24,21,23
44,581,90,59,64,25,20,20
41,601,83,58,64,22,20,21
48,536,94,64,56,25,18,22
47,580,90,65,62,25,19,22
51,562,99,68,65,26,18,22
52,502,116,65,65,27,18,24
54,579,128,60,70,27,20,25
45,563,122,54,73,25,20,24
45,525,141,59,68,25,20,24
39,566,146,63,64,23,21,24
40,570,137,58,65,23,22,23
41,511,130,58,58,23,23,24
43,508,134,58,56,23,23,24
38,523,117,52,59,25,22,22
46,545,98,50,73,28,22,22
46,546,98,52,67,31,22,20
43,561,99,56,78,31,19,20
46,583,109,60,81,33,20,19
49,556,105,65,83,31,20,19
42,502,105,65,79,34,20,18
50,533,118,66,84,33,20,19
49,453,116,60,74,32,21,19
44,422,99,59,71,32,21,19
46,470,109,54,70,33,21,21
53,444,115,51,65,30,21,22
47,381,96,52,58,28,21,22
50,449,95,52,65,28,20,22
56,482,97,59,67,25,20,22
51,463,92,57,67,26,22,20
47,535,93,54,66,25,22,21
50,537,101,50,72,27,26,21
48,511,111,52,66,26,26,22
46,581,116,42,71,27,26,22
47,585,120,48,69,26,24,22
44,570,113,48,68,26,25,21
40,591,107,53,67,25,20,19
38,571,97,52,72,26,21,21
33,461,93,51,68,28,22,19
33,473,83,48,67,29,23,19
39,503,91,52,72,30,24,19
40,498,91,47,69,31,24,18
52,509,94,54,72,32,26,17
51,542,105,59,72,30,25,18
55,577,102,57,78,27,23,22
53,515,99,56,75,27,23,20
53,513,99,56,74,26,24,21
41,535,100,49,66,25,22,21
48,541,94,54,69,27,23,23
45,546,90,57,69,29,23,21
43,557,92,55,69,29,22,22
44,578,92,59,72,28,20,21
44,542,94,61,70,28,20,21
34,530,94,51,68,26,20,18
32,453,92,45,59,26,21,17
33,462,87,46,57,24,20,18
35,503,87,40,70,25,21,18
34,518,85,36,71,27,21,18
36,494,73,41,69,26,18,18
39,545,73,44,75,28,19,18
40,519,74,41,75,28,18,19
37,445,81,45,62,28,17,19
42,523,80,44,60,26,18,19
43,533,87,41,61,28,20,19
42,476,94,45,59,24,19,19
39,513,94,47,57,25,21,18
39,505,88,48,56,25,21,20
39,480,86,58,62,28,20,21
38,484,95,61,61,26,21,22
36,495,91,57,68,26,22,21
41,454,96,61,75,26,21,21
42,496,108,62,75,28,21,20
43,517,117,54,74,25,21,18
46,518,105,52,74,25,21,19
46,572,113,56,73,25,20,19
44,616,115,54,67,25,21,19
44,629,103,53,76,22,20,20
42,566,97,57,74,24,18,20
42,561,116,58,77,23,18,21
48,549,115,56,84,26,20,21
46,529,112,60,85,24,18,21
49,559,113,57,84,26,21,21
48,562,111,56,88,26,22,21
45,563,94,55,89,25,21,20
46,559,91,59,81,25,19,21
47,587,98,54,85,27,20,21
42,510,97,54,81,26,18,20
40,502,96,51,72,25,20,20
48,561,114,53,81,30,20,21
41,529,114,46,75,29,22,22
41,502,103,43,71,26,22,20
47,554,101,48,83,26,23,23
51,581,97,48,86,26,22,23
45,523,98,48,77,23,23,22
46,596,103,54,79,25,22,20
45,579,112,59,80,24,22,22
42,526,118,60,74,27,23,21
38,532,121,63,74,27,22,21
38,523,110,59,74,27,21,22
35,408,99,59,73,25,20,22
37,451,93,56,74,27,20,22
33,465,89,56,70,25,18,23
33,480,108,58,77,27,17,24
29,483,100,61,75,28,18,23
33,559,106,59,80,28,16,23
33,578,112,58,81,29,18,23
40,614,117,53,78,27,18,21
40,580,96,47,71,28,20,22
45,607,104,47,89,26,20,23
44,562,116,44,82,29,22,22
41,493,112,44,79,30,21,21
38,463,110,44,84,30,21,23
38,480,114,47,81,28,20,22
32,520,110,46,65,29,19,22
39,540,99,56,66,28,18,22
40,537,95,56,67,26,19,23
43,543,99,59,65,27,22,21
43,587,98,58,66,25,22,19
44,521,101,61,60,22,23,18
36,503,100,54,62,22,23,19
38,556,97,57,63,22,22,19
43,541,97,63,63,24,21,21
46,540,98,64,73,24,22,21
48,535,107,62,73,28,22,21
48,540,105,60,72,27,23,20
50,499,110,62,76,28,24,21
43,578,102,55,86,27,24,20
42,523,103,53,79,26,24,19
40,533,92,51,79,22,23,20
40,580,101,52,83,22,21,20
40,598,99,46,77,22,21,21
44,581,106,51,65,22,20,22
43,578,110,54,60,24,19,23
43,582,107,53,66,26,19,23
45,518,97,52,69,25,19,22
43,486,99,55,72,25,20,21
41,458,90,46,75,26,22,19
41,464,87,43,81,25,23,19
41,442,83,44,74,24,23,18
51,436,96,44,89,26,25,23
53,497,91,48,96,27,23,24
51,445,97,54,90,27,22,24
50,424,100,61,87,28,19,25
49,483,102,60,87,28,19,25
40,474,98,65,67,27,17,22
37,470,103,60,55,28,19,21
41,498,100,57,57,27,20,22
44,519,108,48,57,26,20,21
47,481,113,49,62,28,21,20
47,515,110,45,68,27,21,20
48,456,101,43,66,26,21,20
45,433,103,39,74,26,20,21
42,493,92,45,79,30,21,21
38,529,88,46,81,29,19,22
39,550,77,47,79,32,20,22
52,567,93,59,81,29,21,22
50,558,88,62,77,29,20,20
49,479,83,62,69,23,20,20
52,475,85,64,63,22,21,19
50,474,90,62,62,18,20,19
38,473,92,60,57,21,19,16
42,551,100,59,58,24,21,19
49,612,109,57,63,27,20,19
48,663,103,54,70,28,19,18
49,637,99,56,67,28,20,20
45,657,87,51,69,26,20,21
49,664,88,62,73,26,19,21
43,624,72,62,74,25,18,20
47,632,84,64,76,26,19,24
45,623,93,62,78,26,18,22
51,600,106,66,81,26,19,27
46,537,100,55,76,23,19,26
45,600,105,56,83,22,20,27
39,509,107,52,78,21,20,25
49,497,104,55,80,22,21,26
46,478,84,48,73,26,20,20
47,463,102,55,71,26,21,20
46,360,100,49,60,27,20,20
53,440,116,52,64,26,18,21
45,459,117,51,67,25,19,22
43,479,122,51,71,21,18,22
49,703,107,51,76,25,17,22
52,722,111,57,78,27,19,22
45,676,93,55,75,27,19,21
46,677,105,52,78,28,19,20
49,679,108,55,78,29,20,19
41,529,110,59,72,28,19,23
44,540,120,59,74,26,17,22
43,536,120,58,72,25,17,22
45,595,113,63,61,26,19,21
42,618,113,59,61,27,20,21
45,543,126,60,64,25,19,18
43,511,125,67,60,27,19,18
58,548,135,69,74,29,20,21
59,492,146,71,81,29,18,23
58,449,144,72,79,29,17,22
59,520,131,64,79,30,20,23
58,516,123,58,79,28,20,22
46,490,105,60,71,28,22,20
43,571,80,54,70,26,22,18
45,581,108,54,71,22,23,19
43,514,117,56,69,23,23,19
42,542,120,52,73,22,25,20
41,526,123,52,84,21,22,21
39,492,133,62,90,26,22,20
36,483,116,61,96,27,22,22
35,506,117,59,101,27,21,20
34,497,113,61,99,27,20,19
35,490,116,62,88,30,19,19
39,476,108,53,86,29,18,20
48,488,102,57,85,29,17,16
49,482,116,56,80,30,19,19
49,465,117,54,79,30,17,20
54,496,114,59,83,27,18,20
54,452,113,55,70,26,19,21
50,459,119,59,66,25,18,23
52,527,102,59,86,24,18,22
55,546,98,58,85,26,21,22
50,556,105,53,88,26,22,23
48,546,117,56,94,24,22,22
43,537,115,45,90,24,24,22
37,478,108,48,67,23,21,21
33,506,106,46,67,21,20,22
39,470,101,42,59,24,21,23
40,475,84,41,53,26,22,22
42,521,82,41,62,27,21,21
46,515,87,43,65,29,22,21
48,537,89,50,74,32,21,20
45,555,80,48,75,31,18,20
43,547,87,51,76,31,23,20
44,527,89,53,73,32,22,21
41,539,85,54,72,33,22,21
40,519,93,57,71,30,23,22
37,530,101,59,74,29,24,21
36,532,100,59,71,26,22,21
36,540,110,60,74,26,21,20
33,572,114,58,72,22,22,20
34,525,109,48,67,22,23,20
34,497,114,46,57,23,22,19
42,603,122,41,70,26,19,21
40,586,108,44,63,26,20,21
41,604,105,42,72,26,19,21
43,606,106,47,69,26,17,21
46,611,94,47,74,27,17,21
39,530,75,47,65,24,19,18
40,584,90,48,72,26,18,20
42,513,98,54,63,27,20,21
42,514,98,66,66,26,24,22
41,548,106,67,65,26,23,23
42,530,125,67,59,29,24,23
46,496,135,65,54,29,25,24
45,503,134,64,59,29,23,24
45,487,136,53,59,28,21,23
46,435,131,55,60,28,22,22
48,427,126,68,67,28,22,23
44,460,108,65,76,26,21,21
43,466,101,63,72,25,22,19
42,497,111,66,73,26,21,19
38,499,116,68,80,27,22,18
35,532,106,59,86,25,19,17
35,458,108,60,79,28,20,18
36,450,115,61,82,29,19,19
37,441,100,52,77,29,18,18
38,443,92,50,80,28,20,19
41,456,89,58,78,30,22,21
42,480,83,58,82,28,20,19
40,473,78,58,80,28,21,18
44,510,75,63,91,28,22,19
45,568,85,59,83,30,20,18
41,536,86,47,75,27,20,17
44,516,95,50,72,25,20,20
46,565,92,54,74,23,24,22
43,543,92,49,65,21,25,22
40,477,86,53,60,21,24,22
44,533,90,54,57,20,23,24
42,528,81,52,60,26,25,23
41,477,88,47,56,28,21,22
40,534,88,46,59,28,21,21
45,529,88,45,60,27,21,22
40,453,81,42,62,28,21,20
39,494,95,41,62,25,19,19
36,498,91,40,61,24,20,21
35,469,110,44,61,26,17,23
42,473,112,42,66,27,16,22
45,488,118,44,64,28,17,22
46,486,120,43,74,27,18,22
47,498,124,48,78,28,20,22
53,506,131,59,78,28,20,21
45,521,125,59,74,28,24,20
43,516,128,63,79,26,24,21
41,489,121,62,72,26,23,23
48,498,118,60,69,26,21,22
40,428,95,44,65,22,22,21
47,406,97,50,65,21,18,23
50,443,103,43,62,22,18,22
50,438,104,50,54,24,18,23
47,409,102,51,54,25,18,21
50,646,102,56,90,29,19,23
50,724,114,51,92,31,20,23
48,709,104,55,95,33,20,22
49,787,101,55,98,34,20,20
54,820,111,56,109,34,19,23
57,678,123,57,90,32,18,23
51,618,115,59,89,30,18,22
51,629,135,60,89,29,18,22
51,574,135,61,86,27,19,21
42,574,128,64,73,25,22,20
38,646,120,59,69,25,21,19
41,653,123,65,73,24,21,20
41,643,97,71,67,25,20,20
41,627,98,73,68,22,22,21
42,613,107,66,69,26,21,22
40,610,106,65,69,28,21,20
39,623,106,60,72,28,22,21
38,632,111,54,74,27,21,22
36,610,108,49,72,29,19,22
42,636,123,53,80,26,18,24
44,664,128,54,85,27,19,25
46,667,129,57,82,28,19,23
47,687,133,55,86,28,20,22
52,713,133,55,88,26,21,23
46,691,107,53,81,27,19,21
54,647,104,55,112,29,19,20
57,620,101,49,164,27,18,20
62,565,97,48,165,29,17,20
65,519,106,45,168,31,15,18
69,483,107,45,174,29,17,16
69,345,112,41,157,23,16,15
65,279,104,42,108,23,18,13
62,255,110,45,125,24,21,14
56,208,103,50,127,34,31,18
51,164,105,54,117,44,36,20
46,183,97,65,113,50,38,22
54,201,106,66,106,54,40,24
50,279,109,72,87,55,39,25
50,371,103,71,81,51,33,23
56,472,113,70,88,45,27,23
53,496,112,61,89,42,23,22
45,510,104,65,88,36,19,22
46,506,90,53,78,34,17,21
43,461,97,54,74,31,17,21
43,360,90,57,73,30,17,23
41,306,91,56,70,29,19,23
42,268,93,54,76,30,17,24
42,210,92,52,86,28,18,24
48,171,99,53,87,30,17,24
39,131,106,51,84,30,17,20
50,111,107,53,82,28,18,24
50,105,104,51,78,31,20,24
50,72,112,52,69,40,28,28
52,48,103,58,81,40,30,33
52,37,96,57,84,42,31,34
46,26,97,56,90,42,32,32
44,24,110,60,88,40,33,30
45,16,114,62,96,31,26,27
43,85,139,53,98,30,24,21
67,350,137,59,185,33,24,20
74,673,134,58,208,33,21,20
75,823,128,57,219,31,18,21
79,1003,125,56,222,34,20,21
79,1071,96,57,224,36,22,19
64,1091,94,51,162,31,20,20
54,985,91,50,131,31,20,19
54,905,91,50,113,32,22,20
48,738,77,48,104,31,20,19
41,664,75,48,84,27,19,19
36,561,83,52,72,26,21,17
34,492,89,53,64,26,23,18
31,446,92,50,61,25,22,17
30,417,92,54,50,24,22,18
35,405,95,53,50,23,20,19
35,397,97,50,54,23,19,20
34,377,94,51,51,26,16,19
34,369,97,52,57,28,16,19
35,367,103,50,57,28,19,19
31,350,102,48,59,28,21,18
33,332,93,44,59,29,21,18
35,342,96,47,59,27,21,17
34,360,84,43,52,26,22,18
36,365,79,43,55,26,21,17
37,373,81,43,51,29,21,17
38,510,92,49,86,29,22,14
56,849,99,47,141,32,22,16
62,1009,110,48,151,34,21,14
68,1098,119,48,163,35,21,14
68,1109,117,49,172,35,19,15
67,1086,122,47,159,34,20,17
56,866,114,49,116,33,20,17
52,678,103,53,109,29,21,19
43,512,89,57,88,28,20,19
43,473,90,56,70,29,21,19
48,399,93,64,66,28,20,19
45,342,92,64,63,27,21,18
43,321,92,65,57,29,19,19
43,320,96,67,59,31,23,19
41,363,95,66,61,29,23,20
34,381,84,55,57,32,22,18
31,375,84,55,53,31,22,19
29,368,86,50,48,29,23,18
31,374,95,44,47,28,21,18
32,346,104,42,44,29,20,18
33,329,93,43,44,26,21,21
34,332,91,42,46,26,20,21
35,319,94,48,51,27,20,21
39,520,93,47,78,29,20,21
45,893,82,51,101,32,20,23
62,988,104,60,130,49,27,23
65,1073,117,70,166,54,32,23
71,1183,116,69,186,55,30,23
71,1157,109,71,190,54,31,24
69,936,114,75,184,52,30,22
55,842,113,69,168,37,24,20
50,751,104,72,141,27,18,20
38,564,102,72,112,31,19,20
35,451,115,74,89,30,20,19
34,367,112,71,83,31,20,18
36,344,98,69,75,31,20,20
37,294,115,71,69,33,22,20
39,299,111,70,91,31,22,20
42,312,110,67,91,32,21,20
39,319,112,68,87,32,22,21
39,311,113,73,89,32,24,21
37,330,94,58,80,33,23,20
40,332,114,57,58,32,23,19
35,330,105,56,53,31,23,19
38,321,105,53,54,32,23,17
40,364,109,48,51,32,21,18
40,342,107,47,48,31,21,18
44,542,90,55,79,29,21,18
48,814,113,56,110,29,22,19
50,873,118,54,141,32,21,23
49,872,121,55,159,32,19,24
53,915,126,57,174,33,18,24
52,841,127,50,178,34,17,25
47,636,111,46,165,36,15,27
46,563,101,47,140,33,16,24
43,547,85,48,122,32,17,24
38,483,83,49,109,29,17,23
30,439,95,50,78,29,18,22
30,362,92,55,73,25,18,21
27,354,92,58,73,25,19,20
28,356,93,57,69,25,21,19
29,360,100,59,64,28,23,23
33,350,114,58,64,29,23,22
35,375,108,53,59,28,25,21
35,370,119,50,61,27,24,22
35,378,131,64,63,30,23,23
34,392,131,60,59,27,21,20
34,387,107,62,57,23,20,21
37,538,114,66,92,23,19,21
54,769,110,69,134,34,21,22
58,911,101,51,143,32,19,20
65,956,93,55,147,32,21,21
64,975,109,56,148,35,21,20
64,916,102,55,134,36,21,20
52,776,108,54,91,30,20,19
48,633,103,56,85,28,22,20
38,568,100,62,77,30,22,19
38,557,83,61,74,28,22,20
34,526,103,67,69,26,22,21
32,476,105,69,67,26,22,21
32,443,103,68,53,28,22,21
37,449,108,71,51,28,20,20
37,448,120,73,53,28,20,21
35,441,127,70,47,30,19,20
33,431,114,64,46,28,21,17
38,433,120,73,55,27,21,17
38,420,119,66,63,24,21,17
42,425,104,64,62,23,21,20
43,439,79,57,62,24,22,19
51,621,81,59,107,25,20,19
62,868,94,54,134,25,21,20
63,1000,103,58,141,29,21,20
63,1058,104,57,145,30,21,19
64,1079,112,62,150,30,21,19
60,1014,114,63,127,31,20,20
47,850,96,63,99,32,20,19
55,729,122,71,88,30,21,20
57,645,131,71,86,30,22,20
55,611,124,69,79,28,21,19
58,587,148,73,79,31,22,20
61,554,155,70,73,32,22,22
50,517,131,57,66,31,21,21
43,509,130,61,56,31,21,22
42,522,136,65,57,32,20,22
37,649,108,61,85,28,19,21
45,856,100,64,122,30,20,19
47,955,102,63,128,31,20,20
48,1004,97,59,130,32,19,21
55,1029,86,54,132,34,19,21
54,945,95,51,112,32,20,21
52,753,127,50,74,30,18,22
55,676,128,48,68,31,17,20
56,621,124,46,71,31,19,19
52,601,128,49,72,29,19,20
51,637,127,52,79,30,19,22
47,667,115,66,82,29,20,23
46,637,107,66,87,26,20,25
43,664,107,65,85,26,18,25
43,731,101,65,87,25,18,23
43,723,98,66,80,26,19,21
40,704,81,54,76,26,19,19
33,684,85,51,70,27,19,18
37,673,112,53,86,26,21,16
34,566,114,46,82,27,22,17
39,647,106,51,97,26,22,18
44,659,105,47,105,26,21,18
49,649,110,49,105,26,21,18
47,616,90,51,93,27,21,18
50,609,102,54,92,26,19,18
48,512,109,47,77,27,22,18
47,567,101,46,80,28,22,20
46,575,115,45,84,27,23,21
44,576,120,42,83,25,22,21
43,579,115,42,80,26,22,20
40,596,111,48,79,26,20,18
42,594,131,52,78,26,20,17
42,601,114,53,76,24,20,20
43,636,102,56,84,28,20,20
45,613,102,55,87,28,20,22
45,595,110,49,88,28,20,24
42,566,88,45,81,28,19,23
40,599,89,43,82,30,19,21
39,612,97,47,79,28,19,21
39,682,87,47,81,28,22,20
45,654,89,51,80,26,20,19
45,664,101,50,79,25,21,19
45,719,104,51,78,24,20,17
47,674,105,43,86,23,20,17
46,635,116,52,92,24,19,18
44,665,110,58,94,24,20,20
48,631,107,59,94,26,20,20
51,577,116,68,97,26,20,21
51,696,116,68,94,26,20,22
52,698,110,62,88,25,19,21
54,682,118,53,91,28,20,20
50,664,130,55,92,26,21,23
48,636,130,52,87,25,20,22
51,522,143,52,89,26,20,22
53,593,143,49,91,26,20,22
50,635,137,54,97,26,20,24
48,639,124,53,94,25,19,23
47,616,133,52,92,25,20,24
48,702,127,57,93,24,21,23
54,703,123,61,100,24,22,22
57,688,126,60,96,26,22,20
60,710,132,61,99,26,20,19
60,712,109,58,98,28,22,20
55,621,91,51,88,26,22,19
46,534,113,50,70,26,21,20
45,588,120,49,71,23,22,19
43,576,107,44,77,24,22,19
42,583,115,48,78,24,22,19
44,567,123,55,79,26,22,20
43,577,104,52,79,28,21,19
42,601,102,65,80,28,21,19
38,599,110,68,75,28,21,20
38,606,113,66,74,30,22,18
35,617,107,63,78,29,20,16
37,587,107,65,81,30,20,16
42,525,97,54,76,31,19,15
54,618,104,53,84,30,18,16
54,636,94,56,84,29,16,18
58,668,91,58,80,29,17,20
57,691,96,55,78,29,18,21
53,680,93,51,75,27,19,21
41,665,77,51,65,28,21,20
44,649,78,51,67,25,21,23
41,617,82,47,67,26,21,21
43,614,84,54,69,25,21,21
38,581,86,55,68,26,22,22
41,522,99,58,64,24,21,22
38,541,95,53,67,22,23,18
39,617,99,53,81,22,24,19
40,638,106,50,85,23,24,18
44,650,110,52,89,23,23,17
50,615,126,55,94,24,22,20
52,598,129,54,95,25,20,20
52,593,125,54,90,26,18,22
48,600,116,52,84,26,18,21
46,609,130,48,83,25,18,22
37,619,106,35,78,26,19,20
34,613,111,43,72,26,19,22
34,649,109,40,72,29,20,17
36,641,119,49,69,27,20,18
44,654,107,53,67,27,20,18
42,661,113,56,67,25,19,18
41,642,106,51,67,28,19,20
45,552,111,54,62,26,19,20
47,621,102,53,74,28,20,22
42,638,94,49,80,28,19,23
44,667,84,50,83,30,20,22
45,713,90,52,88,30,21,20
39,695,86,49,86,27,20,20
42,691,112,51,84,26,19,19
42,679,115,52,81,30,20,19
44,674,121,59,79,27,19,20
42,678,115,55,72,24,20,18
48,699,113,69,77,26,21,22
42,614,84,66,72,27,21,22
42,653,78,71,69,22,21,21
44,746,73,63,76,24,20,21
49,745,86,67,80,25,20,22
44,713,87,59,78,25,18,19
49,751,87,58,79,28,18,19
49,686,91,57,79,29,18,20
43,537,93,57,71,29,17,20
38,490,97,57,68,28,18,19
39,484,96,52,64,27,20,20
34,455,110,50,62,23,20,19
35,440,109,49,63,25,21,19
37,424,106,53,65,24,22,21
37,390,93,50,64,25,22,21
36,439,115,55,63,23,21,22
37,455,101,54,67,22,21,22
35,473,101,57,73,20,19,22
37,478,103,58,69,21,19,22
36,489,108,58,69,23,17,22
41,534,88,54,69,24,18,22
45,494,110,54,70,24,17,23
44,500,106,45,64,23,18,23
45,590,112,42,72,26,20,22
46,620,112,39,74,24,20,23
45,609,109,42,80,24,20,21
39,618,85,45,76,25,20,18
41,600,90,52,77,25,20,19
37,561,100,60,68,23,19,20
39,602,96,61,70,24,20,20
38,553,105,57,62,23,21,20
41,532,105,59,59,24,20,22
42,574,128,57,53,24,21,21
42,530,129,52,56,23,21,21
40,434,127,55,51,23,21,22
41,474,129,60,67,27,21,23
41,469,129,56,71,26,21,22
40,402,110,57,73,28,22,24
44,399,98,58,82,30,22,24
45,464,99,60,89,31,22,24
45,414,90,59,83,29,21,22
43,455,106,69,81,31,20,22
41,462,98,66,82,31,20,21
36,501,90,62,75,29,20,20
34,443,94,64,69,27,19,21
36,448,94,62,63,26,19,21
37,443,77,52,68,26,19,21
47,438,91,58,67,23,17,24
51,422,121,58,67,28,16,23
53,457,126,49,60,29,16,22
50,450,125,46,67,28,16,24
53,557,138,43,68,29,17,25
50,619,134,39,71,33,16,21
47,613,108,41,67,31,19,22
48,622,113,44,72,32,18,23
47,688,118,44,66,34,20,20
52,638,100,59,72,32,21,21
49,610,93,58,70,31,22,20
50,604,95,56,75,31,21,20
52,632,82,64,77,35,22,19
54,613,76,63,80,34,21,21
46,619,76,49,71,36,21,20
51,623,88,52,70,36,20,22
50,650,87,54,68,34,20,21
42,608,84,43,61,27,20,21
42,605,97,54,59,27,19,20
53,609,111,60,77,27,18,21
48,639,103,60,79,25,18,19
51,659,104,58,85,27,20,20
55,718,108,66,87,27,19,20
54,715,96,62,95,30,19,21
48,721,78,62,85,36,18,19
46,721,86,64,86,39,19,20
45,709,93,65,85,38,19,19
43,659,91,57,91,39,21,20
42,689,97,53,81,37,21,20
41,673,99,49,89,32,23,20
45,634,112,58,106,41,30,23
45,593,108,61,122,55,37,23
45,595,119,71,133,61,39,25
50,599,115,71,138,68,40,26
47,704,125,74,133,71,42,27
42,834,107,65,125,71,37,27
40,857,106,69,122,64,30,28
38,839,92,61,104,62,24,25
30,780,94,60,101,55,22,25
36,633,87,59,100,47,18,24
37,412,103,59,91,44,16,23
42,324,112,51,78,44,16,24
40,273,110,46,88,40,17,25
51,217,112,56,92,45,16,25
49,183,116,54,91,47,15,25
55,132,111,51,97,41,15,25
54,96,102,51,90,37,14,23
57,69,98,51,80,34,15,24
55,62,93,44,72,25,18,25
52,49,99,51,71,22,19,26
47,35,93,52,70,25,21,26
44,21,90,51,72,25,22,26
42,15,97,55,75,26,23,24
35,13,104,52,77,27,20,21
40,62,90,51,82,25,20,21
41,175,99,51,84,32,18,19
43,216,113,57,80,37,17,19
42,346,117,55,81,36,16,19
47,468,115,55,83,36,16,19
47,551,118,48,87,36,17,18
49,589,112,54,89,29,20,19
46,612,99,51,91,25,20,18
49,566,90,55,87,26,24,19
50,507,92,59,91,28,26,19
51,436,83,62,92,29,28,18
49,363,95,71,87,31,27,19
50,311,94,73,88,34,29,18
48,289,100,71,88,39,27,19
64,392,109,76,177,47,33,22
66,540,119,78,181,46,30,23
73,649,115,81,212,47,31,23
79,821,116,79,222,46,28,23
82,898,129,85,226,42,29,22
67,881,120,82,165,32,21,19
61,831,111,78,155,32,22,19
53,778,108,69,106,32,21,18
43,621,108,67,80,29,23,18
43,540,102,62,76,28,22,21
42,508,94,60,67,29,22,21
42,485,95,60,66,30,23,21
40,476,90,53,67,28,23,21
42,467,88,57,68,27,22,21
35,453,92,59,61,28,23,18
35,457,97,56,60,27,22,17
39,583,97,67,84,26,22,16
46,846,96,71,116,29,22,17
46,948,105,70,127,30,22,16
47,993,89,64,129,35,22,17
51,1010,93,63,138,37,23,17
50,994,122,51,134,40,23,18
50,826,124,44,113,39,21,18
50,761,124,40,104,38,23,19
49,773,128,43,111,34,22,19
43,768,123,45,102,31,20,19
47,750,101,50,111,27,20,20
59,852,103,51,127,30,20,21
62,874,94,52,133,30,17,20
61,901,87,53,125,27,19,20
64,900,98,51,127,27,19,23
61,859,114,55,116,28,19,23
46,710,109,54,101,22,18,23
44,681,120,56,90,23,20,25
45,593,121,55,95,26,21,24
44,653,110,57,97,31,21,23
45,674,97,52,90,31,23,22
49,679,103,51,84,33,24,20
48,624,96,50,88,34,23,20
50,653,92,48,84,32,21,21
54,654,105,49,89,30,20,19
52,642,96,46,89,31,20,18
50,650,92,47,89,30,19,21
48,636,91,44,79,27,20,20
46,590,98,45,75,26,20,20
41,541,95,42,71,24,21,20
43,599,97,45,76,23,21,20
42,602,100,45,78,23,21,21
42,616,96,46,81,24,21,22
43,599,92,50,87,24,21,23
44,601,90,54,83,24,20,24
41,585,83,51,83,26,20,22
40,580,85,53,76,26,21,22
42,583,95,51,78,26,21,21
47,595,111,50,69,26,19,19
45,575,106,43,64,27,19,17
50,563,107,46,59,24,22,20
52,631,103,41,72,25,21,18
57,660,102,45,70,25,22,20
52,677,83,40,74,26,23,21
56,664,112,53,87,27,23,24
51,677,120,73,90,30,22,24
48,618,130,82,79,31,24,25
44,669,125,80,92,31,22,24
46,672,123,82,103,32,22,24
43,674,98,78,96,31,22,22
43,618,100,58,91,30,21,22
42,638,85,52,94,29,21,22
41,620,82,53,88,29,22,20
41,623,84,58,78,28,21,20
41,629,88,57,77,27,22,18
49,635,90,66,86,27,22,18
48,607,103,62,83,27,21,17
45,532,111,64,78,26,21,18
45,598,112,57,84,26,22,17
51,600,108,59,86,27,24,19
49,607,99,53,90,36,23,18
50,619,87,57,91,36,23,19
53,635,76,54,100,36,23,19
55,636,74,53,104,38,22,21
47,642,78,52,103,38,18,23
44,650,73,48,95,29,20,23
45,649,71,41,93,27,21,23
45,625,77,42,80,26,21,23
40,570,86,48,60,24,21,22
43,600,88,51,59,25,21,20
47,684,95,54,62,27,20,19
50,703,107,57,70,27,19,19
53,708,101,56,74,30,19,20
57,706,111,57,78,29,21,21
56,752,110,52,85,29,21,19
50,671,103,48,82,29,22,21
47,627,93,49,77,28,22,21
41,635,99,52,83,27,22,21
36,616,84,44,82,26,21,20
33,550,76,47,71,27,20,21
38,605,85,47,79,29,20,23
38,617,94,46,81,29,19,23
40,619,92,52,79,42,20,22
39,610,86,54,79,43,18,22
41,563,89,52,79,42,20,22
40,558,86,55,79,40,21,20
41,567,83,64,77,40,22,20
38,606,96,63,74,27,20,20
46,637,110,67,79,24,22,24
43,643,112,68,82,25,21,23
43,626,110,70,81,26,20,22
41,629,108,60,80,27,19,21
51,670,99,62,91,27,20,24
43,679,86,60,87,28,20,22
45,699,87,63,90,28,18,21
45,662,96,59,82,26,18,22
47,656,113,64,81,26,17,23
37,657,115,59,70,26,20,22
37,644,115,57,82,25,19,20
36,648,120,53,80,24,20,23
34,666,122,57,81,25,21,24
32,647,106,49,83,24,23,23
35,678,106,51,81,23,21,22
37,683,115,59,68,24,21,25
40,647,111,61,60,24,20,22
39,640,103,63,58,26,19,23
43,629,99,62,58,26,20,24
43,496,95,58,56,26,21,24
47,555,93,52,73,25,20,20
46,624,92,52,77,27,20,21
45,629,86,42,82,25,20,19
42,671,86,49,79,27,19,18
40,656,82,52,77,27,18,18
40,643,101,53,64,28,19,19
41,604,107,54,73,27,19,19
41,597,107,55,69,28,20,20
46,602,113,53,76,26,23,20
45,658,122,53,77,25,22,20
40,601,100,53,75,25,23,20
39,622,99,50,66,28,22,20
44,685,104,50,76,29,23,19
42,696,95,54,79,30,21,19
43,691,101,55,86,29,22,19
45,690,111,61,89,29,22,20
48,687,108,63,97,25,22,21
47,648,105,69,90,33,19,21
47,663,108,67,87,42,20,21
56,673,96,66,87,44,19,21
58,672,86,65,88,46,20,20
56,669,79,72,79,46,20,20
52,630,83,70,79,41,21,20
57,563,97,68,73,36,21,20
46,490,97,67,62,39,22,21
40,479,99,62,56,38,21,20
44,466,125,50,59,38,19,20
45,466,122,46,60,43,20,20
47,471,130,44,59,50,20,22
48,501,127,43,57,51,20,21
54,550,128,52,61,50,21,22
48,507,102,57,52,50,22,22
49,510,103,57,49,44,22,21
45,508,83,59,58,32,22,19
45,489,82,63,62,26,22,20
39,507,82,54,63,27,21,19
42,500,95,54,71,27,19,19
42,496,94,61,75,27,21,20
36,520,92,58,68,27,20,18
39,560,99,60,78,27,21,20
39,467,91,64,82,27,22,20
35,471,78,59,80,30,22,19
42,507,99,53,80,34,21,18
41,466,94,54,81,33,20,19
44,398,90,53,77,31,19,19
50,463,94,48,78,30,18,20
51,469,105,57,84,28,20,21
44,438,93,58,81,28,21,22
48,485,102,58,90,29,22,21
43,504,102,59,89,32,22,20
35,459,103,59,81,32,23,19
43,477,95,58,80,32,23,18
44,464,91,57,80,29,20,19
48,470,87,63,78,28,20,20
48,475,93,61,75,29,20,21
49,480,89,62,75,29,19,20
48,475,98,61,70,27,20,22
48,482,96,60,69,29,19,23
45,492,97,55,67,36,19,22
46,510,91,54,68,32,18,22
44,506,89,59,66,36,21,23
42,545,88,58,66,40,19,21
40,573,88,58,73,38,19,19
44,518,98,53,65,31,19,19
43,495,102,55,60,31,20,18
55,536,101,51,83,30,18,19
53,495,102,53,82,30,19,18
55,514,113,51,77,30,18,20
48,524,98,51,79,30,19,22
51,515,110,47,81,35,19,22
40,489,136,48,62,34,19,20
40,535,133,41,62,32,19,22
51,476,131,51,67,34,21,22
52,466,133,61,65,36,21,20
51,487,124,63,67,30,20,20
52,450,96,64,63,29,21,22
52,357,93,65,60,28,21,19
49,392,95,64,55,27,21,18
52,410,94,55,62,26,20,18
52,527,92,54,80,28,23,20
51,583,90,55,85,38,21,20
51,668,94,55,91,46,21,21
45,707,85,50,91,45,19,21
44,765,90,54,88,45,19,21
41,699,84,53,70,46,16,19
41,675,96,50,65,39,17,20
44,677,93,47,66,26,18,18
39,631,105,45,66,28,19,17
38,571,102,44,74,32,20,17
37,574,111,45,76,29,22,17
44,577,124,45,75,29,22,16
41,494,131,57,71,30,22,19
43,579,116,58,74,45,22,21
42,590,120,59,65,60,20,22
47,593,127,61,65,63,19,23
40,651,112,63,68,64,17,22
44,690,100,58,77,68,17,21
45,649,102,55,72,58,17,18
47,647,110,56,74,41,17,19
46,654,103,54,79,41,18,19
56,613,107,69,87,41,20,19
58,610,106,67,86,37,20,19
56,606,111,77,85,37,20,20
62,593,99,78,85,36,21,20
62,643,87,79,97,33,21,20
58,639,106,74,110,36,25,19
56,597,110,76,117,50,33,21
56,561,108,68,123,59,37,20
58,595,132,82,142,64,40,23
62,619,142,82,143,69,42,23
56,693,125,75,132,72,40,25
55,767,122,73,129,61,33,24
55,769,122,72,131,54,28,24
55,722,103,52,111,47,23,23
47,619,104,53,93,38,20,24
52,487,115,50,90,28,17,23
48,326,117,49,84,28,17,23
52,267,118,54,77,25,15,24
44,242,108,59,83,24,16,24
46,190,106,55,87,23,16,24
47,148,94,55,88,20,16,25
48,108,94,56,81,19,18,26
45,89,88,54,83,19,20,25
45,77,96,48,82,20,20,24
46,53,110,48,84,23,22,24
41,38,111,48,84,25,25,25
45,25,109,52,87,27,26,24
47,19,118,49,80,28,26,24
45,17,114,47,78,28,25,24
43,11,96,48,74,26,22,23
43,85,93,46,70,26,19,20
46,117,101,41,70,24,18,20
55,284,112,47,81,26,17,19
57,388,113,47,94,25,18,21
57,495,116,50,93,23,18,21
62,546,132,67,96,24,19,22
58,656,134,67,100,30,18,21
49,631,124,63,96,28,18,19
51,588,124,65,81,29,21,19
48,514,123,62,79,31,22,18
38,461,116,49,77,32,23,17
37,284,112,46,70,32,25,17
37,229,106,50,65,38,27,16
36,211,108,56,81,43,31,14
50,484,110,67,164,51,34,17
56,678,98,66,188,49,33,19
63,784,98,68,213,48,31,19
63,868,99,67,219,50,30,21
59,908,117,65,215,45,22,22
51,839,115,62,162,43,19,20
43,714,115,61,132,43,20,20
31,624,116,60,87,41,19,20
36,546,114,61,66,35,20,19
45,499,107,61,63,38,20,20
46,443,111,54,57,30,19,20
47,451,106,59,57,32,19,21
52,432,103,63,55,31,20,21
48,397,102,61,55,29,21,20
45,405,100,64,54,26,22,19
42,413,91,64,51,27,22,19
43,391,96,56,51,26,22,17
39,420,97,54,61,32,22,15
39,440,96,53,62,33,23,17
49,451,147,52,68,37,23,20
49,451,152,49,70,37,22,21
52,609,152,50,104,37,23,22
56,834,155,52,134,36,24,23
59,929,166,54,136,36,21,23
61,973,124,65,160,34,20,22
68,1044,118,69,189,39,21,21
74,1031,116,76,196,39,19,22
72,892,109,73,177,36,19,21
70,807,116,70,177,37,19,20
62,765,120,53,155,34,21,18
55,682,120,51,120,30,20,20
43,589,119,38,78,29,19,19
42,533,120,41,71,28,20,20
49,518,107,50,73,28,21,21
44,495,83,54,65,29,19,21
43,479,84,56,58,26,21,20
44,641,92,59,85,25,21,21
52,847,131,63,103,31,24,22
46,936,129,62,108,32,23,19
57,994,138,62,118,34,25,19
56,1020,136,64,121,34,23,20
57,925,138,61,105,36,23,20
48,738,109,56,85,31,19,19
48,662,106,58,85,28,19,20
36,611,102,54,73,32,19,20
37,607,102,50,70,32,21,18
35,637,95,50,75,31,21,18
35,659,88,50,77,32,22,17
36,636,84,44,71,35,21,17
48,627,87,47,80,30,20,19
48,662,92,54,92,31,18,18
51,642,90,52,94,32,18,18
51,666,84,54,93,34,18,19
54,628,91,51,93,30,18,19
45,631,83,53,89,31,19,16
53,605,92,54,83,30,18,19
50,665,91,56,77,31,19,19
55,623,97,54,86,28,18,20
50,632,91,56,85,38,19,20
51,589,96,56,81,39,20,23
42,572,79,48,74,38,22,21
46,494,83,49,77,37,24,22
47,552,81,54,70,37,24,23
49,568,85,53,75,27,25,22
47,579,81,49,79,29,23,21
45,560,86,49,79,28,22,22
42,580,84,50,77,29,21,24
40,588,90,47,80,28,22,23
38,597,87,46,76,27,21,24
41,604,85,48,77,24,23,23
43,602,86,48,78,25,23,22
44,615,84,54,77,24,21,19
38,571,76,53,71,24,21,18
40,656,73,52,79,24,21,17
44,689,116,60,78,27,21,17
43,701,117,59,78,32,20,16
49,687,128,62,79,32,19,18
50,694,130,61,80,34,19,19
51,654,134,66,66,36,19,19
55,614,114,71,62,36,18,19
57,604,121,72,61,34,20,21
50,572,112,72,69,34,22,22
53,542,127,77,82,35,21,24
51,470,127,73,85,32,22,25
42,594,110,67,103,31,21,24
44,598,105,71,110,34,22,24
44,610,101,62,103,33,22,23
42,623,86,62,97,30,21,21
40,639,81,65,94,36,20,21
39,557,100,64,78,37,20,23
37,596,101,66,75,31,20,22
43,616,105,66,83,32,19,23
43,609,99,61,76,32,21,23
44,571,102,62,77,27,21,24
45,580,84,62,79,26,21,22
45,633,84,62,90,27,20,21
41,618,87,64,88,25,22,22
39,651,89,66,89,26,21,22
44,670,88,69,88,24,20,22
43,632,86,62,83,24,20,22
49,567,81,57,65,29,21,22
52,636,76,56,70,29,19,21
57,640,81,61,73,28,20,22
52,653,78,52,74,28,21,22
51,643,89,52,75,27,20,22
54,631,92,58,81,26,19,22
53,604,89,58,75,27,20,22
54,558,96,49,79,30,20,23
54,559,96,50,82,30,18,23
60,578,92,52,86,33,19,25
51,537,88,46,81,29,18,25
51,504,92,43,85,29,19,24
44,494,79,45,77,28,19,23
48,571,75,46,83,27,19,23
45,580,69,47,85,24,21,21
47,580,89,50,80,28,21,22
45,552,90,52,79,29,20,23
47,617,97,52,81,28,19,21
48,538,100,53,76,30,20,22
45,538,101,50,74,30,19,21
45,572,91,47,80,28,20,21
48,572,88,45,75,27,21,19
48,527,77,47,81,26,21,19
48,595,82,45,85,33,19,19
48,602,84,42,82,33,19,20
51,587,90,52,85,31,17,20
49,604,92,52,83,33,16,20
46,579,99,52,77,33,17,20
44,524,97,55,73,24,18,20
42,599,97,59,75,30,18,20
40,613,91,51,69,30,20,21
44,640,91,51,71,29,19,20
45,654,85,53,77,29,19,19
47,626,82,52,77,28,20,21
48,630,88,50,82,22,20,19
52,628,100,49,88,27,19,21
48,594,98,53,87,26,19,21
53,590,105,50,81,26,19,23
50,586,107,53,80,27,18,22
48,516,101,53,69,26,20,24
43,573,103,57,68,25,19,22
42,593,111,59,66,28,19,22
36,599,107,55,66,29,19,20
37,629,115,55,66,30,19,20
38,591,116,57,70,31,17,19
39,588,99,53,71,28,16,18
43,593,92,48,75,28,19,20
45,601,98,54,77,29,19,20
43,633,94,49,74,27,20,21
45,662,95,47,71,27,21,22
43,603,90,46,63,26,22,21
41,613,88,50,63,25,20,20
50,723,87,45,95,24,21,22
51,722,82,46,100,27,20,21
51,720,83,53,100,25,21,20
50,729,87,51,102,25,21,20
54,686,103,58,100,25,22,21
45,569,98,60,64,23,22,18
47,552,99,63,59,21,22,20
47,533,99,56,56,24,20,20
53,564,107,60,56,26,21,21
50,571,112,49,58,24,21,20
51,552,113,47,63,26,22,21
51,518,122,54,66,24,21,19
50,515,118,56,68,25,24,20
43,510,112,52,72,23,23,19
42,501,105,53,75,31,23,20
42,497,102,53,70,30,22,19
37,508,90,47,67,32,22,20
41,567,95,51,70,31,18,20
40,491,104,57,60,31,18,21
39,481,98,57,55,24,19,23
39,500,101,57,70,25,18,24
37,463,105,53,71,21,19,25
33,415,106,47,70,21,19,24
37,429,107,44,68,24,18,24
38,434,95,45,68,23,15,21
35,403,95,44,55,24,16,19
40,474,96,48,55,25,15,18
43,426,96,51,54,24,14,19
40,409,82,48,56,23,14,19
40,495,90,47,57,24,17,18
42,517,104,51,58,24,17,19
41,510,104,50,65,25,19,20
37,521,107,48,64,26,20,21
40,531,107,51,66,25,21,22
37,465,104,49,67,34,20,23
36,467,100,49,67,32,20,24
32,474,97,47,57,32,20,23
31,483,90,49,56,32,20,21
36,468,91,48,57,34,19,22
36,493,88,52,53,27,21,22
36,501,69,48,58,28,22,22
41,442,75,55,61,29,21,22
41,439,79,54,64,28,20,22
34,505,82,53,68,25,21,21
38,494,89,51,69,25,21,21
52,495,102,57,79,26,20,22
50,522,92,52,77,24,19,21
50,514,94,53,73,23,20,20
51,485,99,53,71,25,20,20
50,533,104,55,72,25,19,21
33,501,94,51,57,25,19,18
41,480,110,58,62,29,20,19
41,579,103,56,73,30,18,20
41,571,99,54,67,32,19,21
42,495,90,53,67,34,19,19
43,553,93,51,68,35,21,20
38,538,94,41,66,31,19,20
37,433,99,37,55,31,23,21
39,413,106,49,58,27,22,19
38,485,106,50,64,26,23,20
41,453,112,52,73,23,23,21
39,526,111,58,78,26,24,20
42,520,110,64,78,24,21,19
40,602,102,54,83,27,21,20
43,560,111,54,82,25,22,23
41,520,117,61,72,24,21,22
40,457,108,67,65,22,20,24
35,453,106,62,65,22,20,24
39,448,109,66,64,20,19,25
33,443,103,66,58,21,17,21
34,474,101,61,62,22,15,22
35,476,97,50,66,24,16,21
42,551,103,51,70,25,15,21
39,484,98,56,65,26,15,19
41,479,93,58,68,26,15,22
41,478,84,55,68,25,16,21
44,498,86,59,65,26,19,22
40,461,98,60,72,26,19,21
40,472,100,54,74,26,20,21
41,478,102,49,70,27,21,19
40,481,93,50,67,27,22,18
38,507,99,45,67,29,20,21
38,465,82,42,57,27,21,22
42,458,82,42,54,27,21,21
39,490,87,43,62,25,20,22
44,494,91,42,66,26,21,22
44,438,85,51,68,35,21,19
45,504,85,52,71,44,20,17
47,548,85,62,70,47,20,18
48,620,84,63,75,51,20,19
46,737,82,67,73,52,22,19
44,755,86,61,75,45,21,21
46,713,88,60,74,36,24,22
40,690,87,52,79,34,23,21
38,598,82,48,69,30,24,22
37,494,86,49,72,29,22,22
36,483,80,55,68,28,21,20
33,494,75,55,67,30,19,19
42,482,81,56,72,28,19,19
44,488,87,58,73,30,18,18
48,474,89,52,69,28,17,18
47,478,87,46,71,30,17,17
54,485,103,66,74,32,16,18
49,479,96,62,64,33,19,18
52,513,89,70,68,31,18,19
46,475,84,72,74,32,20,19
62,463,92,77,77,34,22,22
57,509,76,62,76,29,22,22
63,507,82,71,78,31,20,25
60,504,81,62,80,30,20,24
61,492,79,59,76,28,20,25
49,496,76,53,74,27,16,23
53,437,87,56,74,31,19,23
46,459,79,54,71,32,19,19
44,422,77,58,66,31,21,19
45,428,82,58,63,32,21,19
43,457,81,62,58,30,21,19
37,465,67,62,53,27,20,20
37,486,69,57,59,24,21,20
39,508,73,57,56,25,19,20
37,503,69,56,57,24,18,20
37,466,71,56,59,26,19,21
37,474,86,54,60,25,19,21
39,477,88,52,58,23,19,20
39,453,88,53,63,23,20,21
39,459,86,53,63,25,19,20
42,506,98,48,62,23,19,19
40,525,86,49,62,25,19,20
43,466,95,51,62,26,20,22
44,475,95,46,57,25,19,22
55,503,109,66,74,47,21,22
56,475,94,65,74,48,21,22
62,495,97,72,82,49,21,21
57,497,87,73,80,49,22,19
64,506,94,87,84,50,23,20
55,491,86,74,79,30,22,20
51,542,88,78,85,29,23,20
45,479,82,73,75,26,24,19
50,473,100,76,79,25,23,23
41,478,92,59,80,25,23,21
40,454,84,60,68,24,21,21
41,365,86,56,59,22,20,22
42,395,96,54,63,22,20,22
37,400,91,48,62,22,19,20
37,363,89,51,54,22,18,20
41,369,97,51,54,22,19,20
43,437,97,51,57,26,20,19
42,435,92,55,61,27,20,19
41,457,81,56,54,28,20,18
43,463,89,55,57,28,21,18
43,480,90,60,68,27,19,19
43,430,94,59,71,25,20,21
44,425,91,56,66,24,19,22
44,403,92,50,68,23,19,21
42,398,90,50,67,24,18,23
43,411,82,42,64,24,20,22
52,438,88,55,70,23,20,23
50,421,88,55,70,24,22,23
50,477,86,57,72,25,22,23
48,527,90,60,80,26,23,22
42,496,95,58,78,26,22,22
29,497,83,44,77,26,21,20
31,579,80,44,84,24,22,19
38,546,96,51,86,28,22,22
36,494,86,47,78,26,21,23
39,544,80,57,87,27,22,21
43,519,90,59,81,31,22,21
42,439,97,61,79,32,22,21
44,507,87,63,91,31,24,21
44,500,87,67,91,33,23,20
56,440,111,76,86,34,22,22
55,560,104,73,89,31,24,22
61,566,120,77,90,30,24,23
58,552,119,72,81,31,22,21
60,568,124,73,83,31,21,22
49,585,105,55,77,30,22,20
50,474,112,60,73,28,19,22
43,471,90,53,66,29,18,21
44,468,88,52,68,25,19,22
42,468,87,49,67,23,20,22
42,464,89,49,65,22,18,23
41,460,93,50,69,23,18,21
42,473,91,47,75,22,20,21
36,397,90,48,63,23,18,21
39,376,87,45,67,25,20,21
39,412,86,46,68,23,18,22
37,412,88,48,66,24,19,22
38,381,89,51,61,23,17,23
38,479,89,50,73,27,18,23
39,507,92,50,73,27,16,22
43,476,100,52,74,28,18,22
41,514,89,47,71,30,18,21
43,512,87,47,70,30,18,21
44,456,89,47,63,28,21,21
42,474,86,46,60,28,22,21
41,485,74,47,56,29,21,23
42,444,81,44,62,28,21,23
40,496,82,43,66,28,21,21
38,485,83,43,64,29,18,22
39,474,92,46,67,28,17,25
41,505,97,45,69,28,17,23
43,571,92,43,74,26,18,24
41,534,108,49,72,27,19,25
41,558,103,46,76,27,18,25
52,583,113,51,78,29,20,23
48,601,109,50,80,29,20,23
48,546,113,52,72,30,18,22
46,541,94,44,67,29,17,21
61,521,102,49,79,26,20,22
51,477,91,41,79,23,19,21
53,467,94,41,88,25,20,21
52,456,86,44,93,21,21,20
54,463,101,67,95,23,22,20
47,450,126,65,89,27,21,19
47,537,121,68,95,28,22,16
45,483,118,68,83,28,21,16
47,479,123,69,80,28,21,19
50,504,125,55,80,26,21,21
39,490,93,55,68,22,21,19
41,365,99,63,58,21,20,20
45,393,101,61,58,21,19,20
44,396,102,61,61,21,19,19
42,394,87,61,65,24,18,18
44,461,90,61,68,27,19,21
48,471,109,53,73,26,19,22
45,456,107,55,72,26,19,23
43,546,108,58,66,31,19,23
48,583,118,52,66,32,21,23
48,634,119,52,74,31,22,22
45,672,99,53,72,35,23,22
45,731,100,63,80,35,22,21
43,707,97,57,88,33,23,21
44,675,102,70,97,32,22,24
43,607,99,69,95,31,20,24
43,637,93,74,101,26,21,21
52,592,98,69,100,26,22,23
54,597,92,70,97,24,21,24
48,634,77,63,90,25,20,21
47,633,75,60,86,25,21,23
59,650,94,68,88,27,20,24
58,650,107,74,89,27,19,24
56,644,111,74,87,29,19,23
60,630,110,72,92,27,19,23
62,649,119,74,92,27,20,22
54,574,112,60,85,25,20,22
49,619,96,49,94,23,18,20
53,603,106,52,92,22,19,20
48,588,107,49,83,21,20,21
47,583,95,50,82,23,20,20
60,613,99,65,88,28,20,21
59,575,97,65,74,29,21,20
64,580,97,71,87,29,21,22
66,804,96,74,102,39,22,22
68,884,97,75,113,40,21,23
54,873,94,69,104,38,21,26
55,863,98,69,107,39,20,27
51,853,99,63,122,39,19,30
46,611,98,59,116,29,15,28
50,426,104,57,116,24,15,31
47,362,103,46,121,27,15,28
49,285,109,50,120,27,16,30
48,203,108,52,99,25,16,28
51,154,109,61,96,26,17,28
51,130,112,62,97,26,19,25
51,103,108,59,104,28,22,27
50,83,104,55,104,26,21,23
47,57,91,45,104,25,21,22
50,41,93,43,108,30,27,29
45,28,81,49,97,36,27,28
44,22,83,52,84,34,28,27
41,18,70,55,79,37,30,28
45,12,73,59,77,38,31,29
41,161,67,53,67,38,28,24
45,195,74,49,65,32,28,25
49,320,71,50,72,33,24,25
48,398,74,53,75,31,22,23
49,451,95,49,79,29,21,24
47,460,96,50,80,27,21,22
53,478,101,50,90,28,20,20
50,446,100,48,91,27,23,19
52,395,108,45,94,25,21,21
52,347,86,48,87,28,24,21
52,309,87,49,83,26,22,20
42,272,86,60,76,29,24,20
42,202,102,67,71,33,27,20
40,175,97,66,71,34,28,19
54,346,102,68,135,44,29,18
62,600,103,70,160,47,29,20
69,752,105,62,171,48,31,20
71,850,92,56,176,47,27,21
73,932,87,54,184,47,27,22
60,942,83,53,148,39,24,23
54,833,88,51,125,35,24,22
46,722,76,47,109,30,21,22
39,625,76,52,95,25,20,20
38,528,76,56,73,24,20,18
36,432,92,57,67,23,20,18
31,391,93,54,58,23,20,20
29,368,93,59,53,24,21,20
28,346,92,58,51,26,22,21
26,337,93,56,48,25,21,21
28,329,80,51,46,25,22,20
31,366,73,53,50,26,22,20
30,381,72,47,55,27,22,22
30,403,73,38,57,28,23,21
29,403,93,36,60,30,23,22
31,419,98,36,61,32,22,22
31,391,96,34,58,31,23,20
30,363,97,38,49,30,21,19
36,537,103,40,79,29,22,21
47,807,119,53,104,32,24,20
52,924,116,56,127,31,23,21
54,957,133,68,128,32,23,21
57,974,133,68,133,32,24,20
53,909,130,69,120,32,21,19
46,723,99,59,106,28,18,19
39,563,107,60,75,27,18,17
36,505,95,47,73,28,18,19
33,504,106,42,62,30,19,19
34,463,106,45,55,29,20,20
36,391,104,61,56,26,20,20
38,404,93,61,62,28,22,20
40,408,93,62,67,27,21,18
41,400,92,67,71,28,20,20
46,415,85,67,75,30,20,19
48,424,100,56,65,30,21,20
44,418,100,54,59,29,18,21
50,439,133,61,62,29,20,24
48,442,131,57,59,31,22,22
44,434,133,66,59,29,22,22
49,596,139,65,98,29,22,22
57,816,142,64,125,30,23,21
56,933,123,65,128,30,23,19
58,964,117,75,131,26,21,19
60,982,126,68,133,27,21,19
54,923,114,67,111,27,22,17
45,767,119,71,85,23,21,19
38,620,98,63,75,24,21,17
37,577,102,56,75,24,21,20
33,556,97,51,68,26,21,21
30,509,94,52,61,29,19,21
36,479,95,48,55,28,19,24
36,465,96,50,55,29,18,24
38,455,95,46,48,29,18,22
41,437,83,50,48,27,20,21
43,432,89,49,45,28,20,21
39,411,91,54,44,30,19,18
41,415,94,58,41,29,20,19
36,413,103,59,41,28,20,19
32,426,105,59,41,28,20,19
32,426,99,58,41,24,21,19
35,558,103,64,70,23,21,18
43,808,112,58,106,25,21,19
50,919,106,57,121,29,18,19
54,981,106,61,127,28,19,22
53,998,108,64,128,28,18,23
53,950,96,52,120,29,18,24
49,760,85,58,101,27,18,24
43,639,86,61,84,23,20,26
39,552,86,54,75,28,19,22
39,531,97,55,77,29,19,21
34,508,101,54,69,28,19,20
28,497,129,63,54,26,19,20
24,479,124,58,51,25,20,17
23,480,123,59,50,23,20,20
20,470,113,54,45,23,21,20
21,465,107,54,46,23,22,20
24,468,76,52,47,25,21,19
27,475,76,56,50,28,21,21
28,472,80,53,49,25,20,19
31,469,84,55,50,27,20,19
33,470,87,60,52,28,19,20
33,518,85,46,79,27,21,20
43,712,87,46,114,29,21,21
45,782,83,46,120,33,22,21
48,837,84,47,125,31,20,21
47,856,82,48,130,30,20,22
47,819,77,48,119,32,18,22
40,646,74,46,93,27,21,21
42,616,87,62,91,25,20,23
38,609,89,60,89,27,23,22
40,583,89,57,80,29,25,21
40,605,90,58,81,30,25,20
40,607,95,59,75,32,22,22
36,574,89,45,69,31,23,20
36,547,91,50,70,32,21,19
33,553,95,50,66,32,21,18
43,619,96,53,67,30,20,19
42,647,99,53,84,32,20,18
42,635,97,53,87,32,21,18
40,640,89,50,83,30,20,20
41,648,85,46,86,33,21,19
37,653,81,50,95,33,22,19
45,658,71,56,84,30,21,19
46,644,66,61,83,29,20,20
47,595,69,65,87,28,21,19
48,590,66,67,91,26,21,19
48,585,72,72,84,27,21,19
41,575,70,66,81,28,21,19
40,591,72,59,80,25,21,21
44,599,78,57,82,26,20,21
42,569,80,58,82,24,18,23
38,492,81,57,78,23,19,23
39,555,82,63,79,21,18,23
47,553,97,63,89,24,18,21
46,578,100,69,88,26,20,21
49,573,98,66,81,27,21,20
48,585,94,57,84,29,21,20
51,599,105,51,91,30,23,21
42,602,97,51,83,30,24,21
42,610,105,43,78,28,22,23
40,631,104,49,84,29,22,22
46,597,110,49,77,26,23,24
41,550,101,47,62,27,21,22
42,579,107,46,59,28,21,22
51,604,118,45,60,31,21,21
52,621,117,39,61,31,21,21
49,630,118,49,67,32,20,20
53,607,119,51,78,33,21,21
57,613,108,54,83,31,20,23
49,564,86,62,86,32,22,21
49,542,87,62,84,32,21,24
53,549,130,55,93,32,21,23
52,512,133,58,87,31,22,24
50,484,141,56,83,30,22,23
52,545,141,50,86,27,21,23
51,573,148,51,81,25,21,21
44,588,109,56,70,24,21,21
42,626,108,55,72,24,20,20
39,592,104,58,71,23,19,20
41,560,97,55,65,24,19,19
41,628,91,56,72,25,20,19
44,629,87,52,82,25,20,18
43,620,78,54,82,26,22,20
45,640,73,61,83,26,23,21
44,659,75,62,86,24,23,23
43,580,81,62,82,25,22,23
41,627,91,66,72,26,23,23
41,645,93,60,66,25,21,22
47,655,101,60,62,27,21,22
42,588,100,54,56,29,22,20
46,592,95,57,66,28,22,22
50,619,85,54,77,30,21,23
55,605,89,53,82,31,22,22
49,609,78,44,85,29,20,22
49,636,82,56,93,27,20,23
51,606,85,60,97,28,19,21
49,625,79,55,94,25,18,21
54,630,107,75,96,25,19,22
55,603,110,78,91,26,19,20
55,596,106,79,84,31,20,22
52,598,106,75,70,31,20,21
48,488,110,79,62,30,20,20
39,535,82,73,68,33,21,19
40,555,87,82,76,34,21,20
39,564,85,77,76,32,20,20
42,594,85,83,78,32,20,20
41,568,85,80,79,34,19,20
51,570,84,90,75,30,17,20
53,581,87,91,78,30,17,20
51,566,88,88,79,30,19,19
54,572,91,81,83,29,17,21
55,598,94,82,87,28,18,21
46,524,91,60,87,29,21,24
48,503,87,53,86,29,20,25
49,585,86,60,90,28,21,25
43,602,81,62,91,30,23,24
44,622,80,61,87,31,24,24
46,643,82,60,84,49,22,21
54,679,87,59,81,53,23,24
55,627,91,56,91,54,22,23
55,604,84,58,87,54,22,24
57,605,88,62,93,54,19,23
55,593,88,62,93,47,20,24
50,520,80,74,92,46,18,21
50,588,84,71,78,44,20,21
50,573,83,69,82,44,20,22
51,556,80,68,83,44,20,23
50,566,78,71,87,44,21,22
46,576,91,55,90,48,22,22
50,472,85,57,87,51,20,23
47,560,86,58,83,50,20,22
41,561,100,56,85,53,20,21
50,569,119,59,80,44,20,23
44,596,106,54,83,40,18,24
40,602,111,56,85,39,19,24
46,572,117,57,93,40,20,23
50,613,103,62,83,35,21,23
43,611,84,54,91,39,19,21
54,592,88,66,83,39,19,19
54,586,82,62,79,49,18,19
57,580,80,64,77,50,18,21
53,501,78,60,75,53,21,20
55,442,83,65,71,55,20,20
45,424,78,56,68,51,22,20
46,477,94,58,74,41,22,19
41,400,100,55,70,45,22,19
43,381,106,57,71,42,17,18
40,478,100,53,73,36,20,18
59,492,131,67,91,36,19,22
58,436,123,67,88,37,20,22
62,483,125,68,89,31,20,23
60,498,120,63,90,30,21,24
63,423,130,65,91,31,20,26
45,406,105,51,71,33,21,23
48,524,102,51,93,30,23,24
40,535,92,55,100,29,24,22
53,533,107,63,105,31,26,24
52,607,93,61,105,30,26,22
55,666,105,60,115,30,25,22
52,617,108,61,101,30,24,22
59,615,126,74,96,31,23,26
48,616,118,67,91,30,22,24
46,593,119,71,85,30,24,25
44,580,105,72,77,28,23,26
45,647,102,70,82,30,23,24
39,650,72,50,87,30,24,21
48,666,70,49,87,29,22,23
48,632,69,43,88,29,21,21
49,632,82,47,88,30,20,21
52,634,86,56,110,32,20,23
53,615,87,56,111,35,19,25
46,608,96,64,116,35,20,23
46,610,96,67,118,35,20,23
46,589,84,67,123,36,22,24
41,490,79,63,109,31,20,24
35,559,78,65,107,27,19,20
42,582,124,65,117,27,20,22
42,571,125,63,119,30,21,21
41,546,128,61,113,28,19,19
46,597,142,67,113,29,20,19
50,586,149,68,113,45,20,22
47,547,111,65,96,47,18,22
49,551,115,65,92,46,15,26
48,545,115,64,98,47,15,27
49,455,110,58,92,48,15,29
49,318,106,51,108,33,14,29
59,292,115,60,121,32,15,31
61,226,119,56,133,30,15,31
65,164,125,57,131,33,20,31
63,132,127,52,129,38,21,29
61,116,131,56,114,38,21,30
51,103,123,49,105,35,23,26
46,72,114,51,90,34,24,22
42,51,118,52,86,33,27,19
41,31,110,54,86,31,30,20
41,47,103,49,79,35,32,18
37,47,102,49,72,37,32,19
42,54,108,55,70,42,34,21
40,222,91,53,69,40,31,20
37,279,89,53,75,37,27,20
40,358,111,61,84,36,25,20
39,391,106,54,89,35,24,20
34,433,101,59,92,28,21,21
38,400,101,58,91,28,20,23
41,387,104,60,84,28,23,23
40,363,85,58,78,23,23,23
40,363,85,64,79,24,24,22
38,326,87,58,77,30,26,20
36,302,90,62,79,29,26,18
34,273,88,62,81,31,25,16
31,216,80,62,81,34,26,15
33,155,83,60,76,40,27,17
37,128,88,61,86,46,31,21
37,114,85,59,82,53,34,23
36,105,87,56,87,52,33,27
42,447,95,61,148,55,33,28
49,675,93,64,173,51,31,28
46,802,87,65,171,44,27,26
47,906,95,63,180,37,23,23
47,937,97,68,179,37,22,21
43,894,91,61,135,30,19,19
36,789,96,57,98,30,20,17
36,695,104,56,93,30,19,17
36,578,106,62,75,29,20,18
34,548,104,58,65,30,19,18
32,469,108,57,57,29,21,19
28,403,110,57,56,28,22,19
28,367,102,53,51,26,21,19
26,364,98,47,57,25,20,17
27,368,94,49,59,28,20,17
35,360,95,56,67,29,20,17
36,375,82,62,70,30,21,18
41,384,86,62,80,37,20,19
40,381,80,71,78,40,23,19
39,393,86,69,77,37,23,20
37,381,76,72,79,38,21,21
37,365,76,68,80,39,21,20
32,366,76,69,72,32,23,19
40,459,78,63,76,32,21,23
51,779,82,65,119,38,23,23
49,907,97,75,123,37,25,22
49,964,101,73,127,36,26,22
49,964,97,73,131,37,24,23
44,960,94,77,137,36,25,20
32,736,92,87,106,30,24,19
31,593,83,75,106,32,23,20
35,516,83,79,126,29,21,21
36,513,87,77,123,29,23,21
39,436,91,71,113,32,22,21
38,425,82,57,109,31,23,21
36,396,87,50,96,30,23,20
32,389,94,41,58,30,23,19
29,404,91,45,54,29,21,19
24,401,86,41,57,26,21,20
23,385,92,48,57,27,21,20
24,413,86,53,59,25,19,19
23,383,72,55,55,25,21,19
27,361,80,55,54,27,20,18
37,397,96,67,62,26,20,19
39,384,89,62,69,32,20,19
40,498,101,61,97,36,21,19
56,851,106,64,129,37,19,20
59,997,101,62,141,37,21,22
54,1033,87,54,143,47,21,20
55,1047,86,56,138,44,21,19
56,1000,76,58,124,43,21,21
40,763,68,56,104,42,21,19
36,590,80,59,87,43,22,17
35,507,89,60,102,33,21,16
33,485,95,61,106,31,21,18
29,461,93,58,102,29,20,16
30,405,95,56,89,31,21,18
28,363,96,57,92,31,21,18
32,436,103,55,74,37,21,19
32,478,103,60,71,44,22,19
34,503,100,62,75,43,22,20
34,499,105,63,76,43,22,19
34,484,100,60,77,42,21,19
29,393,86,62,69,36,24,21
31,325,84,55,72,30,22,21
38,296,103,62,72,41,24,21
38,291,115,61,72,43,24,21
43,483,122,60,105,44,23,21
44,788,119,57,124,44,21,20
50,956,125,55,135,47,23,21
50,1011,114,46,135,40,21,21
50,1022,97,52,138,36,22,21
47,970,82,54,113,32,22,20
46,796,91,55,95,39,22,21
40,601,94,55,96,38,18,21
31,489,92,61,94,36,21,19
33,465,94,58,87,36,21,20
30,412,95,55,84,36,21,19
34,305,89,55,89,31,21,20
36,266,85,57,66,35,22,19
38,255,79,58,68,38,21,22
36,242,76,58,73,38,22,22
36,246,87,63,78,42,23,22
33,257,105,61,69,41,24,24
30,255,94,61,76,39,23,26
27,251,95,55,76,36,22,24
37,252,105,51,84,38,21,23
39,250,103,54,84,36,20,23
41,241,84,60,94,38,20,22
39,247,85,60,91,32,21,19
41,247,93,69,99,34,22,19
34,249,88,75,90,38,22,19
40,457,84,68,107,39,23,21
48,736,92,65,121,41,23,21
60,1005,111,69,139,52,25,22
61,1137,108,60,163,52,25,22
62,1155,105,55,168,56,24,23
59,1117,110,63,165,56,23,21
54,1007,110,60,150,53,26,21
41,754,93,56,130,42,23,19
43,542,90,52,91,40,23,20
42,501,94,53,78,32,23,20
40,451,100,46,60,28,24,22
39,342,101,51,51,28,20,21
42,311,101,48,49,28,20,21
39,306,101,49,43,32,18,21
41,312,100,48,46,31,20,21
40,329,86,45,44,32,20,19
36,332,89,45,51,33,21,19
33,319,86,49,54,34,21,20
32,313,82,49,56,32,23,20
27,329,83,56,53,32,21,20
26,293,112,61,51,31,22,20
33,304,106,58,47,30,21,21
33,320,110,55,45,29,20,20
34,484,114,54,81,29,19,20
41,770,111,46,105,30,19,20
47,829,91,46,121,31,17,23
47,826,91,46,132,30,18,26
50,917,85,48,143,29,19,26
49,899,87,52,144,37,19,27
51,725,94,63,133,37,19,27
47,684,94,59,123,37,20,25
45,694,89,58,111,36,20,20
41,577,91,57,96,36,19,21
39,512,88,53,63,26,20,21
33,427,92,43,58,26,21,19
31,390,90,45,58,24,19,20
28,390,93,48,56,28,20,21
30,389,93,47,58,27,20,20
31,358,87,49,63,27,19,19
40,384,114,53,60,28,19,20
41,396,111,54,50,30,21,19
41,382,113,54,51,28,20,18
40,387,127,62,51,30,19,18
42,385,133,59,44,30,19,21
37,359,101,63,41,31,19,21
38,550,108,64,72,29,18,24
43,788,114,69,100,32,20,23
45,889,106,61,106,30,21,23
49,933,104,65,116,29,21,22
45,950,105,57,122,28,23,21
45,891,97,58,109,31,23,18
41,729,95,51,87,26,21,18
40,614,84,53,91,27,22,17
33,580,89,48,80,29,24,18
30,563,87,48,69,27,21,17
30,509,89,43,70,26,22,18
30,457,75,46,68,28,22,19
27,455,79,47,56,39,21,20
24,419,66,48,52,39,19,19
26,425,73,54,51,41,20,20
24,417,65,55,44,39,19,20
28,410,73,50,40,38,20,19
28,399,76,50,33,27,21,19
31,406,83,53,38,27,22,19
29,387,75,46,41,25,21,18
34,392,79,46,46,25,22,19
37,555,76,50,75,27,23,19
48,798,70,46,106,29,23,19
48,925,68,53,117,29,23,19
50,985,68,54,122,28,24,21
49,998,67,55,134,28,23,21
46,940,77,55,121,29,24,20
38,773,83,60,101,28,25,21
37,632,79,53,87,29,23,20
34,551,83,52,79,28,20,19
32,539,79,56,56,27,22,20
28,508,68,53,50,27,24,20
29,460,65,51,40,26,22,20
28,449,68,49,40,24,23,20
32,428,87,57,40,27,24,21
35,410,90,53,40,26,23,20
35,396,90,54,37,27,20,20
36,398,92,58,37,27,21,21
36,383,91,57,36,28,21,21
35,407,72,46,33,26,20,21
35,408,82,55,45,28,19,22
35,423,83,56,47,29,18,22
40,435,78,62,63,31,18,21
41,550,85,65,89,29,19,22
45,747,84,67,113,32,21,21
51,825,77,68,124,31,23,19
52,860,77,66,131,30,24,19
47,868,86,58,126,29,22,20
48,826,80,59,114,31,21,20
46,675,99,64,111,30,19,22
39,593,103,59,95,31,20,21
38,551,104,61,89,32,20,21
42,537,104,61,89,32,21,19
39,510,105,58,85,33,22,18
40,559,87,62,63,33,21,19
42,722,81,60,81,38,20,18
49,785,81,64,89,40,18,18
45,839,71,66,93,38,20,18
48,849,79,70,106,37,19,20
43,798,83,63,107,36,19,18
43,649,85,62,97,30,18,19
38,616,85,58,92,26,19,18
39,597,90,55,88,26,18,21
41,604,82,63,77,28,20,20
40,625,75,58,73,27,19,22
44,624,72,62,74,27,20,22
40,606,70,61,70,25,20,23
43,585,89,63,77,28,20,23
37,576,94,50,72,26,20,21
39,632,95,56,78,26,20,21
35,642,93,49,76,27,20,22
43,609,95,48,79,27,18,23
40,572,78,49,71,25,20,23
50,602,76,49,74,25,19,24
49,528,77,44,68,25,19,24
50,544,81,45,66,24,19,21
50,540,86,64,67,24,22,21
48,527,81,60,65,24,21,19
50,481,87,62,63,25,22,21
52,571,86,61,76,25,23,20
57,538,88,69,76,25,24,22
55,563,99,54,71,41,23,20
56,557,107,56,70,42,23,23
47,555,107,53,72,41,22,20
47,475,115,58,57,42,22,21
43,554,118,52,67,42,23,21
37,556,100,50,74,27,22,23
37,592,97,49,85,26,20,22
39,565,90,57,85,26,20,22
39,588,101,63,88,24,19,21
38,606,103,61,83,26,17,21
48,596,114,65,81,29,17,23
47,581,107,66,75,30,19,26
44,619,108,64,71,32,19,26
46,577,92,63,68,32,19,28
46,547,82,61,73,31,18,27
44,597,81,60,75,28,17,26
46,615,87,56,82,28,17,22
50,601,86,54,85,27,17,23
46,599,81,44,85,25,19,20
50,565,80,44,82,25,21,24
46,516,68,40,81,28,22,22
43,505,73,45,74,26,20,23
41,516,78,40,72,27,21,22
48,527,84,44,71,28,20,25
48,497,92,46,67,28,18,23
47,505,99,50,64,26,19,24
46,487,90,50,61,28,20,25
46,554,82,54,68,28,20,27
39,570,77,54,66,27,22,24
38,585,75,51,65,27,22,23
37,557,76,54,69,27,20,24
37,566,78,53,72,26,19,22
35,568,83,53,79,24,20,20
40,573,83,51,79,29,19,24
34,591,97,62,81,29,19,25
36,606,93,63,82,29,20,23
35,619,90,62,84,29,21,25
38,626,86,64,73,28,20,24
31,621,100,63,72,23,19,21
37,603,96,55,76,24,21,22
39,611,99,49,70,25,20,22
42,569,100,46,64,26,19,21
42,487,106,43,61,28,20,22
47,541,121,43,68,28,21,23
43,543,123,46,63,30,19,21
39,529,124,52,66,29,21,23
41,562,126,65,69,31,22,21
52,533,126,71,74,33,20,23
50,540,104,71,79,35,18,22
56,561,102,68,86,33,20,21
56,555,97,64,86,33,18,20
52,547,94,53,86,32,20,21
42,576,86,45,89,29,21,19
66,505,118,43,85,30,22,24
69,545,107,38,82,30,20,25
71,574,104,37,86,32,21,25
102,581,139,71,110,31,21,32
103,585,148,73,105,34,20,31
89,575,122,76,103,30,19,27
85,546,121,81,101,30,20,28
85,520,132,81,97,32,20,28
45,528,98,60,64,33,18,20
41,560,86,62,72,31,18,21
39,577,84,60,75,34,20,23
39,534,88,61,74,32,21,23
38,597,84,64,77,29,21,22
38,589,85,61,83,27,22,21
39,542,87,61,80,27,22,20
39,548,94,64,78,25,22,19
37,557,97,60,88,28,23,19
35,475,90,65,93,28,22,19
40,520,91,72,97,33,23,20
42,527,85,71,102,36,23,21
45,501,89,71,105,37,22,22
45,500,82,69,95,37,20,19
46,500,87,67,94,37,21,21
40,547,83,62,97,31,19,19
35,561,82,57,93,33,22,20
35,584,72,55,87,30,23,22
36,590,68,56,88,31,23,22
50,614,67,50,89,33,22,22
50,498,68,44,78,34,24,22
53,557,70,50,82,29,23,21
73,551,106,73,82,31,23,22
74,550,107,75,81,29,23,23
78,582,104,77,75,33,22,24
81,614,115,80,72,35,20,24
82,584,117,77,62,34,19,24
63,608,94,62,66,34,20,22
62,635,100,62,68,37,24,24
46,595,100,67,84,33,23,22
42,567,83,64,87,33,24,25
48,521,96,66,83,35,24,26
46,498,84,58,81,35,23,25
50,437,80,56,79,31,19,23
54,416,92,51,61,36,22,24
53,410,100,48,64,32,21,23
44,458,91,49,77,31,21,22
54,432,115,49,80,31,20,23
51,480,140,51,86,30,22,23
43,485,133,45,87,25,22,22
65,506,143,58,97,26,22,23
66,443,139,56,91,26,22,23
59,423,124,61,92,26,23,23
61,403,97,62,84,26,21,24
63,515,93,63,103,24,19,24
43,581,71,55,93,23,19,22
43,582,77,53,92,23,18,21
44,647,80,46,89,22,18,19
42,657,76,45,91,24,18,20
41,602,87,50,69,25,18,19
45,570,92,49,71,28,17,20
56,597,93,62,74,27,17,19
55,578,93,60,79,28,17,21
54,620,101,60,80,30,17,20
57,619,117,59,76,28,18,23
52,613,111,59,72,26,20,22
55,615,119,61,75,27,19,25
56,625,116,62,72,26,18,25
57,593,111,63,69,25,19,25
55,589,91,67,71,27,19,23
55,619,99,66,73,28,18,24
41,622,100,59,71,29,19,22
37,567,100,59,71,28,20,22
42,552,107,61,70,28,19,23
38,543,104,53,72,29,19,23
38,493,98,53,72,27,19,22
45,556,89,57,69,26,18,21
47,569,88,58,66,29,18,22
42,543,91,61,72,26,18,20
55,548,99,70,94,25,20,22
60,546,104,72,108,47,34,21
53,498,107,88,123,54,39,20
55,592,116,89,126,58,41,18
58,705,113,86,129,60,43,20
49,799,107,84,122,64,43,19
43,833,104,82,118,52,32,21
46,851,105,67,108,46,27,24
47,784,93,70,108,39,23,26
42,666,85,69,101,35,19,27
38,498,98,71,90,29,17,28
49,404,101,70,88,30,19,30
50,279,94,61,82,27,18,29
49,217,100,58,82,28,16,29
50,198,97,59,82,28,16,28
58,178,83,61,87,25,18,27
52,141,81,62,78,22,16,25
49,86,86,59,79,20,16,23
46,54,87,60,75,19,19,22
45,49,91,56,75,21,20,24
40,42,102,53,69,27,23,25
37,30,98,50,69,28,25,24
48,19,116,52,62,32,26,27
48,12,113,47,67,32,25,27
50,10,113,49,67,31,23,24
48,132,107,40,77,27,20,23
53,207,113,46,81,26,17,26
42,321,92,45,82,22,17,23
45,393,90,47,79,20,17,22
45,484,89,47,83,21,18,23
43,544,99,48,73,22,19,22
43,554,98,47,72,21,21,19
45,525,100,49,71,23,22,19
42,494,99,48,72,24,25,19
41,422,118,48,68,28,24,19
42,337,118,52,70,30,26,19
38,299,113,53,69,31,26,18
35,259,112,52,68,35,27,17
37,233,128,54,69,46,32,17
52,411,110,58,151,52,35,20
53,542,102,56,159,51,34,21
59,699,111,56,177,49,32,24
62,814,109,55,185,48,31,24
62,866,95,55,185,39,24,25
51,840,99,52,128,29,18,23
50,801,107,52,117,29,18,24
44,699,97,52,84,33,19,22
39,602,96,54,65,30,19,22
45,555,88,59,67,29,20,23
44,509,80,58,60,29,21,22
41,465,62,55,52,29,20,19
42,442,64,53,53,25,20,20
42,419,83,60,54,25,21,21
33,409,88,59,53,28,22,19
33,499,100,60,75,26,20,21
39,678,109,61,102,27,20,21
45,778,112,63,107,27,21,21
47,785,107,63,108,27,22,21
47,802,114,63,108,26,21,22
46,767,112,67,95,25,23,22
39,629,103,66,66,26,24,23
34,530,99,62,56,25,22,24
36,613,92,55,58,26,21,23
34,625,81,48,60,26,22,22
35,616,70,43,58,26,20,22
38,605,70,40,66,25,18,20
37,587,84,49,66,25,21,20
32,531,79,51,65,24,20,19
41,572,88,51,65,26,20,22
40,580,89,50,68,26,20,21
37,593,95,62,63,26,20,22
38,571,81,55,63,30,18,21
42,540,89,54,59,34,19,23
38,550,79,58,64,34,17,19
39,531,78,57,76,37,19,19
46,537,95,52,79,37,19,20
45,546,95,55,82,34,19,20
44,529,92,58,81,30,19,20
41,462,92,53,78,26,20,21
47,542,96,58,85,23,20,23
45,522,85,53,84,22,20,21
44,529,90,54,84,24,18,21
44,523,85,47,83,25,19,21
44,528,86,54,83,27,18,21
41,496,85,50,74,27,19,19
40,516,70,51,77,27,19,20
42,530,86,52,76,27,24,23
40,560,94,54,79,27,24,23
45,519,99,50,73,28,25,22
42,515,98,49,64,29,25,22
46,559,107,48,75,30,24,24
45,559,93,44,82,30,20,21
46,568,87,46,89,32,20,21
43,590,83,43,93,32,20,20
43,548,93,53,93,32,20,21
41,499,88,67,81,31,19,19
41,536,86,65,79,29,19,21
39,543,94,64,66,26,21,20
39,542,94,69,69,24,21,21
39,549,81,63,69,23,22,20
35,549,76,46,77,23,23,20
42,586,80,49,76,28,23,21
45,582,76,52,78,31,22,21
43,586,68,49,74,32,21,21
48,588,87,50,72,33,21,22
49,566,95,57,66,33,20,23
44,488,92,67,62,30,21,19
45,548,84,68,73,29,22,21
46,551,87,82,79,28,20,21
41,563,74,85,79,27,20,20
40,579,87,81,79,25,18,21
38,558,88,72,80,27,18,22
34,562,92,72,66,25,16,20
37,596,100,59,61,26,17,22
39,601,94,55,59,27,17,24
39,611,77,59,59,28,18,23
42,619,87,68,54,27,19,22
44,545,86,67,58,27,20,21
44,528,91,70,58,26,20,20
47,591,98,70,69,27,19,16
47,572,112,70,66,26,18,16
44,587,109,58,69,26,18,15
43,568,108,59,68,27,18,18
46,583,99,56,73,30,18,17
41,527,100,58,63,28,20,17
39,540,102,59,65,28,20,20
42,536,96,61,66,28,19,21
45,557,116,61,67,29,19,19
50,500,119,56,64,29,19,22
51,551,114,51,73,30,18,22
51,532,107,59,75,31,19,22
48,532,108,57,76,29,20,23
48,553,91,57,81,28,22,22
37,558,83,58,76,26,21,21
39,485,98,61,70,26,21,23
40,549,93,53,71,27,22,22
41,553,98,53,69,28,21,20
43,557,104,47,63,28,21,24
46,587,110,52,65,27,22,24
45,571,100,51,63,27,21,22
48,581,97,47,68,28,20,24
54,579,99,63,70,29,21,23
49,593,89,63,75,28,19,19
51,598,93,66,78,30,20,20
47,627,100,70,77,35,20,20
44,569,106,69,74,32,20,20
37,624,98,55,79,31,19,20
40,595,105,56,74,30,21,21
34,589,95,48,71,31,18,20
35,592,95,52,69,27,19,19
34,607,86,52,69,26,20,18
38,557,95,58,63,30,19,19
35,560,111,59,63,30,19,20
37,546,122,62,64,33,19,20
41,527,115,59,68,31,18,22
41,536,119,62,72,32,19,22
38,502,116,59,66,29,21,21
39,557,112,59,80,29,21,21
38,573,104,56,79,24,21,21
35,570,105,51,78,27,23,20
34,556,102,46,75,28,23,20
37,585,104,47,79,31,21,20
36,554,87,60,72,30,20,21
36,537,84,58,72,30,21,20
36,540,81,57,72,28,19,18
39,516,100,65,68,27,20,19
37,513,95,65,65,24,21,19
38,476,112,54,60,26,22,19
38,524,124,55,64,26,21,21
39,547,123,55,68,26,21,22
39,583,109,52,73,27,19,22
38,584,106,51,71,28,18,22
37,579,94,52,71,27,20,21
38,531,85,48,67,27,19,22
38,494,90,49,62,27,19,21
33,453,98,50,54,26,20,22
36,430,97,46,56,27,21,22
37,450,93,44,58,28,20,23
37,421,93,47,62,29,20,21
38,415,86,50,59,28,20,20
40,421,71,44,62,28,23,21
38,431,75,45,63,27,22,22
36,421,71,48,60,26,22,21
34,458,61,48,68,24,23,23
34,461,73,45,71,24,22,24
33,511,83,48,69,24,21,23
36,521,84,56,70,25,21,22
35,494,82,53,71,25,23,22
36,450,90,52,56,24,22,21
37,493,80,52,64,23,22,21
38,436,75,49,61,23,22,21
34,393,81,39,57,20,22,20
35,434,86,40,59,20,20,20
40,429,76,42,62,24,19,21
36,372,81,41,54,24,19,19
38,447,79,55,62,25,17,20
38,467,68,57,63,24,15,20
40,423,60,66,58,24,17,19
37,443,78,66,58,24,19,19
37,427,75,69,56,23,22,19
38,407,75,59,52,23,22,18
39,384,76,59,55,23,24,20
41,393,87,48,54,23,23,23
39,387,71,47,57,22,21,23
41,392,80,48,57,23,18,24
39,360,82,45,64,24,18,25
43,397,86,45,62,27,17,26
39,413,80,42,67,28,20,25
41,403,85,43,68,28,19,24
39,435,80,40,69,27,22,22
49,404,82,53,61,24,22,24
45,388,74,50,61,20,21,22
53,452,72,58,74,21,20,23
52,472,68,56,73,22,22,24
54,492,65,55,84,23,19,25
42,498,58,47,84,24,21,23
46,498,66,50,83,25,21,24
36,438,84,49,67,23,21,22
35,449,91,50,64,21,21,22
34,392,101,51,54,21,22,21
37,385,114,54,54,21,21,22
34,414,116,53,61,19,20,21
35,411,102,47,67,21,20,20
40,445,104,48,71,22,20,22
39,454,99,54,69,24,18,23
35,464,82,49,67,25,20,22
34,423,77,49,60,27,21,21
32,444,88,53,56,25,19,22
30,422,75,52,51,25,21,20
29,428,68,48,46,25,20,18
36,442,87,54,55,24,19,19
38,483,90,61,64,24,19,20
41,508,82,59,70,23,20,21
41,477,88,59,70,26,19,21
41,479,90,57,70,24,19,21
39,494,82,56,72,24,19,21
39,472,82,46,65,25,18,22
40,481,94,44,74,25,17,22
40,470,91,42,78,23,17,21
40,466,88,42,82,25,17,21
41,430,92,41,78,25,17,21
39,467,92,49,81,26,18,21
38,392,79,52,68,27,18,21
35,395,80,50,61,26,18,21
39,423,95,50,58,25,19,20
34,417,88,46,54,24,19,19
33,358,88,43,46,21,19,19
32,377,89,44,44,20,19,21
35,393,91,49,48,22,20,21
32,359,86,54,50,22,19,22
31,355,89,55,53,21,19,22
33,409,91,54,55,24,18,21
35,435,89,57,54,25,18,19
36,430,95,54,59,25,18,23
35,433,91,50,55,26,19,23
39,453,90,56,53,26,21,23
43,423,86,55,58,25,21,24
44,379,82,50,58,25,22,25
50,414,72,57,54,30,21,23
50,424,73,58,62,32,23,23
52,483,68,56,67,32,20,23
48,470,64,57,66,32,21,23
66,477,123,73,77,38,21,22
63,470,122,68,78,36,23,22
67,505,125,69,77,34,22,23
64,434,122,65,71,34,23,22
67,449,133,67,71,33,23,23
50,530,91,56,73,30,24,23
48,508,94,67,82,27,23,21
43,477,92,67,83,30,24,21
47,570,124,69,89,33,25,21
62,625,118,71,92,34,24,21
59,571,114,69,84,33,24,19
59,617,125,60,80,34,23,22
65,656,127,57,83,33,22,24
67,593,106,57,81,34,21,23
64,548,135,61,84,33,20,23
65,554,135,56,92,34,20,23
64,531,130,61,84,32,22,20
60,490,131,62,85,33,22,18
56,526,126,70,90,31,21,20
38,536,107,69,88,33,22,19
36,544,105,67,81,31,21,22
36,526,96,69,84,32,20,22
37,515,91,69,79,31,19,25
33,463,85,57,73,31,20,24
49,527,86,58,88,29,18,27
50,543,89,60,86,30,18,25
55,538,89,59,85,30,17,26
50,554,82,57,86,28,19,23
60,574,150,64,84,28,18,27
54,513,148,58,65,30,18,26
60,464,154,62,104,34,18,27
57,467,155,60,111,33,18,26
62,429,164,60,110,32,16,25
56,377,111,54,110,31,17,20
56,303,101,58,114,33,21,19
49,272,98,56,80,29,23,17
45,205,102,61,86,37,32,18
50,193,93,66,99,46,36,18
47,177,89,67,102,49,39,20
44,278,106,65,102,54,40,20
45,423,106,65,103,55,41,21
46,508,107,63,93,53,35,21
37,533,106,58,83,47,30,22
35,554,117,63,78,44,26,24
34,529,108,59,73,37,22,25
33,433,105,57,75,34,20,25
33,346,98,53,72,28,18,24
35,300,101,59,71,27,18,24
36,259,93,56,80,23,19,23
35,232,84,56,80,22,19,21
38,204,99,57,76,20,19,22
37,176,99,56,80,21,20,22
40,151,109,50,79,21,20,23
41,131,113,51,78,28,19,21
45,96,119,50,81,31,20,22
40,83,117,50,81,39,25,25
43,59,121,51,83,40,26,28
36,54,110,49,85,42,26,26
39,51,109,46,82,40,27,27
37,46,102,54,88,38,25,27
41,31,95,58,96,28,21,24
40,89,100,55,95,26,18,22
49,155,97,59,94,23,17,24
47,319,104,57,100,20,17,24
46,517,120,51,138,23,17,24
47,733,113,43,161,22,16,23
49,849,125,53,169,27,19,22
52,959,124,51,180,31,19,24
49,977,113,52,179,32,19,23
51,938,100,58,147,30,19,23
49,818,104,61,117,32,19,24
45,735,78,51,100,30,17,23
37,593,76,52,73,26,18,20
38,517,70,53,57,26,18,20
47,453,77,53,50,28,17,22
49,409,72,54,50,27,19,19
49,345,74,61,54,29,23,20
47,340,84,61,55,31,24,20
46,327,85,59,53,31,26,20
43,320,75,70,53,30,26,19
45,311,76,69,47,30,26,21
45,318,73,64,39,27,22,20
43,312,76,63,42,26,21,20
45,321,85,66,49,25,19,22
35,303,87,54,56,25,17,20
33,313,83,52,60,26,19,19
37,318,89,54,65,27,19,19
36,317,76,59,62,26,18,18
52,457,115,70,110,29,19,20
58,698,114,68,138,31,19,21
59,744,119,67,151,37,25,20
61,756,125,69,158,39,26,19
63,782,128,65,163,39,28,21
49,749,88,50,138,41,27,17
45,587,85,48,115,38,27,22
43,563,83,51,97,32,21,22
52,566,74,53,84,29,21,24
52,553,72,59,77,30,20,24
55,511,70,61,72,26,23,24
56,472,78,58,63,27,22,22
53,434,77,55,64,28,23,21
42,418,84,48,66,30,22,20
41,403,84,42,62,30,22,20
38,553,87,47,72,29,21,20
40,736,88,47,95,33,20,18
44,838,88,49,104,32,20,21
47,893,83,48,112,32,20,21
47,914,94,48,114,30,19,21
47,884,103,44,118,33,20,21
44,787,96,44,102,31,21,23
48,761,104,41,102,35,21,23
46,738,106,41,95,34,21,24
46,735,110,40,95,35,22,23
46,707,106,38,94,32,22,23
50,778,112,38,101,33,21,21
43,794,106,39,104,30,21,19
42,789,101,40,102,30,22,18
43,798,85,41,103,29,21,19
40,757,80,43,90,29,21,19
36,621,87,44,80,26,20,20
36,537,91,41,65,25,21,23
37,511,87,39,57,23,22,23
39,547,91,37,60,27,22,22
42,572,94,38,60,27,21,23
39,582,88,41,58,28,22,23
39,569,91,45,65,28,21,20
38,592,97,46,69,30,20,19
42,551,98,46,73,32,21,21
41,540,101,45,83,29,20,20
44,534,94,44,84,29,21,20
41,510,84,40,77,28,20,20
43,483,89,53,76,27,20,22
36,448,85,54,65,25,19,19
40,455,86,61,57,26,19,20
39,521,87,60,56,27,18,19
40,527,90,70,54,26,18,20
37,514,89,62,55,27,22,18
37,511,99,62,58,26,22,18
34,547,89,57,57,26,23,20
34,539,88,54,60,23,23,20
36,548,88,50,64,25,24,20
36,534,84,50,62,22,21,22
40,539,74,53,63,22,23,22
38,517,76,49,63,24,22,20
45,581,86,53,75,26,22,23
43,597,86,49,80,26,22,21
43,621,103,61,79,26,22,23
38,598,106,56,77,27,22,22
45,601,138,56,88,27,22,23
39,554,135,57,79,27,22,22
47,606,141,63,78,29,22,25
51,594,137,52,85,29,21,23
53,597,135,54,91,28,21,25
47,566,101,57,89,29,21,23
47,526,102,64,91,28,20,23
41,447,93,55,88,27,19,22
37,495,79,58,88,26,19,22
38,527,82,61,86,27,20,23
38,521,90,60,75,24,21,24
40,529,88,47,70,24,22,25
40,535,101,53,71,25,23,25
38,546,97,49,67,24,22,25
38,549,95,47,63,26,21,22
39,575,97,46,65,27,19,21
41,532,103,53,68,27,21,21
42,550,91,49,64,25,20,19
43,599,95,47,68,25,22,20
45,620,92,51,72,24,22,21
43,635,81,58,72,26,24,20
39,649,66,54,69,24,21,18
39,625,76,56,73,24,21,20
38,523,70,54,75,26,21,20
37,576,72,60,74,25,20,20
38,598,77,61,77,23,18,20
37,615,88,60,76,23,18,20
35,600,85,58,74,25,18,19
37,619,98,63,74,23,16,21
34,598,98,57,80,25,17,20
32,564,94,50,77,23,18,19
34,548,92,56,77,25,19,20
37,564,91,55,77,25,18,21
33,523,77,52,67,24,19,19
33,449,83,50,54,24,18,20
34,516,88,57,64,25,18,22
36,515,88,58,68,25,19,23
34,531,83,59,65,28,20,20
41,540,90,59,67,28,21,22
41,538,84,58,67,27,21,22
42,486,82,52,63,26,22,23
40,519,78,41,63,28,22,22
45,520,94,45,64,26,22,22
40,537,94,49,62,26,21,19
41,519,97,56,68,28,23,18
42,518,96,58,71,29,22,19
45,579,107,63,86,28,20,21
43,572,102,64,98,24,20,23
43,571,94,63,109,24,22,25
43,607,93,61,106,26,20,25
37,569,94,58,101,26,20,22
34,503,85,55,89,26,21,21
33,573,85,50,86,30,21,19
33,577,98,58,72,30,21,21
37,572,105,55,76,28,20,21
42,600,111,55,78,28,21,21
42,571,107,53,73,29,20,21
41,561,103,52,62,27,19,20
40,554,93,42,66,28,19,20
39,550,90,39,62,28,19,20
42,537,95,38,68,29,19,22
43,529,97,45,72,29,19,20
46,450,91,46,70,28,21,22
50,503,103,49,70,29,20,22
48,515,100,59,83,30,20,22
42,526,94,65,78,33,20,23
41,534,105,65,80,32,19,24
38,526,111,65,82,31,18,23
31,541,101,61,82,28,18,24
32,534,97,54,71,29,19,23
29,539,89,50,67,26,20,22
31,541,75,50,76,26,21,22
30,568,65,53,76,27,22,20
30,475,70,58,75,26,22,21
30,533,72,57,75,26,22,21
33,553,73,54,83,27,22,22
31,574,74,54,72,25,23,22
36,613,81,59,77,25,21,22
38,634,86,56,73,27,21,21
36,564,82,62,71,25,20,21
49,659,89,62,75,24,20,21
51,673,87,58,77,25,18,22
49,633,90,50,70,25,21,23
48,614,84,46,74,24,20,21
51,644,90,42,78,25,22,22
40,492,86,46,67,23,23,21
36,406,90,47,60,23,22,19
37,411,83,49,60,23,21,21
37,428,90,50,61,23,22,23
36,420,86,50,58,23,22,23
38,423,84,47,61,23,21,24
45,448,93,50,65,24,21,25
45,432,98,50,62,23,21,23
47,441,89,56,64,25,20,22
45,386,96,58,68,23,19,24
43,387,104,60,65,27,19,23
38,399,93,59,63,27,20,23
36,387,95,64,67,26,18,23
40,373,99,62,70,26,20,23
41,403,93,58,64,26,20,24
42,392,85,52,66,22,19,24
41,487,90,60,67,23,19,23
44,501,80,53,69,24,20,24
38,505,76,51,66,25,18,23
46,540,85,61,77,28,20,20
45,610,83,62,80,27,19,20
53,541,83,57,84,28,18,21
51,555,89,60,82,29,20,20
54,565,101,61,86,30,22,23
47,534,97,63,77,30,20,23
49,500,103,63,72,31,21,26
44,500,104,60,64,30,23,25
45,492,99,60,61,30,24,26
42,478,91,57,55,28,23,24
46,517,95,52,56,27,23,24
42,512,87,48,57,28,22,23
41,528,85,51,58,25,21,23
41,518,85,52,56,23,20,23
42,553,87,58,59,26,21,22
38,544,74,51,58,25,21,24
39,545,95,50,58,23,21,24
39,573,100,65,58,24,21,24
36,566,99,64,59,24,21,22
37,553,97,63,57,20,20,22
39,540,103,70,68,28,23,18
40,567,84,71,69,27,21,19
41,527,78,62,79,28,23,21
49,552,84,68,92,46,34,22
47,586,90,68,104,57,38,23
46,665,88,67,105,59,39,23
45,756,108,74,107,62,40,23
45,835,111,67,103,64,40,22
37,841,110,63,103,55,30,23
38,809,117,61,102,44,26,23
36,727,120,60,96,39,21,24
42,567,113,61,98,34,21,26
36,403,106,62,99,28,21,27
46,317,114,61,95,25,21,26
46,273,104,60,87,23,20,29
49,227,100,53,94,22,20,30
55,203,96,49,90,23,19,29
62,167,104,51,90,26,19,28
59,121,91,51,87,26,18,29
59,85,79,49,82,26,20,28
57,65,82,50,73,26,23,27
55,55,86,49,67,26,21,27
49,40,74,47,66,28,24,27
49,25,84,51,68,28,25,29
48,21,84,54,70,29,25,25
50,16,90,54,66,28,23,24
43,14,83,49,69,28,23,23
46,138,91,49,68,27,21,24
54,188,94,43,64,28,21,23
54,275,92,39,64,26,19,24
57,382,84,40,72,28,19,24
57,448,101,41,70,28,22,27
55,560,103,46,76,24,21,25
43,585,94,51,74,24,22,22
42,569,102,54,75,26,23,22
40,512,128,61,78,28,24,21
43,463,112,60,81,27,23,16
41,318,118,57,74,30,24,15
42,253,119,55,74,31,23,14
44,222,116,60,74,34,25,13
45,410,88,63,116,41,28,12
42,565,93,64,140,41,27,15
48,659,86,67,150,43,27,18
51,789,89,64,160,42,27,20
54,865,93,61,165,40,25,22
52,840,88,48,134,33,22,22
50,778,92,50,106,33,22,20
52,710,99,55,94,31,21,20
49,586,100,55,73,30,20,18
45,482,100,52,58,30,19,16
44,421,109,55,58,28,21,18
43,373,103,54,66,26,20,20
36,360,110,47,61,26,21,22
33,371,106,48,63,26,21,20
38,384,106,57,61,26,22,24
38,378,97,53,61,27,20,24
40,392,99,56,53,28,19,23
39,397,72,54,53,26,20,21
42,368,73,53,49,27,19,23
41,374,71,43,49,26,19,21
39,370,69,42,51,26,18,20
42,358,115,48,61,25,19,21
41,355,118,51,61,29,19,20
47,460,120,63,87,29,20,21
43,747,119,63,110,30,18,20
47,767,127,71,126,30,18,25
43,787,90,64,138,30,18,25
57,936,96,67,146,31,20,27
58,914,96,56,141,32,19,25
58,721,101,62,130,30,21,25
58,726,108,57,116,30,22,21
57,722,107,55,97,32,23,22
42,527,100,50,84,30,20,20
33,481,96,51,68,31,22,20
36,446,113,49,61,32,21,22
33,414,98,47,53,34,23,21
33,372,97,48,49,31,22,20
34,406,99,46,50,29,23,21
38,451,104,51,52,26,22,24
35,460,83,50,44,25,23,22
35,481,81,52,50,25,20,23
34,509,89,54,51,31,20,25
36,477,87,56,51,34,18,23
32,435,82,51,50,35,19,19
40,505,82,68,76,33,19,22
46,692,91,70,91,38,18,22
48,769,84,70,96,34,18,21
49,829,92,70,98,33,18,21
47,888,90,72,100,32,21,22
51,899,92,62,89,33,21,22
48,770,90,56,77,27,22,22
46,768,98,58,87,29,23,20
46,742,102,58,84,27,23,21
50,736,104,55,94,27,21,21
51,793,100,73,98,31,22,20
50,805,96,75,102,31,21,21
53,772,86,76,93,30,21,24
52,748,81,81,104,31,23,23
50,703,78,83,98,33,22,24
55,566,90,73,98,33,22,23
55,572,96,78,90,34,22,24
56,577,99,79,86,33,22,24
56,583,93,75,76,31,21,24
59,579,104,74,76,29,22,24
51,567,109,64,72,28,21,25
51,532,104,55,79,25,21,24
49,490,111,55,77,24,20,23
49,565,111,50,80,25,21,23
54,571,118,62,75,24,21,24
47,572,100,59,68,21,21,21
60,548,125,73,64,21,20,24
62,515,116,70,66,27,22,22
66,451,112,75,60,29,21,24
57,464,102,71,56,31,20,21
56,512,106,71,65,30,21,22
45,531,86,64,65,31,23,19
48,523,87,59,66,27,22,20
53,504,93,54,64,26,21,20
53,517,86,43,66,26,21,19
56,499,83,50,64,27,20,21
55,524,73,40,64,27,19,21
52,523,71,41,61,28,20,22
41,527,65,40,62,26,18,21
43,549,75,49,65,26,18,22
53,534,75,56,73,25,18,23
52,515,74,60,74,25,19,23
52,563,76,70,78,26,19,24
52,531,82,71,78,25,20,25
51,523,71,67,76,25,21,25
42,599,79,62,79,24,20,24
41,598,83,58,78,25,19,23
38,577,84,49,75,23,19,22
39,589,79,55,77,26,20,23
42,546,85,59,77,26,22,22
37,467,84,63,61,28,23,21
39,512,93,69,69,26,24,23
41,539,91,66,68,28,23,25
41,552,99,62,64,25,24,24
39,535,103,60,68,26,22,24
39,559,96,52,72,24,22,24
46,564,87,50,61,27,21,25
42,551,86,54,61,28,22,23
48,554,84,57,67,30,21,24
50,581,88,57,65,32,21,25
50,547,86,57,62,34,20,25
60,500,94,72,74,34,22,29
64,546,91,69,84,34,22,29
69,573,131,68,90,33,21,30
75,571,137,72,93,33,22,31
75,607,139,73,97,31,22,30
64,591,140,55,91,28,21,25
65,582,157,68,85,26,23,26
57,550,124,66,75,25,24,22
58,534,106,67,72,26,23,20
61,503,108,66,64,28,21,20
59,492,101,66,72,30,21,18
60,428,88,55,86,30,20,21
60,427,91,54,90,33,20,21
49,508,94,51,90,31,21,21
49,513,95,58,92,28,22,23
51,559,91,58,88,27,22,24
43,537,79,59,71,26,22,19
40,553,68,61,67,23,20,20
42,571,90,59,67,23,19,22
39,581,85,51,64,22,18,22
37,556,88,53,61,24,19,22
37,595,90,60,59,25,20,24
40,552,109,62,60,26,20,26
42,554,93,60,66,26,19,26
41,553,97,64,72,28,19,25
42,564,93,64,70,27,19,24
42,563,94,58,71,27,18,22
42,575,91,72,70,26,18,21
38,507,88,70,58,25,17,18
39,543,100,71,62,28,17,18
45,533,104,70,68,27,18,19
46,593,99,69,93,29,21,22
48,719,88,67,110,31,20,25
51,694,95,68,111,34,21,27
53,624,94,67,108,31,20,32
48,603,99,66,113,32,18,33
46,510,112,65,97,29,15,33
61,271,122,47,87,29,15,36
60,239,124,45,91,25,15,36
62,226,119,40,94,24,16,34
62,197,117,39,90,22,17,34
64,140,112,39,93,24,22,34
53,93,99,44,84,30,24,27
53,72,94,47,87,31,24,25
55,60,92,51,84,31,23,24
54,54,84,55,82,34,26,21
52,34,78,59,79,36,26,22
46,54,79,60,79,31,28,21
45,55,75,58,70,33,30,23
41,56,89,60,68,36,31,23
40,136,92,56,61,35,29,22
43,210,92,54,60,33,25,21
45,284,104,48,63,33,22,23
48,378,120,51,71,34,22,23
50,629,110,44,154,35,22,20
57,724,113,49,168,35,22,23
55,789,112,46,188,34,21,23
54,861,101,58,193,35,20,22
52,884,78,58,191,32,19,21
44,755,70,58,140,28,18,21
33,672,64,54,120,28,20,18
35,593,69,60,83,27,19,18
36,465,65,51,69,25,21,17
33,359,68,49,65,28,23,19
37,328,71,50,50,27,23,20
38,323,78,51,54,28,23,21
35,299,68,50,50,29,24,20
31,296,74,52,46,32,26,21
32,307,90,52,48,28,25,21
28,299,88,56,48,29,24,21
29,286,95,59,43,28,23,21
29,291,99,61,47,28,23,21
29,274,93,60,46,25,20,22
27,250,77,63,48,27,22,20
30,241,79,60,44,27,21,19
27,232,58,57,47,27,22,18
29,233,60,51,52,27,21,17
31,363,61,52,70,29,21,14
36,669,74,49,91,27,20,15
39,719,82,54,109,30,21,17
42,741,84,56,116,31,22,17
40,883,97,56,124,32,22,20
38,904,97,52,125,32,22,19
36,756,89,62,114,32,23,21
30,741,84,58,98,30,22,19
29,736,85,61,90,28,21,20
25,564,72,61,73,25,20,19
28,464,80,63,64,27,20,20
28,398,80,54,54,27,19,18
30,337,76,51,51,27,19,20
29,298,77,43,47,27,19,19
29,293,71,41,47,27,19,17
27,285,79,40,39,26,21,18
26,263,81,35,44,26,21,19
26,251,95,41,49,27,21,18
27,255,93,44,50,26,21,21
31,238,106,46,52,26,23,21
29,236,97,49,48,27,20,20
37,260,108,63,52,28,21,21
37,272,102,61,49,28,23,21
37,284,102,61,47,29,23,20
37,301,90,59,47,30,23,20
46,440,87,64,78,29,22,20
44,697,76,55,93,28,21,18
54,884,81,56,115,42,28,20
55,1012,82,59,142,43,29,19
55,1104,82,62,146,43,27,20
49,1076,94,54,143,43,29,21
47,953,90,50,135,45,29,21
34,788,88,49,118,32,20,19
34,619,86,45,85,30,19,20
32,425,86,42,76,29,19,20
33,379,75,42,50,30,19,19
33,310,80,47,42,26,18,19
36,296,73,48,35,26,19,19
33,282,72,49,43,26,20,17
32,291,72,48,42,27,21,19
32,280,76,47,42,24,20,20
33,274,74,45,44,27,21,19
31,282,71,51,55,28,21,21
32,282,73,53,61,29,20,22
34,286,74,58,62,30,20,21
31,291,70,57,63,31,20,22
28,300,79,62,64,30,19,23
26,290,81,53,54,28,18,22
25,293,84,52,51,30,18,22
25,453,85,51,77,28,18,22
32,690,88,60,88,29,19,23
34,724,91,59,101,29,19,27
39,728,98,62,111,32,19,29
40,762,98,59,119,33,19,28
45,724,107,57,117,33,17,29
45,532,112,51,117,32,16,29
47,499,105,46,107,33,18,26
47,513,110,50,99,30,21,25
45,471,113,52,83,26,23,25
41,412,103,53,64,27,23,22
37,382,98,54,48,25,22,21
33,372,97,53,47,24,24,20
30,363,86,48,43,25,22,22
30,360,79,49,47,25,21,22
33,493,75,46,76,25,21,24
36,719,77,49,92,31,23,23
37,805,101,47,97,30,21,25
37,819,99,50,97,31,22,23
41,856,104,59,100,32,22,24
38,825,106,61,93,32,22,22
35,677,101,57,79,27,21,24
36,598,79,58,80,28,20,24
35,582,78,56,83,24,18,21
39,535,77,52,77,26,20,23
36,465,75,53,64,29,19,23
38,414,76,57,69,27,19,23
39,374,68,57,61,26,20,22
40,363,66,59,62,27,21,22
34,343,68,51,61,24,19,18
34,342,73,51,58,20,20,18
33,341,73,47,54,23,21,18
32,344,73,51,53,24,21,18
31,338,83,55,53,25,21,20
28,352,84,61,55,25,21,20
31,346,85,62,64,27,23,20
30,345,87,64,63,27,22,20
33,453,104,62,79,29,22,20
43,698,95,56,101,31,21,20
44,811,90,58,107,32,22,20
44,859,89,60,103,32,22,22
44,871,93,55,103,31,21,21
42,843,86,63,93,30,21,22
32,678,88,67,66,28,20,20
35,551,87,59,59,27,19,20
31,485,90,63,54,25,17,18
32,459,111,74,59,28,18,19
31,419,105,67,57,27,19,18
30,391,106,66,55,26,21,18
30,374,117,69,51,27,20,21
32,367,113,63,52,29,20,22
31,378,91,53,42,28,22,21
33,381,93,50,41,27,21,21
38,379,101,47,43,29,19,22
35,365,89,47,43,31,19,19
36,369,90,48,47,29,18,19
34,358,88,44,46,28,17,19
36,353,86,49,48,28,17,19
34,483,84,49,74,26,18,20
44,676,90,48,109,26,19,22
44,769,97,50,119,27,20,21
49,834,100,56,123,26,19,25
49,884,96,59,126,29,20,25
48,878,87,60,120,32,20,24
41,780,80,63,94,29,21,25
38,698,75,60,83,29,23,24
33,637,66,58,86,30,23,20
30,577,77,52,82,32,23,18
28,497,73,49,67,30,24,19
30,446,85,45,63,30,23,18
32,427,83,45,59,30,22,17
31,413,86,46,50,32,21,17
28,399,77,46,48,27,22,20
31,393,89,48,48,24,20,20
31,392,93,52,54,28,19,21
30,398,89,52,53,27,18,21
29,406,86,49,49,23,18,22
29,407,85,47,47,24,17,21
28,407,80,52,49,26,17,22
25,418,60,46,47,22,16,19
26,469,65,47,68,22,17,22
35,656,74,52,94,26,17,22
44,725,79,66,106,29,17,22
44,723,83,62,105,30,18,21
44,726,89,65,105,31,19,23
45,702,89,63,103,34,21,21
43,525,93,62,85,31,21,20
35,481,92,49,78,30,22,21
37,493,89,51,87,30,22,23
36,554,83,48,92,28,21,22
36,570,80,53,81,26,19,22
33,565,68,61,78,30,19,23
32,542,74,59,76,27,21,22
33,569,71,59,75,25,20,22
33,505,71,57,69,24,20,21
33,497,72,53,70,25,21,21
33,499,73,44,71,21,19,21
35,466,76,47,68,23,17,19
35,433,88,47,57,23,18,19
37,502,90,50,62,25,20,21
38,504,89,53,70,26,18,21
38,512,91,50,74,27,19,20
39,526,79,52,80,26,20,23
38,513,71,47,88,29,21,22
39,439,84,46,92,28,20,23
38,499,86,45,88,28,20,22
37,514,85,55,86,30,24,22
36,527,94,55,82,33,24,21
34,512,86,56,73,30,22,22
41,519,82,54,69,29,23,22
41,507,83,57,74,30,24,22
49,547,89,60,93,31,19,23
49,549,84,58,95,29,19,21
49,574,85,59,99,30,19,19
48,551,92,65,102,29,18,19
49,526,96,63,98,29,17,19
46,529,88,57,86,30,17,19
47,524,89,58,85,31,16,20
45,521,89,57,81,31,18,20
40,550,76,52,77,34,17,18
39,533,85,64,84,32,18,21
37,553,92,64,81,29,18,20
34,549,90,66,80,28,19,20
36,548,93,69,88,30,21,22
38,552,92,74,84,29,23,23
38,524,87,61,76,31,25,21
37,468,95,56,75,31,26,22
41,509,101,53,73,32,26,22
39,515,108,51,63,31,24,21
40,519,120,44,67,29,23,21
38,540,114,43,67,29,22,20
38,500,108,45,67,27,21,22
33,504,109,42,73,25,22,22
36,500,106,42,75,26,22,21
34,509,93,46,72,27,21,22
37,514,92,46,73,27,19,24
34,524,90,49,73,29,21,23
39,469,90,54,69,28,20,24
37,467,84,53,65,26,19,24
41,505,90,54,79,24,19,23
37,511,88,53,79,24,19,22
40,528,89,50,78,25,17,20
35,517,84,48,74,25,17,17
34,520,84,49,75,26,17,17
30,515,75,49,70,29,19,17
37,533,85,58,68,30,20,20
37,539,75,58,65,28,21,21
37,573,78,57,66,30,22,23
39,544,89,58,66,29,22,23
46,564,121,54,64,28,22,25
41,553,117,48,64,28,21,23
41,530,121,47,69,27,21,23
46,525,122,50,71,26,21,22
44,552,114,53,69,26,20,23
40,466,88,58,70,25,19,22
40,556,89,59,67,26,19,23
41,565,87,62,66,25,18,23
36,553,88,61,67,25,19,22
40,556,101,59,70,25,20,22
41,550,101,59,67,25,20,24
42,507,95,59,74,22,22,24
43,508,96,59,77,24,23,26
49,500,94,55,74,23,21,27
46,500,81,56,80,23,22,27
42,520,85,55,79,23,22,24
41,450,88,54,73,23,22,23
41,460,94,58,73,24,19,21
34,518,94,59,74,23,20,20
34,533,97,61,73,25,19,21
31,547,83,61,71,25,17,21
35,569,89,63,86,29,17,21
31,561,83,57,90,28,19,22
31,510,78,56,91,33,21,23
36,500,82,57,88,30,21,23
37,519,92,59,88,32,24,22
35,519,91,58,72,29,23,21
36,530,96,61,64,29,23,21
38,575,104,63,69,24,23,20
37,556,102,59,74,27,23,20
36,524,101,51,75,27,20,21
38,526,100,48,78,29,21,21
38,515,117,46,79,29,20,22
34,502,114,46,79,32,19,23
34,519,110,46,77,30,20,23
39,535,109,53,77,30,20,22
39,538,113,54,75,29,19,22
39,547,90,52,73,26,20,22
39,533,84,51,71,26,20,21
38,568,88,50,68,26,20,21
35,565,86,47,67,24,19,22
31,546,88,46,65,24,19,22
31,533,89,48,64,26,18,21
35,523,90,49,64,26,17,22
39,458,90,51,62,29,17,21
41,511,89,50,68,31,18,19
41,517,75,51,73,31,20,20
46,528,81,49,71,33,20,24
43,507,83,45,64,31,22,22
38,556,83,44,61,29,21,23
34,470,85,46,54,26,21,24
35,440,86,46,46,26,20,24
32,424,93,47,52,25,22,21
32,413,95,49,51,25,20,23
34,391,95,51,53,26,20,23
33,417,95,43,55,26,19,22
35,398,108,47,56,25,18,20
31,387,100,52,54,24,18,20
31,436,95,54,58,25,20,17
30,388,98,51,58,25,21,18
31,372,93,51,53,26,21,21
30,397,86,55,63,28,21,20
31,381,80,49,61,28,20,22
30,319,81,52,59,27,19,23
28,365,74,56,61,27,18,21
33,366,75,60,70,28,18,22
32,363,77,58,62,28,22,22
31,397,86,57,71,29,21,22
32,439,85,54,79,28,23,22
31,405,92,51,76,31,24,23
25,429,98,51,74,29,25,21
27,437,93,52,75,26,23,19
27,457,87,53,74,27,24,18
29,436,99,50,68,28,22,16
32,437,94,51,71,26,20,17
32,435,97,60,67,25,17,17
29,425,91,56,65,27,20,17
37,439,102,56,57,28,19,19
35,447,96,58,57,29,20,20
38,448,108,62,62,28,19,22
37,422,98,49,60,28,21,23
40,458,107,53,63,30,21,26
37,380,99,53,66,27,22,26
37,353,98,54,61,27,22,26
33,382,86,52,51,26,24,24
33,360,83,54,49,26,26,23
43,288,82,55,62,24,24,23
40,339,78,53,63,24,23,23
40,347,70,53,68,24,24,22
46,412,67,48,78,25,22,23
49,485,71,48,85,26,22,23
40,494,61,54,82,28,23,21
44,531,79,68,84,30,26,22
42,593,81,68,82,28,24,22
35,560,85,71,84,29,25,21
33,535,83,70,86,30,25,21
42,587,84,66,89,28,25,23
42,560,70,56,90,26,22,23
43,501,67,54,90,27,23,23
46,494,59,50,83,28,23,23
46,503,71,53,77,27,19,23
39,455,73,46,67,27,17,22
40,486,77,42,66,28,17,22
41,506,80,44,66,28,16,23
39,502,80,45,68,28,17,20
39,512,83,41,71,28,17,20
39,537,89,41,76,29,20,21
35,510,82,41,75,29,20,22
35,507,87,42,79,28,20,21
35,512,102,43,78,26,20,23
34,501,113,45,73,26,21,24
32,507,113,47,68,24,19,22
29,505,112,48,63,28,21,21
31,479,115,52,58,28,21,22
40,534,110,50,85,30,22,21
39,525,96,54,108,34,27,19
40,473,87,56,119,42,31,18
46,442,108,69,124,47,38,20
48,469,98,76,130,55,43,19
41,455,91,78,116,59,45,18
44,566,90,78,105,59,43,21
43,652,91,77,95,55,42,23
40,684,71,66,89,50,34,20
36,682,72,57,83,42,28,24
42,648,98,72,96,38,23,28
39,531,99,71,87,36,23,26
43,412,105,71,87,32,21,28
41,341,109,69,88,29,20,30
43,288,114,65,90,27,18,29
38,222,99,50,78,22,17,27
43,181,91,45,79,20,17,28
41,164,89,45,77,21,15,26
40,144,92,43,76,21,15,26
41,126,95,43,67,21,18,23
40,93,96,40,64,20,19,21
38,70,102,51,69,21,20,22
35,45,107,49,70,20,20,21
38,36,102,53,68,21,21,19
35,32,95,52,70,21,19,21
37,24,98,54,72,22,19,22
36,92,95,47,64,22,17,23
39,100,91,51,67,21,17,24
39,179,90,48,70,21,18,25
42,244,88,46,73,21,18,23
42,377,83,52,70,19,18,21
44,456,88,48,74,21,18,20
42,509,80,50,69,22,21,20
44,526,87,51,72,23,21,19
43,528,85,56,72,25,21,19
38,449,81,51,71,26,21,19
38,390,90,57,67,26,23,17
36,359,100,57,72,30,20,17
28,330,92,56,74,31,22,16
27,307,97,57,70,32,23,15
28,322,100,55,71,38,30,18
29,297,101,62,74,48,33,21
42,427,93,61,168,53,35,20
51,568,97,60,196,53,35,21
53,666,99,56,210,52,34,23
52,758,105,63,210,48,28,22
51,798,91,54,211,39,24,19
43,747,103,56,143,30,19,21
33,663,100,57,99,29,19,21
33,578,99,60,66,28,19,20
40,457,94,52,65,30,20,21
43,400,96,50,61,27,20,21
42,363,81,45,62,26,22,21
50,335,83,48,57,26,22,22
48,314,82,43,54,29,22,21
44,313,71,42,49,25,20,20
43,319,66,46,51,27,22,21
44,324,72,49,49,29,20,21
38,336,86,57,53,28,23,21
35,337,84,58,56,26,23,21
40,355,89,67,64,27,23,21
39,354,90,71,63,31,23,21
39,353,84,71,66,27,23,19
37,340,78,64,62,28,21,20
40,533,78,63,86,26,20,22
45,747,77,58,101,29,22,23
45,818,80,53,102,26,20,24
45,860,89,54,115,27,21,26
45,883,91,53,124,28,20,26
44,834,88,54,117,28,20,24
35,688,90,52,102,29,20,23
33,613,83,50,99,29,20,20
33,586,91,46,81,31,21,19
32,544,87,48,68,31,19,16
33,459,99,45,49,30,19,18
30,386,95,42,43,30,19,17
33,356,100,41,39,28,20,18
35,308,91,44,37,27,19,18
36,329,87,44,36,28,20,19
35,338,83,54,38,28,22,19
35,346,85,53,32,27,23,20
33,349,91,58,31,26,23,21
36,327,91,68,32,27,24,21
37,329,95,66,36,26,25,22
36,326,100,62,39,25,22,21
37,302,108,65,44,26,22,20
39,306,100,61,54,26,22,18
44,471,102,46,82,26,20,19
52,697,105,49,96,30,20,20
56,736,106,48,107,37,22,21
56,746,99,42,113,36,21,23
56,817,112,49,121,36,22,24
49,774,110,50,121,37,23,23
39,632,113,52,111,33,22,22
33,626,105,50,100,28,24,22
30,644,106,53,94,27,25,21
31,594,97,51,78,28,25,22
31,553,92,55,46,28,25,20
34,490,85,51,49,28,25,20
32,447,85,58,43,28,25,19
31,413,80,56,42,29,24,18
37,376,87,58,57,30,23,22
36,466,92,56,73,29,22,24
45,688,99,64,90,34,23,24
47,763,102,58,93,33,20,24
48,818,102,61,95,35,22,26
46,834,109,59,95,33,23,24
48,791,106,59,84,34,24,22
40,618,95,53,65,28,23,22
39,586,97,55,68,31,23,22
40,555,104,59,75,28,23,19
37,543,87,58,70,30,20,16
38,546,86,59,72,29,20,17
36,545,81,54,71,29,21,17
41,496,75,54,68,26,20,19
41,469,82,47,59,27,21,20
36,452,85,40,56,25,21,21
40,519,97,37,66,25,21,25
38,524,100,36,72,26,19,24
34,503,112,43,73,24,20,24
36,488,105,46,73,24,20,25
38,540,109,51,79,26,22,23
33,487,102,50,72,25,23,21
32,503,100,52,69,26,23,20
38,514,99,44,69,26,23,21
35,520,101,40,69,28,22,20
37,472,92,35,62,25,19,20
38,568,97,39,68,28,19,20
44,569,114,40,69,26,19,20
42,581,105,40,69,26,20,18
51,562,99,44,67,24,20,19
51,572,99,42,65,25,21,21
50,510,99,42,55,23,21,22
50,569,98,40,57,26,21,24
47,564,103,43,58,27,20,23
40,579,102,43,61,27,20,22
39,540,100,48,60,26,19,20
39,517,98,50,60,25,20,20
37,515,90,49,59,25,21,19
40,507,81,48,58,24,21,19
41,510,80,47,58,25,22,22
41,529,91,54,66,26,22,22
42,511,106,54,64,27,21,20
39,447,107,57,61,27,19,20
39,509,105,60,65,27,19,21
34,505,107,66,63,26,20,21
33,509,106,59,56,26,21,21
33,501,90,55,57,26,20,22
32,503,85,51,62,25,22,22
34,487,109,50,65,26,21,22
34,505,115,49,68,27,22,21
37,523,115,51,71,27,22,21
45,542,114,56,76,29,23,22
45,509,113,59,69,29,21,23
43,499,94,56,58,29,22,20
45,477,93,57,60,28,21,21
42,514,101,58,57,29,21,22
39,537,105,56,56,26,21,21
39,553,103,60,65,25,22,20
38,520,103,62,72,24,20,21
36,586,100,55,70,27,19,20
37,532,89,53,73,25,19,19
31,498,90,56,77,26,18,20
31,510,93,51,74,24,19,20
30,495,91,46,67,27,19,19
37,410,94,51,63,23,21,23
38,482,91,55,67,24,21,22
38,489,84,54,58,25,25,22
40,478,84,53,61,28,24,25
43,501,85,59,65,26,25,26
41,490,75,57,64,29,26,24
41,417,71,54,56,29,26,24
45,477,79,59,60,25,22,25
45,479,71,60,55,25,22,21
45,472,89,57,50,24,21,20
48,499,98,62,54,24,22,21
51,481,102,62,53,25,21,22
47,486,93,57,60,26,21,21
46,494,96,55,62,25,21,21
47,506,85,60,66,25,21,24
41,508,80,52,61,25,20,22
38,534,87,50,60,25,19,24
39,464,89,47,47,24,23,25
41,530,88,47,56,25,23,26
37,561,99,47,56,27,22,25
38,564,100,46,59,25,20,24
37,570,97,45,60,27,21,22
35,564,102,50,61,29,18,21
45,538,113,52,66,27,18,23
43,505,105,45,63,27,21,22
44,493,100,48,66,27,22,24
42,501,96,50,71,27,22,25
43,539,92,46,71,26,23,25
34,480,93,50,62,29,24,22
34,492,85,50,65,27,21,24
33,536,96,47,67,27,19,22
34,558,97,45,67,26,19,21
35,546,100,45,69,26,19,22
32,552,85,38,66,23,20,23
35,577,83,37,72,25,21,23
36,525,79,36,70,25,22,23
36,492,96,34,74,26,22,22
35,491,103,36,74,26,22,20
38,488,103,40,76,25,22,22
35,418,103,40,67,25,21,20
36,421,101,39,63,24,21,21
38,482,91,43,64,25,22,21
38,483,76,42,64,25,21,20
39,498,77,45,63,25,20,18
41,537,82,46,65,28,20,22
38,521,78,48,64,28,19,21
41,517,68,55,61,27,18,21
40,537,66,56,56,28,18,22
44,536,76,52,56,28,17,24
46,520,72,51,61,26,20,23
48,534,90,52,64,26,21,24
51,536,91,40,77,26,22,27
52,538,94,42,78,24,24,26
50,572,92,49,87,27,26,24
46,551,95,49,82,26,26,23
45,541,78,48,79,27,26,24
36,507,78,51,62,27,24,21
39,451,84,51,62,30,23,22
35,372,82,45,46,27,22,23
33,391,78,43,48,29,20,23
34,428,81,44,56,31,21,21
34,380,80,40,57,31,23,21
27,371,75,39,55,29,24,19
29,382,79,37,57,30,23,18
32,357,85,38,58,26,22,19
33,321,100,38,49,24,21,19
32,363,103,48,45,27,20,18
34,386,101,50,50,27,20,20
30,381,95,52,46,26,20,20
28,407,98,53,42,27,20,19
26,402,81,53,40,25,21,19
32,361,78,48,54,20,21,18
32,432,82,43,61,21,22,17
40,450,92,52,70,20,22,19
42,469,86,53,75,26,23,19
44,473,83,52,75,26,20,20
43,472,89,52,67,27,21,21
46,421,95,63,64,27,19,21
44,401,87,55,59,28,21,20
43,384,89,57,56,24,21,19
41,384,94,56,58,25,22,17
44,452,89,56,69,23,24,19
42,469,80,47,68,24,23,20
39,502,76,47,71,24,22,20
41,490,75,42,67,23,23,20
41,506,70,44,66,24,22,21
37,482,75,42,62,25,19,20
37,446,92,41,57,24,19,22
38,458,95,43,58,23,17,24
35,438,94,43,62,22,16,24
36,424,98,45,71,21,17,24
34,391,91,48,67,20,18,25
33,458,78,46,75,21,19,23
34,416,101,56,73,21,20,22
34,417,96,56,71,23,20,22
32,409,94,57,61,22,20,21
36,390,106,56,60,23,19,21
34,356,102,58,48,22,19,20
34,339,73,46,46,23,19,20
34,343,76,49,50,22,19,20
35,344,85,44,53,24,19,21
35,500,82,48,66,23,19,21
37,495,86,46,68,24,20,21
36,508,91,45,71,25,18,19
36,520,91,42,69,26,20,20
34,530,79,41,67,24,20,20
36,439,81,41,53,24,20,22
37,426,97,49,56,25,20,25
34,414,97,50,51,25,20,27
39,411,101,50,55,24,20,26
40,436,108,51,60,26,21,26
37,400,97,45,58,25,19,24
34,387,85,40,54,26,19,21
34,416,83,45,55,26,20,21
31,412,80,46,48,26,21,21
33,367,80,48,42,24,20,21
33,400,92,49,52,26,23,22
33,389,90,46,49,25,22,22
37,368,96,48,48,25,22,22
36,425,100,51,54,24,20,21
33,425,110,53,57,28,21,20
34,392,108,51,50,26,19,19
36,420,113,55,64,25,21,19
33,405,117,50,63,26,22,19
36,427,113,49,66,30,22,19
37,474,101,43,65,26,21,22
37,483,94,45,64,26,22,22
36,494,88,44,55,28,21,21
35,514,79,42,57,27,20,21
33,530,91,42,53,23,20,21
41,541,101,44,55,26,21,23
40,555,104,45,60,26,21,21
41,545,101,43,57,25,21,22
43,554,98,49,62,26,21,22
42,576,88,57,63,25,20,21
35,547,74,57,64,23,20,19
36,544,76,59,62,22,21,20
35,530,89,65,66,25,19,20
39,511,94,69,68,24,21,22
40,434,94,60,70,24,24,24
41,439,95,65,72,26,22,24
41,450,100,61,75,27,22,26
41,468,88,53,73,24,22,27
35,470,83,45,67,27,20,27
40,463,84,46,61,27,16,27
38,462,88,43,58,25,17,25
37,447,81,45,54,26,16,25
38,426,86,51,53,26,18,24
38,415,88,48,52,24,19,23
33,405,100,52,50,25,20,23
39,386,99,49,103,28,19,27
44,349,104,50,112,27,19,28
48,344,120,47,114,36,23,29
49,322,123,49,122,39,23,29
49,257,112,48,126,37,24,27
46,206,111,50,106,36,24,25
46,181,103,49,105,35,24,21
47,128,87,54,111,26,22,20
47,96,77,54,102,20,22,18
45,72,106,53,97,23,26,17
46,63,103,57,76,33,33,15
41,94,106,60,67,40,35,15
40,114,107,57,58,44,36,16
38,205,108,58,60,49,38,18
41,336,84,55,67,48,34,20
38,427,81,51,70,42,28,20
40,471,84,52,70,38,24,21
35,483,76,51,69,34,22,21
42,464,81,50,74,29,19,25
40,397,75,51,69,29,19,24
44,331,87,54,75,29,18,25
44,272,84,49,82,28,19,24
50,257,84,54,79,27,20,26
49,237,91,55,73,28,19,20
49,213,95,56,72,28,20,21
45,160,85,54,65,29,21,20
42,145,90,59,60,29,21,20
39,119,91,59,64,32,22,18
35,108,80,56,66,38,28,25
35,95,73,59,66,39,32,29
37,86,85,60,64,41,33,30
40,52,92,61,60,40,33,33
36,67,104,56,58,38,31,36
34,70,107,57,62,30,28,33
44,294,122,58,103,39,25,29
52,494,126,57,148,36,23,30
50,635,119,48,155,40,24,27
53,760,108,47,159,38,25,23
67,862,115,50,178,42,24,25
62,889,104,55,161,33,22,25
54,841,89,56,120,33,23,22
56,774,85,59,113,29,23,24
52,678,92,60,105,30,24,24
34,571,75,56,59,26,24,20
32,473,74,51,52,26,24,20
35,423,81,48,62,25,24,20
30,392,83,49,60,28,23,16
33,381,82,48,63,28,22,17
33,373,80,48,64,27,20,18
32,378,82,45,61,26,22,17
30,374,82,49,49,27,20,17
34,379,80,46,44,24,21,20
32,377,71,47,37,25,21,19
29,383,88,49,36,27,22,18
30,378,89,52,36,26,20,20
34,388,92,48,40,24,19,21
33,371,91,50,38,25,19,18
38,467,119,49,64,23,20,21
43,659,117,53,94,27,21,23
45,770,116,51,105,30,21,23
42,777,111,52,107,29,22,22
43,812,111,49,112,29,22,23
40,792,99,50,114,33,23,21
35,666,87,44,98,29,21,19
34,553,87,44,92,30,22,20
33,552,87,46,90,34,23,19
32,518,86,47,85,36,22,18
33,475,72,51,70,34,23,20
33,430,73,50,61,33,23,20
36,455,76,53,66,30,22,19
39,610,76,50,88,29,21,20
41,675,76,58,98,27,22,22
41,732,78,58,103,27,21,24
47,745,85,58,108,28,21,25
44,720,88,53,101,29,22,25
43,574,84,52,85,25,21,24
42,576,84,45,83,25,20,24
43,524,86,42,80,27,20,21
35,533,79,44,72,27,20,20
36,550,73,45,76,27,20,21
32,540,78,49,74,28,21,21
32,487,87,47,64,27,22,21
30,545,83,65,61,26,21,22
30,540,90,64,64,25,22,22
29,517,92,68,62,25,21,21
30,541,91,69,61,27,23,22
33,498,87,76,64,26,22,24
33,423,98,61,63,25,22,22
42,447,94,65,72,27,23,25
41,464,95,66,70,28,22,24
43,466,100,64,76,27,22,24
39,486,98,56,84,29,22,23
47,474,88,65,92,30,22,23
42,501,91,66,94,27,22,22
44,513,86,61,93,25,21,23
44,519,81,60,91,26,20,24
47,525,95,61,82,27,18,25
38,512,97,54,70,27,19,26
37,472,94,53,61,27,20,27
38,513,105,55,68,28,21,26
40,527,105,62,72,31,20,25
37,538,93,64,72,28,20,23
38,564,88,64,72,29,20,21
38,534,85,64,76,30,19,20
35,519,84,60,68,31,19,19
33,496,79,57,61,28,22,19
38,486,79,57,62,28,22,19
37,474,79,59,64,30,20,18
38,489,80,62,57,29,21,19
38,421,76,63,55,28,22,21
38,412,75,60,57,26,18,22
35,459,82,59,68,28,19,22
36,448,84,55,65,24,20,23
35,459,83,51,76,25,20,22
35,466,76,54,83,26,19,21
36,466,80,54,85,27,18,20
34,484,76,48,80,26,19,19
39,495,74,60,101,29,20,19
43,491,77,60,100,32,22,19
44,518,87,60,95,29,23,19
45,494,99,61,92,30,24,19
47,515,102,67,89,31,23,21
44,542,106,59,72,29,22,22
39,551,102,53,61,26,19,23
40,553,92,55,65,28,18,25
38,591,71,60,65,27,19,25
36,491,81,56,64,25,19,25
38,528,90,60,67,26,20,25
38,531,91,59,75,25,20,23
40,534,98,59,72,28,20,23
39,535,99,57,72,28,19,23
42,548,86,56,74,29,20,24
38,542,78,50,70,27,21,22
38,548,78,52,66,28,20,21
38,531,73,56,64,23,20,21
38,541,78,52,63,21,21,22
39,547,89,51,59,21,22,23
55,472,97,66,59,23,22,26
56,456,98,64,52,20,22,28
58,497,102,60,63,24,23,27
59,475,102,61,64,27,22,27
56,492,89,60,76,28,23,25
45,507,80,43,73,28,21,23
46,513,93,44,82,31,23,23
40,461,90,40,80,30,21,23
38,458,93,41,82,29,21,22
39,453,103,39,74,28,19,22
39,464,104,46,72,27,19,23
47,459,104,50,70,25,17,22
47,516,99,49,68,26,19,22
47,513,93,51,65,27,20,21
52,504,91,58,65,29,19,23
48,501,84,51,68,32,19,22
42,500,76,48,61,30,19,21
40,436,85,49,57,33,21,21
41,483,101,49,69,31,20,24
36,500,94,46,71,32,21,21
40,514,94,46,73,31,20,22
40,514,101,46,76,34,22,21
38,564,95,47,73,30,21,23
41,522,85,51,72,33,21,20
40,515,87,48,73,35,21,20
53,501,103,49,73,37,23,24
54,504,97,47,76,37,23,25
54,479,99,45,79,37,22,24
62,493,115,57,80,39,22,29
63,520,119,56,87,36,22,29
54,519,106,58,91,35,21,26
53,515,100,59,90,34,20,26
57,502,101,62,91,36,21,27
49,509,87,49,86,34,22,23
50,492,83,54,75,32,22,23
48,496,94,54,74,34,23,24
47,487,97,59,77,34,22,23
42,472,93,64,80,30,21,21
37,473,80,62,79,30,22,22
41,464,98,65,84,32,23,22
41,466,91,64,79,31,22,21
39,484,98,65,78,30,23,23
50,497,107,65,80,31,23,25
49,490,109,79,78,28,20,24
45,487,102,75,72,27,21,23
43,473,96,75,75,25,21,23
45,482,88,73,76,26,21,21
37,497,89,72,70,29,22,20
38,514,100,60,72,30,23,19
38,503,89,60,82,35,21,19
39,512,94,59,78,34,20,19
38,485,96,57,71,33,21,20
35,464,91,50,71,31,19,21
38,444,84,47,67,30,21,25
37,427,86,46,54,24,19,25
34,433,83,54,55,26,19,24
41,441,87,58,65,25,19,27
38,429,88,57,66,28,18,26
37,429,85,54,67,27,19,23
39,445,89,55,70,28,21,23
40,391,88,45,65,25,22,25
34,356,102,46,58,28,22,21
36,396,98,49,57,29,22,20
33,372,93,48,54,31,22,20
28,341,113,46,50,30,21,19
31,392,120,54,53,33,21,18
29,397,107,50,46,32,21,20
30,384,108,47,41,29,21,22
30,429,109,47,46,27,20,22
32,505,81,47,55,27,20,23
32,523,72,48,55,25,21,23
29,538,69,51,58,25,21,22
28,558,80,59,63,25,23,22
31,609,94,61,67,27,21,21
33,585,102,61,64,27,21,21
32,570,102,55,77,28,18,20
36,567,100,55,80,29,18,20
36,543,93,53,79,30,16,18
40,471,101,59,79,27,17,22
38,513,93,61,79,30,19,22
38,508,90,60,66,29,19,22
37,498,95,56,67,30,20,21
42,488,95,55,68,30,20,23
38,496,70,53,65,30,20,20
44,509,79,55,70,28,20,21
43,495,80,54,70,30,22,22
42,534,73,58,67,27,20,22
43,521,73,55,65,25,21,21
41,507,78,50,62,24,21,21
36,451,84,50,54,23,21,20
41,498,96,53,61,22,20,20
40,489,103,48,57,23,20,20
37,512,101,50,59,25,23,19
39,480,107,55,63,27,22,20
41,495,103,56,79,32,26,22
42,684,90,57,83,42,27,21
45,843,91,59,89,44,28,23
43,897,94,59,90,43,25,26
41,924,90,64,92,44,25,28
37,895,86,62,87,42,22,27
32,720,96,61,90,33,21,26
33,481,97,59,97,30,19,28
37,364,105,58,102,29,18,29
38,305,108,53,100,26,19,26
43,289,107,54,95,24,18,29
49,353,105,52,102,22,16,30
50,352,109,52,97,25,16,28
50,319,101,53,100,28,16,26
52,292,95,55,102,29,19,27
49,267,98,50,100,33,20,24
41,134,95,55,85,31,21,21
43,111,87,57,86,33,23,23
41,75,84,53,73,34,25,22
38,64,98,50,72,34,25,22
40,67,102,54,74,30,25,23
41,95,99,50,76,34,27,23
39,118,93,48,80,33,25,21
40,157,97,48,79,29,24,20
41,211,79,46,75,27,21,20
39,264,67,42,74,29,22,20
42,382,74,46,83,26,19,21
38,403,79,47,79,24,18,19
41,428,74,50,84,25,17,19
41,425,72,48,86,27,20,18
47,498,75,45,138,30,19,20
45,566,79,46,161,30,19,19
45,598,94,46,161,31,20,20
41,593,104,44,160,31,21,21
40,592,106,45,160,29,19,22
36,541,113,49,122,26,20,21
34,410,106,48,76,27,19,22
32,480,95,53,77,29,19,22
40,579,87,57,86,31,18,22
40,657,91,60,90,31,18,21
39,700,90,59,94,32,19,19
40,731,92,58,106,31,18,19
40,744,94,62,103,30,19,19
35,746,95,57,101,28,21,21
34,699,105,55,97,28,20,20
34,667,94,52,92,25,20,21
32,642,94,50,79,26,22,19
36,551,86,43,74,23,22,20
35,514,89,45,72,24,22,20
36,527,78,40,73,24,22,22
37,540,86,44,71,24,22,23
40,560,85,44,74,22,20,24
36,552,94,42,74,23,20,24
37,503,92,43,65,21,20,22
34,543,97,43,63,23,20,22
35,547,97,43,65,23,19,21
33,547,93,47,68,25,20,21
36,569,87,46,68,26,21,19
33,549,87,47,65,27,21,21
36,526,78,53,77,27,20,22
34,501,78,62,73,26,22,23
36,486,85,58,67,28,22,24
33,480,85,57,65,25,23,25
36,488,89,55,71,26,23,24
33,427,86,52,57,26,23,23
30,423,76,39,56,26,25,21
33,498,85,47,67,24,25,20
33,490,85,48,67,30,23,18
33,503,80,51,64,28,22,18
38,492,78,55,70,28,22,20
39,489,80,57,69,28,18,21
41,462,66,58,57,29,19,21
43,474,63,59,60,27,19,23
41,465,66,56,58,28,20,24
38,497,77,50,51,32,21,20
41,477,80,47,50,31,21,21
38,516,83,40,61,31,20,21
35,524,85,36,63,29,19,20
36,540,85,37,66,29,18,21
39,556,80,40,66,25,20,23
38,586,85,50,68,26,21,22
39,499,89,49,57,26,21,24
40,545,96,53,52,27,23,26
41,539,97,52,52,28,24,24
38,532,93,51,54,28,22,22
39,541,85,42,54,29,21,23
42,532,99,44,54,30,21,22
46,517,99,49,58,29,20,20
43,501,97,49,57,28,20,21
41,486,100,48,60,27,20,21
44,471,107,51,60,25,20,20
41,491,92,50,66,23,20,21
37,421,90,42,66,23,21,21
38,413,97,43,69,23,20,22
39,470,105,49,68,23,20,24
36,472,112,46,77,25,20,25
36,478,119,44,78,24,20,25
36,495,114,42,77,24,19,24
38,521,108,46,79,24,20,25
38,477,100,44,77,24,20,23
34,487,86,47,68,23,20,23
30,495,72,52,64,25,21,24
33,505,79,53,65,26,20,24
36,489,82,52,65,25,21,25
39,538,81,52,70,26,22,24
45,541,83,48,71,27,20,26
46,537,89,47,70,28,19,24
45,541,80,47,69,26,20,24
41,556,73,46,59,26,20,22
40,486,81,51,58,25,20,24
36,533,89,52,61,21,20,21
36,535,91,52,59,20,20,21
39,513,95,51,57,21,19,22
40,508,96,55,73,19,19,22
43,554,94,50,77,20,20,21
40,528,90,48,80,21,22,22
41,522,91,45,85,19,22,23
38,521,88,45,84,22,22,22
36,516,89,43,72,26,21,21
35,495,84,44,68,27,20,22
36,437,79,43,61,30,18,21
34,468,74,47,60,31,19,19
33,487,82,45,68,32,20,21
35,480,81,44,70,30,20,21
36,496,87,46,69,30,19,19
38,527,86,50,70,29,19,19
38,481,82,49,64,27,18,20
42,468,80,54,58,26,20,20
42,468,78,54,58,25,21,21
43,464,80,49,55,26,21,21
40,462,78,50,60,26,20,22
39,484,75,49,68,29,21,23
35,484,74,50,68,30,19,21
33,547,79,48,70,29,19,22
30,544,77,47,73,27,19,23
35,541,83,43,66,27,18,24
38,549,84,44,60,25,17,24
38,575,86,38,60,25,19,24
40,537,98,42,62,25,18,24
42,518,107,47,57,27,20,24
40,504,105,54,62,31,20,24
37,482,105,53,63,30,20,25
38,488,112,53,76,30,19,25
43,464,108,50,80,32,21,24
43,462,94,44,84,33,20,23
43,474,92,35,84,30,21,22
45,480,100,39,82,30,22,21
45,450,91,40,73,29,20,22
38,452,81,51,72,28,20,21
36,472,79,54,71,26,20,21
37,472,80,59,71,24,21,21
35,472,71,55,73,25,19,21
35,464,71,56,73,24,19,21
38,490,77,52,73,23,20,23
46,480,97,59,73,26,21,24
47,457,97,57,72,26,21,26
45,469,104,57,75,28,23,26
45,503,113,60,78,28,23,25
42,479,108,56,75,33,22,23
30,519,97,47,80,35,20,22
30,510,100,42,80,36,20,20
30,472,98,49,73,36,19,21
32,425,89,55,66,35,19,21
33,450,93,52,64,32,21,21
37,378,95,54,56,28,21,20
34,368,88,55,56,28,21,19
41,404,87,55,69,26,20,21
38,399,81,42,71,28,21,20
37,383,76,46,71,27,17,20
34,376,71,43,68,27,17,21
36,390,85,47,68,27,17,22
30,367,87,39,56,24,19,20
30,388,90,42,55,24,18,21
31,401,95,39,53,24,18,20
34,417,100,51,57,23,19,21
32,412,92,47,68,24,22,19
31,426,87,49,67,28,21,19
32,432,87,48,68,28,22,17
34,407,79,56,66,27,23,19
32,405,75,49,67,30,23,19
33,422,75,55,55,29,23,21
37,400,75,56,60,26,22,21
39,411,76,56,59,25,22,21
35,410,78,52,62,27,22,22
37,403,78,56,58,25,22,22
38,398,81,61,65,26,20,23
35,430,84,60,67,27,20,23
37,389,82,60,66,26,20,24
38,374,88,59,64,25,19,24
36,406,80,53,67,25,18,25
37,383,85,44,58,24,18,25
36,335,83,44,54,25,19,23
35,367,93,44,58,26,19,23
36,365,90,41,57,26,19,22
34,336,97,44,51,25,21,18
31,354,109,45,54,26,23,17
35,401,108,44,66,28,21,20
35,498,101,48,73,28,22,20
32,561,107,48,89,29,21,19
34,551,112,48,94,28,20,23
39,616,104,47,99,29,19,24
35,636,109,46,91,26,20,24
33,576,105,41,89,26,19,23
33,557,114,42,75,23,19,25
34,556,106,42,68,23,20,22
33,513,96,42,71,24,22,22
39,557,90,46,83,27,21,22
38,546,93,48,80,27,21,22
44,535,70,52,84,29,20,23
42,549,80,59,87,32,20,22
46,527,77,60,79,30,19,24
47,483,88,60,77,28,20,24
50,484,85,62,83,26,20,24
47,471,86,57,80,27,20,22
46,480,73,50,82,24,18,22
45,461,98,58,85,24,20,21
38,441,97,57,75,24,19,21
35,443,95,54,64,27,20,21
38,494,95,60,68,26,21,21
39,502,101,61,67,25,20,21
34,519,76,50,62,29,20,21
35,481,66,47,64,31,21,21
35,500,80,48,82,30,19,22
34,467,111,48,105,30,18,25
38,429,119,48,110,30,19,29
46,395,129,47,118,32,17,29
50,388,135,55,130,38,24,29
51,318,131,54,136,39,23,28
52,230,109,51,122,41,25,25
53,206,99,51,124,41,25,19
50,189,86,53,122,36,25,18
49,139,82,48,116,29,21,16
49,86,88,51,97,29,25,16
45,73,88,49,90,36,29,17
43,66,89,52,81,40,31,18
38,90,93,52,77,43,34,17
41,131,97,55,69,45,35,21
39,205,88,51,74,43,33,20
42,299,97,56,76,39,29,23
38,375,91,53,73,36,26,24
39,380,87,51,69,33,23,27
34,399,78,48,68,30,20,25
35,390,82,51,60,30,21,26
33,352,75,44,58,29,21,22
36,298,75,45,59,27,22,21
39,295,95,51,63,27,24,21
38,264,98,48,58,28,25,21
35,243,99,52,62,26,25,21
32,201,98,55,63,23,24,20
