169,461,92,167,599,797,75,56
203,497,84,144,646,931,78,62
213,494,86,173,603,977,73,68
218,468,82,178,529,990,77,70
193,492,76,166,524,1009,73,107
190,485,79,174,518,1018,68,110
142,421,74,194,459,942,71,109
118,388,71,163,454,933,74,104
110,397,73,179,450,928,69,116
136,402,82,226,454,943,72,101
139,409,82,220,441,974,73,103
129,406,82,203,411,955,69,102
139,385,77,190,396,917,71,103
149,367,90,176,382,900,71,90
128,326,89,118,348,851,88,86
136,335,91,122,323,792,89,88
154,346,90,124,328,799,89,95
150,359,89,129,331,797,90,104
141,387,84,124,341,785,87,107
143,381,77,119,337,830,66,121
136,364,69,107,336,870,65,117
119,376,73,106,363,879,69,114
116,365,81,108,393,915,62,110
122,365,77,90,382,955,60,114
121,363,74,91,396,933,58,83
163,410,81,108,404,910,59,85
175,379,78,119,408,863,60,82
172,390,68,109,365,810,64,77
175,391,85,112,387,767,68,96
168,411,93,116,365,746,65,95
126,363,91,118,360,714,69,97
127,380,91,103,326,735,63,100
181,382,93,113,340,772,62,106
174,420,72,107,336,778,63,92
187,493,73,104,336,813,75,135
205,537,76,92,348,852,75,134
189,562,82,96,350,863,74,136
179,558,97,90,371,869,74,139
216,534,99,91,343,858,74,140
208,472,100,90,377,855,73,107
245,442,105,108,346,854,72,112
252,419,101,124,379,835,74,115
232,413,95,142,353,827,73,111
224,387,96,145,350,827,70,108
239,399,91,171,361,796,70,108
187,385,80,169,373,761,70,103
186,484,81,158,467,819,69,107
218,544,75,143,481,814,69,104
195,566,72,149,509,792,71,97
182,556,79,140,491,775,77,117
182,567,76,126,524,768,73,113
183,497,100,132,430,681,80,103
187,424,103,138,420,633,81,106
184,384,105,130,393,631,87,108
176,425,115,150,395,621,99,102
179,404,119,158,365,605,105,100
166,403,100,149,364,619,104,98
137,433,107,170,379,650,102,107
138,426,105,168,379,637,96,104
178,408,91,130,369,660,92,108
219,428,96,134,367,675,89,115
222,394,94,150,357,647,91,116
216,401,101,135,344,612,98,110
215,410,102,134,327,616,97,108
203,434,115,147,321,615,86,86
160,424,112,136,324,598,85,90
157,441,116,132,331,619,78,87
167,430,101,155,349,625,78,82
169,430,99,162,363,642,83,84
139,456,85,150,369,633,77,83
153,488,100,154,342,637,77,98
158,533,100,148,408,740,78,101
155,557,127,103,427,743,75,117
152,584,129,91,437,709,73,118
170,541,128,102,447,704,79,123
162,521,127,98,456,685,90,110
160,464,125,94,390,545,92,111
141,408,102,91,335,519,98,92
150,390,108,92,317,528,98,95
131,339,102,88,309,527,95,83
150,324,95,94,312,537,84,76
150,332,98,113,300,544,84,85
162,333,90,121,304,553,75,85
162,339,93,135,305,569,76,100
166,343,94,142,315,527,70,107
147,342,88,135,316,520,71,107
180,316,93,126,318,508,67,97
182,314,97,125,320,475,67,113
176,268,96,110,307,431,66,99
205,266,99,93,272,451,72,95
206,229,96,98,259,423,69,93
205,248,93,105,282,440,68,95
211,262,95,103,288,488,65,79
256,262,93,101,299,510,62,90
246,316,93,102,308,555,56,86
280,323,91,100,326,600,55,85
268,322,82,81,309,615,59,95
253,311,79,74,302,620,67,98
254,316,83,80,290,608,68,86
271,271,86,78,273,555,66,84
232,289,94,80,252,518,66,91
231,285,92,90,246,474,71,112
256,280,98,96,233,415,63,108
247,280,95,103,248,422,63,113
245,268,91,106,262,425,65,118
244,272,90,116,283,457,71,117
250,277,95,116,282,519,80,108
253,294,90,122,305,541,82,111
239,321,95,117,297,543,82,108
219,320,98,115,299,568,80,106
247,306,92,99,282,565,76,111
235,310,89,91,274,511,60,97
237,312,87,82,246,522,58,90
223,299,93,88,290,526,61,92
228,306,85,87,300,516,62,94
201,307,92,90,309,505,65,85
213,299,100,105,330,528,64,83
180,303,102,105,353,531,65,79
171,287,88,99,310,528,61,77
158,303,93,96,307,532,65,78
172,325,84,96,296,554,66,82
168,366,90,80,283,557,72,84
186,373,93,78,275,539,71,85
191,373,90,74,277,516,72,79
202,358,98,83,299,524,96,88
186,329,99,83,284,503,91,80
169,279,83,79,294,513,89,70
168,318,85,84,277,514,99,90
212,324,93,85,276,550,102,94
203,331,80,75,256,559,75,81
211,335,82,75,273,603,82,96
216,334,83,76,258,618,80,95
202,294,69,67,285,682,82,81
173,278,75,69,297,704,78,82
154,280,88,68,284,729,78,81
163,318,94,66,273,707,76,70
188,347,94,68,273,691,82,97
195,356,106,74,238,669,72,100
182,360,96,78,225,636,70,97
201,362,90,88,227,615,70,96
184,336,85,88,224,637,68,102
183,317,94,86,228,666,65,93
185,316,81,86,262,680,69,92
188,346,95,83,278,728,70,93
172,338,95,73,279,742,68,92
172,347,97,69,287,757,71,85
151,325,91,66,277,738,68,83
148,296,93,65,243,694,60,78
161,342,97,72,276,679,57,82
168,352,96,77,286,688,57,81
164,347,106,79,299,665,55,88
157,362,106,83,318,671,65,74
141,389,108,78,329,726,65,77
118,344,102,79,295,744,68,72
107,381,102,82,285,745,74,87
108,387,87,81,295,771,71,78
113,393,89,82,283,797,67,90
141,395,88,89,292,782,62,87
153,384,78,81,286,757,59,87
149,339,84,73,297,736,59,108
162,324,90,71,292,719,56,109
168,360,87,65,310,699,50,101
157,324,86,54,295,663,49,106
151,341,80,51,306,659,55,108
157,346,82,45,294,662,53,75
145,354,74,47,270,638,53,67
156,322,76,51,263,633,53,81
149,323,77,50,267,685,63,75
133,311,81,48,257,701,64,91
127,324,71,51,268,713,59,95
122,317,73,51,268,731,60,97
139,316,71,51,269,720,61,84
133,347,73,54,284,687,53,84
136,344,69,53,283,661,58,75
164,347,82,50,267,617,58,82
181,389,95,52,277,589,61,86
154,390,101,56,261,568,66,93
159,360,99,59,245,553,65,92
157,362,103,62,245,592,55,87
172,337,93,62,244,624,57,81
166,286,83,59,239,640,51,77
187,284,75,50,248,658,44,69
184,289,87,41,244,656,43,83
183,284,86,33,238,609,43,76
145,311,85,34,252,600,38,75
132,325,84,45,238,581,46,74
84,322,85,49,246,552,50,74
82,336,70,54,252,557,52,58
90,330,63,59,257,558,54,58
101,320,65,58,256,546,55,50
118,329,61,52,289,592,50,58
122,332,60,54,279,624,43,53
120,355,61,50,274,646,40,57
118,383,62,49,284,679,40,59
122,384,61,51,276,682,39,63
111,400,60,49,270,652,37,56
118,407,63,50,259,677,36,64
130,389,69,51,254,638,36,70
125,383,75,48,253,588,34,74
106,378,73,49,260,580,38,78
119,359,78,51,247,566,37,78
111,363,73,46,265,528,37,74
93,359,75,46,264,578,38,69
108,347,71,48,255,614,38,63
107,368,72,47,279,624,42,55
89,359,76,44,280,654,42,54
119,364,84,44,267,649,43,60
122,396,88,43,277,634,46,53
106,399,85,41,286,631,45,54
116,383,98,38,265,610,49,51
129,400,110,43,402,575,51,54
101,395,115,41,514,565,50,54
102,390,113,43,683,544,51,54
104,394,121,43,743,551,53,53
92,400,117,44,753,563,47,55
77,401,104,47,696,598,45,51
81,405,101,53,625,629,45,45
81,385,110,62,430,645,44,43
81,378,105,77,315,644,41,51
81,381,103,84,296,643,38,51
70,391,100,82,279,626,43,52
61,453,92,86,355,613,43,49
56,478,73,81,377,620,52,51
65,478,91,70,382,614,52,41
66,476,88,76,373,612,55,63
65,473,95,75,391,638,53,64
65,435,108,67,337,650,54,69
62,401,108,68,322,641,45,68
59,403,98,68,312,641,43,71
57,396,98,53,330,652,43,56
61,371,87,53,322,612,41,64
71,340,80,54,315,588,41,64
78,461,122,57,372,571,39,65
75,640,121,72,565,712,53,70
76,671,135,72,608,793,52,72
79,729,146,73,652,882,55,63
72,751,144,76,662,897,55,73
65,763,115,71,710,1005,56,75
60,685,114,62,629,970,45,72
59,680,96,61,615,919,47,67
62,653,90,67,576,863,44,71
74,676,84,67,593,874,45,60
74,594,75,65,512,743,43,54
74,526,70,66,443,634,45,47
76,510,84,68,399,605,46,50
70,471,75,61,382,554,45,45
58,393,76,54,323,487,43,45
63,405,85,55,308,487,47,56
62,418,85,46,336,555,42,62
56,413,70,40,346,585,44,60
54,409,77,38,343,601,47,59
52,415,89,41,356,631,46,57
46,398,79,40,349,652,43,45
44,372,81,40,318,610,45,36
46,359,82,60,299,589,45,41
47,356,71,60,302,603,44,40
43,365,58,62,291,624,46,45
46,361,62,66,291,634,47,46
45,385,59,67,317,660,46,45
54,409,64,55,344,667,43,48
50,433,65,54,371,668,43,48
55,407,67,52,387,642,59,47
56,411,68,47,392,628,60,47
60,374,69,46,364,605,63,51
65,346,64,41,340,604,61,45
66,324,63,42,315,590,61,42
91,373,89,49,303,588,53,48
93,367,84,53,288,580,51,46
111,393,86,60,296,572,56,45
125,380,88,59,295,551,54,44
128,373,87,60,279,542,55,44
142,343,59,79,311,528,52,51
143,336,59,76,322,538,52,52
137,322,56,74,324,557,45,62
125,323,54,77,320,549,48,70
127,325,56,76,326,561,52,75
104,306,67,52,280,569,48,71
103,322,70,51,284,577,49,70
100,319,78,49,267,579,46,59
112,327,77,43,269,612,50,54
109,315,78,44,278,602,48,59
97,363,82,40,318,678,48,64
95,369,83,47,335,721,48,67
89,381,86,41,349,735,48,74
66,421,89,45,363,750,40,71
58,440,96,46,381,790,43,65
54,421,90,49,353,763,47,51
49,419,91,42,333,748,48,49
49,417,82,43,326,720,48,48
45,404,85,41,346,703,48,51
49,404,81,39,325,671,46,46
56,391,75,41,316,612,40,48
59,369,76,42,311,564,39,47
55,343,78,43,306,572,38,36
56,329,74,45,278,589,38,32
55,312,76,46,276,602,35,33
51,319,72,44,290,633,42,32
48,321,71,43,280,608,43,40
52,332,72,41,302,612,43,38
48,320,77,39,295,607,44,36
48,306,78,36,290,573,45,50
44,286,81,38,283,542,37,49
55,322,81,43,303,586,35,45
52,322,77,44,274,562,35,46
52,307,71,45,266,513,32,45
52,320,67,49,271,516,31,30
50,318,68,47,263,508,30,35
40,295,70,43,248,466,30,36
39,328,86,40,244,458,31,42
36,314,86,39,234,431,42,49
41,309,84,41,221,430,41,49
42,330,88,41,233,440,42,45
52,308,88,44,253,434,41,44
50,271,78,44,265,455,44,41
53,356,82,43,334,572,40,40
52,391,83,38,373,628,44,40
54,418,76,38,400,648,44,40
46,435,71,38,389,651,44,38
50,437,66,37,386,638,38,35
53,385,58,35,338,547,39,29
53,343,66,33,290,471,40,36
63,286,65,36,248,460,39,35
60,262,65,35,240,458,39,36
72,239,87,40,237,448,46,44
70,233,90,40,224,458,41,42
69,238,84,42,241,455,40,41
57,257,93,40,243,428,41,43
57,279,92,39,245,452,44,44
40,350,80,39,302,474,37,39
36,401,90,38,341,476,40,43
37,423,88,36,355,496,40,41
42,421,81,37,352,494,41,40
45,422,90,37,349,474,41,39
46,365,86,34,296,464,43,49
46,309,85,38,259,454,45,47
46,318,85,40,222,418,44,45
45,306,91,41,213,431,42,49
53,325,89,41,247,433,42,49
57,353,87,42,258,456,42,38
61,375,82,44,270,501,37,39
60,336,85,44,285,516,41,39
60,332,81,43,284,504,48,35
51,293,78,44,269,520,47,33
46,263,90,43,274,483,45,35
50,231,96,40,268,420,47,34
49,218,96,41,248,403,46,38
48,210,97,44,251,391,48,37
53,224,100,49,227,362,47,39
60,238,88,48,208,393,47,38
58,235,79,46,207,439,47,42
58,249,77,45,212,459,44,38
59,245,73,42,206,495,35,38
67,243,73,35,213,512,36,43
60,228,74,34,218,501,35,41
67,295,72,42,209,494,35,52
69,328,72,39,232,486,32,53
72,338,77,38,242,486,30,53
65,354,72,43,257,481,30,47
67,357,71,44,263,485,31,48
58,311,69,42,260,466,34,29
68,312,72,41,289,545,39,36
64,325,64,39,298,540,39,36
104,394,81,42,326,628,44,43
106,403,81,43,325,641,43,44
108,431,84,39,342,687,44,44
103,420,77,38,317,629,40,38
104,412,79,42,317,652,41,38
72,336,63,39,288,576,36,30
67,323,65,38,286,561,35,26
77,264,125,46,262,501,30,31
77,245,129,48,239,516,32,33
79,255,131,46,218,455,33,36
67,246,131,43,205,463,34,37
69,283,139,47,213,502,42,39
53,285,88,40,216,523,38,34
58,280,90,39,224,551,37,32
53,271,90,36,228,595,38,30
57,281,94,37,225,575,38,29
53,257,80,30,236,576,31,28
57,278,90,37,247,581,32,30
51,283,81,38,245,530,30,27
50,299,81,39,252,511,37,24
48,315,70,36,265,549,37,32
52,342,85,45,281,563,37,33
51,357,89,40,297,645,38,35
48,353,90,43,301,686,41,35
53,344,101,49,304,720,37,35
56,326,108,53,292,765,38,36
56,322,100,48,269,805,41,38
54,329,92,51,246,747,41,39
57,339,91,49,240,750,41,40
53,353,80,44,219,740,42,41
59,348,82,41,212,685,40,39
56,330,83,36,195,643,39,39
56,325,74,31,201,683,39,38
51,321,79,29,206,681,42,38
61,350,78,30,233,692,38,39
54,366,76,31,244,719,40,37
56,383,80,33,247,713,43,36
53,358,80,36,251,712,43,33
56,356,76,40,250,725,41,33
42,314,76,36,236,709,42,29
41,346,70,37,254,704,40,25
38,316,57,41,257,700,33,21
37,327,64,42,255,657,31,21
34,329,68,39,257,619,33,27
39,328,67,40,254,624,30,30
36,273,65,39,220,596,33,30
34,273,66,38,222,573,34,31
38,278,70,37,224,609,41,32
39,280,66,39,211,653,41,30
40,278,73,38,218,673,42,28
47,322,79,36,242,712,42,28
47,316,85,33,231,726,41,32
47,317,76,34,240,721,43,31
48,334,78,30,249,694,40,30
49,387,70,29,295,715,42,31
47,401,73,31,301,714,40,33
48,414,68,33,308,712,41,27
49,425,68,32,298,716,36,38
47,414,76,35,311,730,35,36
45,356,80,37,262,685,32,36
53,310,82,43,251,678,32,37
56,312,88,43,253,683,34,39
56,292,92,42,247,681,36,32
61,302,83,42,234,679,37,37
62,310,94,42,239,691,38,37
62,310,89,34,224,667,40,36
59,319,86,35,226,655,42,35
58,315,82,35,236,646,40,33
56,317,81,34,236,631,41,34
62,319,76,37,243,624,41,35
54,315,80,34,249,641,43,40
57,310,74,33,249,683,42,41
57,354,78,32,246,706,40,44
58,359,80,36,244,734,42,40
48,368,73,32,245,745,43,38
45,387,67,32,264,738,40,32
44,405,73,35,256,709,41,35
51,370,76,35,246,683,41,48
47,368,80,35,254,640,42,48
52,371,84,34,243,623,40,50
57,353,85,40,214,601,39,50
61,319,83,38,224,575,40,48
62,312,87,37,225,561,47,34
67,319,87,34,218,573,43,32
73,314,86,32,230,579,45,33
73,332,79,25,234,606,50,31
69,361,72,28,234,660,49,29
64,383,65,26,253,695,43,33
66,383,62,29,259,707,44,35
58,378,59,31,271,716,41,34
53,393,73,32,301,760,37,35
52,395,74,31,304,741,34,35
57,395,78,31,302,733,34,29
45,387,75,30,294,717,32,29
50,395,72,32,280,701,32,28
53,380,55,31,255,641,27,26
52,370,64,33,258,633,24,27
50,366,68,33,253,614,24,25
52,357,74,35,273,638,25,22
47,365,73,33,286,631,26,23
44,377,83,43,326,663,25,22
45,369,80,42,319,657,26,21
40,369,77,47,328,649,28,20
43,385,72,45,332,634,28,22
48,382,74,46,314,612,27,19
50,384,64,39,272,561,28,19
51,387,71,40,270,558,29,20
53,380,72,34,266,556,27,25
49,379,71,33,263,570,28,24
41,381,69,30,297,638,29,25
42,365,97,34,310,649,29,26
41,377,89,33,330,644,29,25
52,385,82,33,329,650,29,27
51,377,83,35,314,625,26,27
51,381,84,37,296,554,25,25
55,395,66,34,281,533,24,28
54,370,66,34,263,507,23,27
42,361,70,37,252,481,21,23
54,352,73,41,250,448,22,27
54,333,73,41,244,472,22,29
46,296,65,41,250,475,22,28
45,308,65,40,247,490,24,28
47,297,63,37,255,489,25,28
32,316,60,31,267,526,28,22
43,352,62,28,289,561,30,23
47,387,56,31,310,609,30,21
50,403,58,38,322,637,28,23
52,414,60,38,331,666,31,23
51,414,67,39,327,679,28,24
49,379,74,41,317,654,29,24
46,345,76,38,297,624,29,23
45,319,77,32,284,603,31,23
49,317,86,33,268,575,32,24
53,293,79,36,265,525,32,25
48,299,71,34,251,513,31,23
48,307,69,32,250,495,32,24
50,318,71,34,248,502,31,23
47,329,62,31,255,524,28,22
45,335,63,28,246,581,34,23
45,340,60,30,261,604,33,25
47,333,65,32,264,629,33,24
53,328,60,32,277,636,32,25
47,327,54,34,295,649,32,23
52,331,58,37,310,650,33,23
51,332,57,36,304,648,31,21
51,343,48,35,312,651,34,22
61,350,82,41,314,664,37,25
67,330,84,39,293,655,36,26
68,338,91,37,291,630,30,27
72,348,96,37,291,636,42,28
70,338,101,40,282,629,40,27
57,357,82,35,280,615,37,24
53,376,80,35,286,626,37,24
47,364,67,35,280,635,42,24
43,370,66,36,288,636,33,23
45,396,79,36,298,662,33,24
44,368,80,33,296,678,35,24
41,354,89,36,302,678,34,24
40,362,93,34,300,706,30,23
39,353,93,33,290,708,31,21
38,334,77,32,289,702,37,23
35,352,69,31,283,699,35,23
35,365,57,28,274,697,35,21
35,359,62,28,276,675,34,22
36,365,60,27,279,689,33,22
36,356,61,23,274,665,33,21
42,342,65,28,268,667,35,24
43,340,65,26,271,678,37,24
43,329,62,30,271,651,38,24
40,314,63,30,272,635,37,26
39,326,62,33,278,663,33,27
37,325,56,30,280,637,32,22
45,311,57,32,285,618,32,24
42,347,46,28,298,648,35,23
43,351,48,31,294,619,34,23
44,340,57,30,300,600,34,25
43,339,57,30,303,616,33,24
32,331,56,29,294,597,35,24
42,308,61,29,283,583,37,26
43,299,62,27,276,610,37,26
41,308,67,25,253,599,38,27
44,311,71,26,248,577,38,27
47,336,70,26,257,608,35,27
40,337,67,29,248,614,29,25
38,322,63,29,271,597,30,25
42,326,61,29,282,605,30,22
37,312,62,26,290,605,31,22
37,305,62,30,284,598,35,23
35,320,61,26,286,583,35,22
40,340,60,28,261,575,32,21
48,332,52,31,272,582,31,24
49,345,57,32,273,596,32,25
48,335,58,28,256,569,31,24
52,324,57,31,263,574,31,26
48,331,56,29,271,593,34,26
39,313,59,31,259,573,36,25
39,435,50,33,364,667,37,25
38,462,51,35,392,691,33,25
34,463,63,36,396,690,39,23
47,463,74,38,396,661,38,27
47,472,69,35,390,649,37,26
48,368,72,37,288,530,37,26
48,317,70,36,249,487,38,25
49,302,66,36,243,471,32,26
46,305,58,38,243,504,36,24
47,295,63,41,238,495,34,24
43,298,62,39,236,488,35,24
44,311,63,41,258,514,34,26
47,306,57,38,252,509,35,26
43,289,56,33,248,505,32,24
40,310,61,33,252,510,34,24
42,294,59,34,246,508,35,23
44,283,61,30,223,468,33,22
46,294,74,33,212,464,32,22
46,278,71,34,198,411,32,24
46,263,63,30,194,444,31,25
43,262,66,32,218,463,28,26
41,261,64,34,229,471,34,27
34,293,56,36,260,503,35,27
33,289,62,36,273,560,38,26
37,292,63,37,281,568,39,25
38,293,61,35,277,573,42,24
41,311,67,35,271,597,38,22
42,268,66,33,251,611,37,20
42,273,69,35,250,568,32,19
42,271,74,44,252,522,32,19
41,264,80,43,232,490,26,19
43,250,77,43,233,449,29,20
44,240,73,44,220,379,29,21
43,278,70,43,229,417,31,23
41,264,64,33,209,426,30,24
47,280,61,32,210,445,31,23
46,287,64,36,208,454,32,22
45,287,66,35,212,473,33,22
45,256,61,42,196,464,33,22
49,259,68,44,208,512,34,21
44,235,64,44,204,497,35,20
47,256,70,44,234,544,31,23
54,265,70,43,233,568,31,25
56,279,74,34,242,564,30,24
58,272,71,34,241,540,31,25
57,292,71,40,258,633,31,25
61,334,81,43,246,612,30,25
73,342,83,46,245,601,31,28
72,339,81,46,234,629,33,27
72,354,86,45,238,615,31,26
73,348,87,41,232,546,31,27
72,285,68,34,220,578,30,24
62,278,61,29,232,567,29,21
60,261,61,30,242,541,26,23
61,264,64,35,247,567,28,24
63,261,62,35,243,580,27,24
57,268,59,34,241,560,27,25
48,275,64,32,236,625,26,23
52,292,72,31,222,631,27,23
45,269,61,24,204,651,26,21
42,278,64,23,222,680,30,20
40,268,68,23,234,690,31,22
44,305,73,29,244,686,32,22
41,299,72,30,252,726,31,21
40,308,77,35,254,690,32,24
38,311,75,35,238,684,29,24
40,327,76,41,240,681,29,23
47,293,72,39,234,642,35,24
45,290,68,37,235,620,34,24
45,307,59,35,259,694,35,25
47,291,59,37,256,671,34,24
55,307,70,35,238,708,33,23
51,344,70,35,247,727,28,20
53,342,64,36,248,747,28,19
52,333,67,36,235,729,32,18
52,337,75,34,234,735,37,18
46,317,60,32,230,684,36,19
39,277,60,31,209,676,35,19
38,280,62,28,211,660,35,22
41,271,63,26,196,643,30,21
45,295,61,30,207,668,27,24
44,295,66,28,228,738,28,23
46,303,80,33,230,761,30,26
44,301,80,34,229,790,35,24
46,312,79,36,241,811,37,25
44,311,82,33,235,830,35,24
42,307,83,33,241,837,35,25
40,286,75,30,235,816,34,30
38,293,80,31,235,786,32,31
36,296,91,30,254,769,30,32
36,273,83,29,250,737,29,33
35,270,85,32,230,683,28,32
35,279,83,31,236,673,30,25
36,299,77,30,233,683,27,34
38,304,84,31,207,689,27,32
36,299,88,31,207,681,29,30
34,295,83,28,212,697,30,35
38,313,89,27,218,738,26,40
40,309,87,24,224,740,34,35
37,313,75,26,226,730,36,37
39,324,72,28,221,720,35,37
42,331,78,30,231,704,35,33
38,329,66,32,238,663,36,29
36,333,72,34,236,650,29,25
43,341,73,34,253,651,30,24
43,361,74,33,278,668,28,25
43,374,67,32,269,683,29,25
45,386,71,32,276,694,27,24
51,380,79,35,281,700,27,24
43,351,74,34,263,696,25,24
55,354,74,36,266,675,24,24
56,333,76,38,262,642,24,24
57,316,73,37,239,600,25,25
56,306,62,36,240,569,25,24
60,310,66,39,246,540,25,25
49,277,66,37,221,508,29,25
56,309,58,42,227,513,29,24
56,314,59,40,257,580,31,24
56,363,77,39,277,658,31,31
64,412,81,41,283,727,33,33
63,414,80,40,292,764,33,32
62,425,94,37,310,801,34,33
61,429,98,37,295,792,31,33
66,408,84,44,273,732,35,32
55,373,77,42,271,680,32,29
58,385,79,45,265,680,31,30
55,341,64,44,233,623,28,37
54,333,60,45,227,607,30,37
47,324,66,40,223,613,26,36
45,329,64,41,204,616,28,35
48,326,60,44,205,617,29,36
51,384,76,48,211,642,33,28
50,368,72,48,213,675,33,27
46,369,68,45,229,696,37,27
50,379,66,42,245,719,37,33
52,426,69,36,262,742,38,35
57,413,57,37,270,742,34,37
60,433,62,38,282,745,35,37
60,425,59,39,280,730,35,35
61,436,69,41,297,695,34,30
54,425,67,40,289,676,33,27
44,407,70,35,287,672,34,31
43,400,71,36,281,655,35,30
42,418,72,39,274,672,29,30
40,399,63,39,267,705,36,31
46,395,72,39,258,694,35,31
44,388,64,37,254,692,34,22
42,403,64,35,268,680,30,23
44,403,64,32,279,650,31,21
45,404,67,32,268,627,23,27
39,374,56,31,273,638,23,28
39,368,62,39,279,622,30,30
36,364,55,38,283,636,32,30
37,365,60,36,274,650,34,32
37,369,65,38,274,673,35,27
39,384,67,38,277,683,36,25
38,422,65,33,310,722,35,25
38,414,71,34,312,728,36,25
35,407,66,35,318,743,35,24
43,417,64,35,330,722,37,32
43,412,66,36,325,697,35,33
43,382,63,38,307,661,31,30
48,381,64,39,289,607,27,31
50,363,69,39,279,565,27,31
40,339,64,35,261,538,23,22
42,347,75,40,258,515,30,23
55,354,78,39,244,493,36,26
53,340,76,38,237,511,38,25
53,344,79,39,237,517,37,25
55,339,82,40,242,519,39,25
56,324,68,38,254,547,36,23
67,319,68,40,259,570,36,32
69,337,64,40,269,573,36,32
74,345,64,44,290,590,37,33
74,349,58,44,286,604,37,34
73,340,58,43,284,605,38,34
64,333,58,41,297,598,34,26
63,320,63,41,297,600,34,25
56,316,67,38,291,611,39,26
58,311,68,36,295,594,40,25
59,317,70,40,296,587,39,25
47,321,68,37,276,582,38,29
45,323,66,38,275,575,36,30
44,320,54,35,258,543,31,28
40,332,59,35,264,548,28,29
35,323,59,30,256,566,31,30
38,335,61,33,279,600,30,26
38,328,58,32,285,616,31,26
38,339,60,31,292,642,32,27
39,325,58,34,303,668,33,27
39,336,57,32,306,659,28,27
34,341,50,31,294,647,29,24
32,369,54,30,306,671,31,24
31,372,68,30,301,676,30,22
33,382,66,28,294,665,30,23
35,410,64,28,302,675,30,22
37,392,64,27,300,675,30,23
36,378,61,29,288,633,28,21
38,364,40,29,294,617,25,21
40,355,59,31,282,610,24,21
42,327,64,31,278,589,26,21
41,325,64,29,276,596,24,21
41,323,65,30,291,617,25,23
45,334,68,29,289,639,27,26
39,351,52,25,299,653,27,25
37,344,54,28,287,653,26,25
36,337,59,28,291,643,29,25
39,336,64,24,279,650,28,24
36,321,60,28,276,616,30,22
36,323,64,29,272,606,29,23
39,337,60,25,287,632,30,24
42,341,54,25,282,614,28,22
42,335,54,25,288,610,28,24
43,351,55,26,297,639,27,23
44,326,51,28,294,629,29,22
42,299,52,33,293,619,29,22
38,312,61,35,299,660,29,23
39,308,59,38,280,655,30,21
58,292,75,40,296,640,30,25
59,305,75,38,298,667,29,25
59,316,74,37,299,657,30,25
64,310,70,38,292,627,31,28
62,334,68,33,301,638,28,29
49,347,65,30,294,637,29,26
55,361,86,31,295,622,30,31
53,363,84,27,291,645,32,29
51,359,85,28,295,634,30,26
54,342,87,29,297,626,33,26
48,336,76,28,284,638,33,24
42,311,51,28,282,628,31,20
42,302,50,28,294,622,31,22
38,315,47,25,294,665,33,21
42,326,58,24,307,653,32,25
43,333,57,25,312,655,31,25
48,346,67,27,308,651,32,25
50,340,69,29,286,629,29,24
51,336,69,30,281,602,29,25
46,326,59,31,273,587,30,22
47,317,67,34,260,567,30,23
40,294,60,33,263,581,30,21
38,301,62,34,286,567,29,22
38,290,65,35,287,567,29,21
38,276,63,34,275,587,28,21
36,367,51,32,344,635,27,22
38,403,51,39,370,662,28,23
37,427,55,37,396,678,29,22
37,437,53,37,395,685,29,22
39,444,53,40,392,666,27,23
40,372,57,41,331,638,28,21
42,330,60,36,298,578,29,20
42,283,55,37,243,560,30,22
41,257,53,36,235,514,28,23
44,280,56,34,254,529,30,22
44,271,64,31,245,480,30,22
40,274,57,28,238,462,29,23
40,272,54,26,235,447,27,23
39,272,56,28,234,447,27,22
36,243,65,28,226,419,29,23
34,223,62,31,226,424,27,23
33,231,70,30,229,462,26,23
33,253,71,29,228,493,25,24
34,261,74,33,233,510,24,24
41,301,76,33,234,524,21,23
42,315,69,33,241,512,23,24
44,321,62,33,244,497,23,24
54,393,65,35,259,524,25,26
64,421,70,34,268,515,30,29
101,433,57,35,255,513,31,29
104,446,59,34,281,585,31,30
110,450,64,40,295,638,32,29
108,376,72,45,295,618,33,26
105,335,65,44,283,615,29,24
73,268,65,46,288,602,27,23
69,232,67,50,255,532,28,22
62,214,73,49,239,460,28,22
59,219,61,43,216,417,28,21
60,246,57,44,211,428,29,21
52,275,57,40,214,509,29,21
56,275,54,35,203,530,27,21
57,276,52,38,202,546,28,20
56,275,56,38,214,570,27,23
54,291,57,36,226,576,25,22
62,268,58,39,233,508,24,21
61,273,60,41,253,482,24,21
58,268,52,38,255,470,25,20
64,272,53,39,241,440,25,21
61,229,52,40,219,403,26,21
62,452,55,44,354,648,28,23
73,670,53,57,526,847,32,23
76,783,50,62,623,1040,32,25
73,837,49,65,681,1093,34,22
77,866,51,67,702,1125,34,24
70,800,45,66,650,1025,33,21
57,661,42,58,538,909,29,22
52,535,39,53,437,684,26,22
52,444,34,50,351,610,25,26
45,397,30,49,320,564,25,25
46,347,29,44,300,516,25,26
42,275,28,41,266,486,26,25
52,257,28,42,238,508,25,24
46,237,26,41,231,497,25,21
48,229,27,42,229,501,25,22
46,219,27,43,248,542,28,22
48,209,25,41,244,521,29,22
43,242,37,41,244,538,31,23
50,267,38,41,256,581,30,22
52,259,39,45,251,576,32,23
53,282,40,45,257,572,30,23
53,304,40,44,266,607,29,23
47,291,30,42,268,572,27,21
49,469,36,50,408,685,27,23
55,723,42,56,606,833,29,22
53,791,42,60,656,975,31,23
53,851,44,61,697,1021,32,24
56,874,44,66,718,1059,33,24
51,817,40,59,665,1008,35,24
44,631,32,54,500,927,32,24
49,555,31,49,441,795,30,23
46,452,27,51,368,718,28,21
44,396,29,49,322,698,29,22
43,344,29,49,282,672,26,21
45,300,30,43,271,649,26,20
40,267,28,46,248,630,25,23
41,278,29,42,273,677,25,22
37,296,25,38,267,700,25,23
39,311,30,35,273,718,25,25
32,315,29,43,281,741,27,24
29,313,32,38,276,776,27,21
27,308,33,39,251,759,27,22
30,291,35,38,257,729,26,21
25,266,32,40,243,711,26,19
31,258,31,37,258,679,24,21
42,460,35,43,416,748,23,21
60,748,44,64,614,950,28,22
62,828,44,65,689,1084,31,20
66,878,43,65,745,1167,32,23
74,896,43,62,753,1195,32,21
72,834,41,59,701,1182,33,22
60,604,29,37,549,1065,29,20
64,502,29,35,463,950,28,21
60,433,29,33,372,855,26,21
48,400,27,35,336,844,29,22
42,357,26,34,278,830,28,24
42,338,24,34,259,781,28,24
29,329,26,39,243,756,27,24
29,308,24,40,246,764,29,23
32,307,28,43,264,732,29,22
43,294,31,46,268,677,32,23
47,320,36,46,264,680,31,24
49,319,34,45,256,667,30,25
50,305,35,47,248,654,30,28
50,309,39,46,250,670,29,27
42,298,39,43,244,652,23,26
42,442,38,47,375,702,26,27
51,694,42,53,589,915,26,26
56,739,43,54,641,1035,27,24
55,775,42,58,671,1098,29,24
54,797,41,58,681,1104,30,23
54,731,40,55,644,1088,29,21
48,509,39,47,485,931,27,23
45,448,37,46,423,782,28,23
45,397,35,41,370,691,24,26
49,389,34,39,344,708,27,25
44,357,32,41,301,685,28,25
43,340,34,41,259,672,30,23
42,334,51,42,270,697,28,26
44,306,57,49,251,682,31,26
47,293,57,50,258,660,28,27
49,323,60,49,284,628,29,27
47,361,59,50,295,624,27,29
45,399,46,47,276,601,28,25
48,415,39,39,284,616,47,26
53,414,41,42,281,613,113,44
148,530,68,92,294,642,226,88
206,564,101,119,318,644,353,147
317,600,150,169,375,641,566,309
333,640,164,231,439,641,597,338
349,636,167,233,439,641,602,343
346,521,164,220,445,604,585,353
326,450,166,211,546,612,525,384
238,461,153,183,549,619,291,315
236,412,229,103,540,601,222,348
220,436,263,100,586,641,187,346
188,500,295,97,570,653,140,331
191,555,300,87,460,641,113,277
171,522,291,70,415,662,103,233
179,533,231,78,422,657,157,144
217,545,202,96,402,617,370,185
347,610,186,155,455,658,599,297
373,636,175,165,471,637,702,325
379,621,168,169,498,611,730,328
389,607,168,162,461,622,743,334
383,577,154,172,476,597,679,341
278,453,144,147,578,570,505,288
240,380,157,139,591,594,361,265
242,385,173,135,566,593,304,262
204,460,199,134,601,610,242,245
168,503,200,104,578,655,188,206
148,523,177,72,425,649,136,147
137,538,163,79,394,636,126,123
207,563,156,93,446,634,253,130
330,561,205,129,504,608,510,266
361,571,212,191,505,579,691,309
372,560,221,214,515,578,762,326
381,529,214,211,509,577,761,325
356,484,208,205,468,575,732,320
278,400,133,194,396,601,599,246
239,338,128,135,435,598,381,187
227,337,108,90,417,564,207,156
208,374,125,88,426,557,195,166
186,379,123,84,445,548,175,195
132,407,111,55,398,525,106,180
124,401,122,57,339,521,83,176
129,419,167,60,356,540,82,177
117,417,157,59,368,540,69,166
102,442,160,59,342,531,55,121
96,436,160,58,350,552,67,84
92,439,144,54,334,574,67,77
66,416,87,46,306,573,62,56
63,400,76,42,272,601,61,47
56,361,69,37,274,629,62,44
53,340,67,43,245,599,36,29
50,335,57,44,247,582,35,27
57,397,52,53,329,566,40,35
66,594,53,61,550,648,47,36
73,704,54,70,643,809,53,39
90,729,66,73,660,887,54,43
121,757,71,76,689,930,56,50
169,734,78,75,678,946,122,94
179,622,83,71,561,911,169,114
248,512,116,125,478,773,286,173
319,522,146,152,492,709,453,259
340,531,158,163,476,659,529,287
329,522,158,165,448,652,532,282
340,471,158,167,409,615,525,278
302,445,133,134,383,607,479,253
230,400,96,110,437,613,333,178
185,355,71,93,446,644,197,128
162,441,65,85,446,638,156,111
120,454,60,80,461,607,135,103
92,458,61,69,468,599,97,82
60,444,52,47,381,551,75,44
47,409,49,45,344,494,48,40
49,338,46,48,343,505,41,36
51,317,45,47,288,496,35,33
46,313,41,45,256,486,32,29
43,320,42,44,259,517,27,28
44,331,40,40,257,509,26,25
43,305,35,35,247,511,26,27
42,334,50,40,273,564,26,28
42,339,55,44,278,558,28,28
41,340,56,42,268,537,28,25
44,354,61,41,285,591,27,28
43,427,64,39,350,596,29,26
66,662,81,47,557,770,33,27
81,783,81,50,634,974,39,44
89,829,84,70,672,1004,45,45
90,840,90,82,678,999,45,46
99,825,96,110,659,1025,47,47
99,650,96,105,517,891,46,51
95,506,99,105,438,671,43,40
92,441,115,97,386,640,43,41
106,475,124,100,400,609,46,42
112,437,153,169,515,582,51,47
105,430,162,173,519,593,51,44
122,437,214,184,534,572,56,55
159,491,280,189,591,585,72,84
219,481,303,195,618,589,90,111
251,494,303,138,537,530,96,140
274,555,302,141,530,489,102,153
276,662,296,135,527,527,108,172
264,639,242,146,487,510,122,165
222,654,242,342,575,517,129,165
195,668,250,376,603,582,139,163
203,660,286,394,669,628,150,161
243,580,290,420,689,619,144,160
260,550,316,481,674,594,135,178
316,487,297,368,573,568,128,166
352,515,285,339,551,519,125,158
348,450,244,357,495,455,115,172
325,438,238,354,477,455,132,163
324,466,220,334,670,506,131,148
275,510,236,402,852,535,127,148
256,480,261,432,918,588,150,168
259,490,262,406,954,645,148,149
285,554,257,420,961,650,145,163
304,532,235,391,858,632,153,177
298,551,219,337,691,721,153,189
296,553,202,296,627,735,124,166
286,574,207,313,600,713,124,164
264,505,177,276,593,697,115,145
236,509,175,242,572,704,101,124
237,428,168,265,564,587,98,99
212,389,148,255,520,525,98,100
198,333,139,220,446,488,96,102
180,301,131,224,453,500,102,104
170,308,128,236,436,478,109,104
177,353,131,196,452,504,110,105
168,392,140,204,490,516,100,95
217,434,144,220,542,551,105,95
220,456,153,199,518,540,111,96
216,456,169,180,523,509,105,99
209,431,167,175,480,482,102,98
221,406,156,175,433,466,106,99
172,360,149,209,434,439,107,99
211,341,156,209,426,446,87,98
221,316,133,205,416,451,84,88
247,380,133,202,475,465,85,94
262,365,130,225,537,457,84,95
271,397,152,231,499,467,89,101
240,381,139,237,523,488,94,95
240,402,155,241,545,526,94,96
238,336,164,262,502,542,92,91
207,342,170,264,426,551,92,94
221,349,161,226,434,557,80,82
231,334,165,222,394,523,81,92
242,309,151,220,385,480,75,105
214,303,137,195,398,450,76,103
229,280,139,178,462,425,78,104
209,196,130,195,479,402,74,103
202,234,130,227,562,428,71,90
198,231,130,250,576,453,72,78
204,258,130,261,574,491,72,91
219,272,144,250,551,532,73,88
215,289,145,245,529,536,77,92
218,296,151,227,478,519,90,142
201,303,152,234,458,576,91,137
228,300,147,236,484,558,89,149
194,309,124,262,501,567,87,150
193,305,131,262,524,596,93,148
200,297,127,285,540,632,90,123
189,304,141,309,591,604,89,126
183,294,150,308,564,626,96,108
179,284,161,298,563,600,96,102
193,294,159,311,537,612,91,134
186,275,152,290,498,604,81,121
213,297,147,241,500,599,85,122
224,306,144,249,481,579,76,124
245,311,132,232,474,609,78,126
239,309,140,208,568,548,94,107
232,303,142,209,573,510,97,100
224,263,151,215,590,499,101,100
187,233,149,186,604,492,112,92
202,200,147,191,625,452,115,100
197,268,128,194,637,544,108,89
202,288,125,167,622,581,101,88
184,326,127,163,583,606,100,80
216,367,127,163,580,632,96,88
187,413,145,158,533,645,87,111
209,373,151,147,418,607,83,128
197,377,166,154,453,638,94,130
224,354,149,175,433,624,90,131
228,357,152,175,453,598,91,127
226,315,133,173,464,594,95,102
205,325,124,168,473,566,87,73
214,334,106,173,445,497,80,70
191,340,103,154,430,516,89,98
217,293,93,156,404,560,91,111
252,288,90,167,410,575,90,108
254,275,96,178,419,608,97,112
253,277,108,177,461,660,98,115
254,361,132,200,532,635,101,107
195,385,138,206,578,633,101,100
174,433,150,226,563,639,100,103
166,427,145,226,575,629,98,100
160,421,139,229,542,620,100,125
162,348,136,213,485,674,86,113
161,350,147,212,464,658,91,113
141,302,139,211,504,681,95,112
143,307,144,206,511,739,93,111
151,323,157,195,565,727,93,100
155,315,138,186,602,723,92,96
184,400,126,186,593,767,88,99
172,406,138,167,584,745,91,103
171,412,136,199,543,717,89,112
162,419,117,209,493,725,89,112
157,413,127,206,436,679,91,117
148,364,139,224,469,641,82,111
146,362,124,221,470,650,82,107
146,396,125,208,461,619,94,103
149,368,140,200,461,635,97,98
139,377,130,193,466,697,96,92
125,367,118,173,473,709,98,94
123,351,117,177,458,734,95,97
120,346,123,170,464,779,91,102
134,354,109,186,462,769,88,94
156,375,125,190,470,744,91,108
162,350,121,210,440,721,85,110
166,352,121,194,448,676,80,116
169,315,114,192,463,631,73,107
152,308,113,199,462,609,78,109
129,313,114,211,456,585,79,101
127,319,111,190,453,615,79,94
120,348,115,192,418,652,82,86
118,356,112,184,418,667,80,83
137,347,106,153,406,705,84,87
145,328,104,159,408,720,81,83
136,345,101,152,440,708,81,85
137,331,96,152,459,740,77,85
155,358,104,150,450,704,78,87
137,364,105,149,490,688,70,77
133,383,92,123,488,670,68,90
145,356,95,109,432,641,70,89
142,352,99,123,419,553,70,90
125,315,93,120,407,587,67,91
120,345,99,128,373,600,64,92
118,318,98,120,383,624,61,78
87,320,111,149,416,655,66,74
86,330,117,156,435,688,67,84
75,348,117,158,432,693,66,81
114,329,111,168,451,669,76,100
116,340,114,220,462,632,81,99
116,342,100,234,616,628,75,104
119,333,95,222,677,596,80,106
121,305,89,240,720,552,80,108
104,357,133,253,731,534,72,94
133,362,128,212,711,541,77,91
137,356,133,196,587,538,87,108
138,380,141,205,516,567,86,95
139,396,147,181,464,606,84,93
131,357,117,151,408,635,83,87
104,378,113,150,416,657,75,95
111,380,106,136,384,658,68,91
108,366,102,133,377,646,65,92
119,374,93,155,380,640,70,94
113,364,93,156,406,610,71,98
106,400,97,158,439,653,71,96
122,456,108,147,441,696,63,89
122,462,95,144,438,714,63,83
114,479,110,133,473,746,66,78
119,480,108,142,474,778,69,72
132,448,130,168,442,746,71,81
130,394,120,179,431,723,75,71
136,412,123,178,453,734,72,77
135,389,109,173,391,711,64,77
132,401,105,165,386,721,63,77
120,421,74,142,395,749,62,66
100,445,83,132,430,744,59,73
92,406,80,119,400,720,61,83
119,417,79,107,423,706,67,83
117,406,75,96,433,663,74,85
120,366,74,121,433,617,71,86
125,372,100,118,417,617,71,82
123,394,98,135,443,614,71,67
113,380,110,156,480,611,82,77
116,401,111,177,505,668,73,82
138,433,124,163,515,709,79,78
133,446,110,174,519,722,83,75
136,454,110,174,508,729,87,83
139,457,145,167,470,720,78,83
141,435,150,149,418,651,81,73
133,396,148,156,402,595,86,116
125,370,140,147,389,533,83,116
137,384,144,160,388,534,89,116
151,411,105,151,377,553,96,118
157,410,101,149,384,584,93,120
168,451,105,151,388,603,90,85
170,446,112,159,386,626,91,87
181,442,111,147,416,637,101,98
157,414,113,142,426,641,92,90
153,412,119,228,460,647,93,90
158,365,134,247,474,657,92,94
157,354,127,239,479,687,95,93
148,336,138,230,440,665,76,76
159,332,139,236,435,673,71,77
155,345,137,156,399,651,76,74
128,369,113,105,360,630,84,64
128,385,129,110,350,594,85,68
108,380,119,110,339,584,83,64
97,391,128,121,347,560,89,62
100,390,123,129,358,577,89,63
98,376,148,123,362,575,75,60
106,375,138,116,372,579,71,72
117,404,139,118,387,619,72,74
111,385,129,93,370,629,81,89
119,394,133,84,374,648,79,89
117,394,97,106,388,663,90,91
122,367,105,130,370,666,100,82
117,339,115,131,373,654,100,81
120,356,112,132,379,677,93,67
118,337,118,129,387,661,91,93
119,372,123,112,361,675,84,88
124,418,128,85,381,688,68,84
125,421,127,97,372,670,65,82
121,404,124,102,383,640,67,81
111,415,131,101,375,650,77,56
121,387,139,106,387,619,71,61
103,347,127,104,398,610,69,60
98,354,116,105,395,623,73,63
93,359,115,121,380,615,67,70
96,363,101,131,406,583,56,67
80,404,98,132,403,582,56,77
87,403,107,131,370,544,64,75
100,377,109,134,367,497,65,77
147,399,108,126,399,510,63,77
158,422,125,117,361,504,64,92
168,378,117,112,366,473,64,83
178,397,111,110,384,505,60,92
177,396,107,92,382,532,62,98
145,378,108,84,348,536,60,92
130,392,89,102,366,593,57,81
118,410,90,109,364,622,57,82
136,399,89,117,365,623,59,79
137,419,88,119,373,633,58,70
152,452,105,116,368,622,64,82
170,427,102,118,358,592,65,78
173,425,101,134,354,591,73,76
145,412,111,140,350,565,73,83
139,414,108,144,363,574,65,85
165,414,100,153,412,637,63,76
153,417,109,137,446,695,63,76
151,433,111,123,444,702,55,79
159,451,103,114,429,727,55,70
183,447,114,115,427,734,60,75
151,406,106,110,399,702,58,75
176,378,100,113,367,694,64,79
180,338,104,116,389,719,75,75
196,338,105,116,415,735,79,76
183,342,103,112,438,723,78,70
210,344,106,106,427,718,80,66
208,352,98,106,408,683,80,60
243,369,111,94,388,665,71,61
266,359,118,116,368,628,64,58
267,361,120,109,344,623,66,65
254,353,118,106,346,633,66,71
240,348,120,101,343,615,63,72
242,342,130,105,343,595,71,80
211,347,124,90,337,610,72,95
214,322,128,114,311,599,69,97
220,339,132,120,338,594,69,94
240,439,134,138,415,673,71,93
214,470,111,142,447,708,62,88
221,481,107,142,497,686,63,72
221,501,106,134,508,699,64,67
254,499,111,139,483,661,67,69
254,412,115,129,425,561,69,83
259,361,114,145,398,480,68,80
262,357,120,139,336,479,67,87
264,334,116,129,315,449,78,92
227,355,112,117,334,478,71,91
230,391,114,126,354,496,68,83
212,402,114,112,361,526,74,83
259,374,134,122,375,540,75,102
263,429,128,125,384,534,67,98
273,413,128,139,369,530,70,98
343,399,130,146,337,532,67,94
349,392,128,146,362,514,68,97
323,400,97,136,356,496,69,75
357,356,105,139,359,503,70,76
347,362,116,132,373,470,65,70
267,375,105,113,464,432,78,77
300,387,103,95,505,472,76,75
308,392,103,97,566,485,75,71
283,363,94,127,594,502,70,62
281,348,83,120,610,542,71,65
288,315,83,121,555,565,74,62
255,293,81,128,484,570,68,72
223,273,90,143,403,572,64,74
191,289,98,119,343,542,66,76
192,288,102,120,325,530,66,75
235,275,104,119,331,512,56,70
231,282,103,117,340,482,57,78
231,312,114,106,360,507,63,74
246,318,113,143,367,511,64,73
241,341,100,150,367,526,66,76
205,350,106,148,352,563,68,107
207,343,116,143,328,567,65,98
228,313,104,146,349,539,61,101
220,309,117,139,385,579,62,100
256,274,117,136,375,562,62,101
236,289,110,198,395,506,59,79
243,284,99,205,414,510,65,72
239,340,104,198,384,504,65,77
240,336,92,194,341,481,65,90
218,370,96,193,349,500,74,91
230,457,128,149,339,524,84,92
241,477,137,156,360,537,81,93
221,495,154,181,341,570,83,88
242,504,152,162,342,541,87,80
234,485,158,159,307,526,82,105
229,389,131,138,279,526,66,97
237,371,129,120,262,486,73,97
279,306,108,86,272,454,82,104
247,284,101,82,276,470,74,101
245,276,91,94,311,445,74,73
251,287,92,104,356,496,76,72
233,285,92,107,341,504,76,102
186,306,112,114,387,515,66,96
236,330,114,124,391,566,69,103
247,340,118,113,385,588,71,102
257,325,124,109,360,580,71,103
275,369,130,113,432,662,65,79
272,375,128,108,404,712,72,89
252,371,133,102,406,709,71,80
263,364,128,101,417,730,68,83
243,391,122,106,413,735,68,92
212,348,109,108,342,679,74,89
225,312,89,100,337,630,66,84
215,315,93,92,337,622,81,100
195,319,97,95,300,624,80,101
191,289,95,92,288,616,81,92
179,310,98,89,311,629,77,87
210,311,106,98,326,654,75,78
215,311,110,112,339,668,56,70
219,300,103,110,361,648,65,78
222,300,105,108,358,649,66,82
254,291,118,106,329,649,74,87
247,317,106,103,340,633,76,89
245,348,100,101,326,636,83,86
249,366,104,108,328,664,76,84
245,390,119,118,366,700,74,82
253,440,123,121,370,752,63,83
239,425,124,123,367,796,75,85
229,409,131,114,365,844,74,106
222,445,133,147,374,883,72,104
291,456,124,146,414,887,70,105
259,403,108,141,412,860,71,109
247,409,113,153,392,849,70,125
243,406,115,158,376,794,64,112
254,377,125,129,359,744,64,108
217,347,122,120,319,730,67,108
219,346,123,125,331,706,77,104
222,357,131,103,336,666,68,86
223,340,123,102,358,685,69,71
240,321,119,102,376,701,73,66
224,332,122,111,359,691,90,85
215,340,125,103,369,742,87,84
214,311,119,115,378,781,86,84
220,343,122,122,410,798,90,94
218,377,120,122,393,810,85,97
213,393,114,121,400,806,73,79
231,387,107,134,393,790,76,86
276,416,95,127,407,766,76,85
277,397,94,133,424,719,76,80
257,371,91,133,425,696,80,76
284,358,94,132,417,685,74,79
277,368,95,127,420,650,66,82
236,362,96,127,397,652,76,89
248,361,93,104,356,685,69,87
244,360,86,107,349,693,75,95
241,366,87,126,360,698,89,100
234,389,93,123,390,714,96,105
276,379,99,138,388,704,93,105
272,398,90,160,398,688,98,105
287,410,95,181,413,660,95,106
280,424,99,200,418,642,81,107
288,395,105,272,452,625,80,96
284,418,104,294,525,625,85,95
323,415,112,313,583,631,91,108
307,431,131,314,608,648,93,123
297,414,135,344,617,670,101,120
322,431,139,291,643,672,96,123
291,432,137,279,615,681,99,125
243,403,135,257,544,660,90,117
248,390,117,253,569,708,98,95
232,381,105,183,551,678,116,99
191,365,97,195,456,665,118,96
211,327,102,176,423,645,114,103
219,347,96,160,442,630,122,115
208,328,100,151,371,535,123,117
229,333,106,148,384,566,99,112
237,331,104,131,399,584,97,109
230,365,123,128,451,586,96,95
239,399,127,144,470,615,98,79
244,410,131,142,474,642,85,75
225,417,132,137,475,638,87,72
246,449,129,137,494,641,87,71
242,451,109,141,455,657,106,78
239,484,109,147,445,683,98,94
234,491,101,137,476,717,96,94
267,512,107,178,450,727,106,101
259,511,120,179,482,738,108,101
283,523,123,167,480,735,87,107
267,473,123,149,453,708,83,96
270,473,122,160,419,654,91,99
287,459,120,137,431,648,79,98
272,444,105,152,371,629,75,103
244,416,115,162,381,622,69,97
246,412,121,171,386,606,70,91
254,408,138,167,444,620,60,95
245,392,137,166,450,582,78,105
239,404,136,187,449,568,85,104
231,423,122,194,444,583,90,95
247,476,110,192,482,644,93,99
274,485,84,183,494,687,92,99
235,494,85,173,525,734,81,84
262,466,97,152,524,773,90,89
266,462,99,140,525,787,89,89
256,424,110,133,507,761,85,83
234,419,114,134,444,739,90,83
235,411,103,129,424,733,90,82
199,435,93,105,413,700,71,69
207,427,90,120,406,689,71,78
187,422,79,129,397,675,76,82
183,412,71,129,397,662,77,88
166,396,73,130,373,664,71,84
203,377,84,136,450,668,74,84
195,379,93,124,465,656,67,75
214,363,105,138,457,637,61,74
191,352,104,137,454,627,61,59
202,400,118,157,461,609,68,78
193,395,130,168,425,581,75,80
190,383,136,177,397,545,82,79
194,392,136,177,424,555,89,79
204,405,161,202,426,523,86,87
194,359,154,191,413,485,84,73
189,373,152,202,421,497,86,84
182,359,146,211,459,544,85,88
186,347,150,221,475,519,85,107
213,344,139,225,497,551,86,102
215,368,151,226,517,567,83,102
230,356,138,245,574,544,78,93
275,403,150,239,572,483,77,102
267,419,141,259,559,502,74,86
284,424,127,250,533,493,73,94
289,442,124,246,561,541,89,103
287,427,143,204,483,576,92,110
264,388,125,193,444,596,91,108
293,390,121,127,421,636,90,106
256,422,130,118,444,668,107,99
299,427,137,126,392,649,100,89
305,483,134,185,440,664,104,98
296,516,144,225,498,692,115,100
276,514,148,232,498,667,119,104
281,494,147,234,474,673,106,117
234,493,155,241,484,679,106,118
209,457,196,216,472,667,111,106
260,449,202,184,471,679,100,104
277,456,202,197,525,670,98,106
286,454,208,199,578,654,93,93
295,433,187,213,612,666,105,96
308,422,142,207,577,671,96,111
256,429,132,204,564,626,95,109
217,411,129,198,564,677,94,99
234,421,108,204,572,703,100,113
243,399,123,191,533,675,91,122
238,427,113,212,555,701,119,127
261,433,113,223,596,739,125,130
308,433,110,220,578,714,135,134
274,419,112,210,542,704,139,138
264,446,129,213,533,737,135,129
338,466,138,216,538,726,113,115
344,464,130,257,556,729,113,108
324,459,138,273,565,728,109,121
341,458,147,274,667,726,106,118
332,457,119,273,706,715,107,122
268,455,111,258,746,720,100,123
266,420,115,200,716,696,97,130
262,430,115,181,705,692,83,122
254,433,113,214,663,672,79,105
286,404,116,210,628,657,83,102
282,381,104,211,644,623,83,94
258,383,97,211,627,627,84,91
267,366,97,211,626,605,87,86
272,382,111,189,591,597,87,98
247,403,120,276,650,594,95,98
256,407,126,295,603,586,94,100
280,448,132,298,746,576,100,100
256,469,132,290,809,579,95,99
261,457,123,275,878,628,91,93
245,448,129,222,893,659,84,99
263,455,129,208,891,684,88,99
245,434,137,242,797,709,101,123
247,403,129,239,721,739,112,131
229,415,126,242,628,697,119,128
251,414,108,227,555,662,126,129
218,387,116,270,608,661,132,137
216,353,121,254,584,631,119,123
255,358,124,270,607,582,116,115
253,317,129,276,582,592,113,114
232,319,153,261,575,592,102,119
217,319,151,218,518,564,97,124
206,353,151,227,503,567,92,125
163,434,150,232,580,638,113,135
226,498,144,244,629,682,117,134
234,515,125,242,621,711,123,128
255,542,123,228,614,701,117,119
279,512,104,200,609,674,120,112
268,446,102,178,503,609,109,111
240,372,109,182,444,514,102,112
230,334,108,174,421,448,88,106
206,279,124,171,387,457,94,97
177,297,131,183,400,487,108,100
193,313,136,179,401,508,103,95
194,341,124,194,435,548,100,93
244,362,120,204,459,542,103,95
245,379,103,205,497,560,108,93
261,366,99,206,461,542,98,117
253,346,123,220,503,510,91,113
263,327,123,183,468,490,96,120
225,290,127,184,452,490,97,119
237,271,125,174,440,459,91,125
225,298,118,152,435,450,82,88
223,346,85,130,376,465,80,93
195,348,90,138,360,454,90,89
204,368,79,142,411,479,99,90
194,364,72,143,379,470,108,88
207,361,72,149,420,504,106,92
205,362,100,164,425,516,109,93
197,352,98,152,446,531,105,96
203,328,100,144,439,509,98,94
217,332,105,140,430,546,87,89
240,326,109,148,392,534,94,81
238,299,92,136,376,495,92,73
245,330,93,153,417,503,89,95
232,345,93,143,366,498,85,96
209,352,116,151,389,499,87,101
184,346,115,149,390,506,91,108
242,333,116,195,564,522,113,111
243,303,125,185,609,515,115,93
252,286,124,199,639,552,125,104
246,258,100,200,644,516,126,103
260,294,112,198,665,504,121,99
236,280,116,193,571,518,103,101
254,298,103,208,471,496,102,105
245,302,106,200,471,463,99,95
249,329,104,198,459,516,90,89
280,324,90,204,436,520,98,97
259,346,79,163,394,526,95,87
231,349,82,140,425,620,93,90
230,344,75,128,386,640,84,91
249,346,95,144,367,644,87,115
174,329,98,145,408,677,82,111
179,307,91,157,420,675,87,111
183,322,94,164,429,613,89,113
195,330,95,174,434,617,86,109
193,305,75,159,466,582,83,89
211,299,70,148,447,536,74,85
200,299,72,144,522,532,84,102
190,256,76,202,556,514,81,86
176,244,83,209,561,502,84,100
145,243,91,209,553,547,86,98
107,243,97,206,538,566,96,112
138,275,103,229,447,616,84,103
134,326,102,170,384,687,81,100
129,338,99,157,374,719,78,89
132,353,95,159,382,711,93,104
131,386,93,181,424,736,90,105
126,371,93,139,419,743,84,101
131,337,91,149,418,693,90,100
129,325,87,146,434,667,96,101
123,327,86,141,440,678,94,95
140,285,82,122,404,660,91,83
124,284,78,176,472,626,98,84
126,267,68,178,478,660,97,90
126,272,71,183,472,690,96,92
132,276,77,187,487,750,88,86
127,293,76,196,476,768,82,86
111,321,99,182,439,783,81,86
116,348,101,185,472,782,78,80
110,353,104,186,491,778,70,75
102,368,130,176,442,706,67,73
114,352,131,175,453,707,74,103
132,415,131,155,490,739,68,112
141,405,129,159,523,749,70,117
151,424,131,174,492,777,75,126
157,436,110,187,505,843,80,123
142,444,109,178,493,862,81,103
137,362,99,174,455,846,79,90
153,409,113,161,384,890,72,101
154,395,106,136,390,881,68,86
147,404,121,121,391,843,65,86
149,409,122,112,401,814,61,88
161,413,111,103,361,789,59,88
140,378,114,109,360,725,63,82
147,371,114,111,402,698,62,83
147,300,94,107,396,662,65,85
142,341,93,106,429,682,61,89
137,382,95,106,439,713,61,98
125,357,91,136,456,705,66,88
114,367,96,134,437,731,89,96
123,386,101,140,461,757,87,91
134,332,99,138,443,734,89,86
120,303,101,134,446,711,94,84
115,316,83,84,406,712,96,90
113,298,94,88,408,668,81,86
104,329,89,112,401,642,80,86
97,343,95,117,407,629,78,81
86,346,93,120,429,622,72,71
93,346,94,124,443,641,74,61
91,363,83,117,427,670,71,56
93,342,78,85,427,699,68,56
100,349,87,83,428,726,65,56
105,334,86,91,414,726,74,75
95,332,86,97,432,692,62,74
92,347,83,104,418,674,59,78
107,340,82,108,393,630,60,77
93,344,63,109,370,593,59,72
94,342,66,100,361,578,52,66
100,353,68,92,316,564,58,67
102,333,75,85,318,530,57,61
113,343,76,89,363,582,58,65
119,361,79,82,402,661,71,64
126,403,97,78,448,739,66,52
139,431,110,107,506,792,66,55
161,467,107,109,536,848,68,60
149,493,111,105,527,857,72,61
145,492,113,113,512,809,72,65
138,487,104,117,471,750,73,62
147,465,97,116,458,723,68,59
116,446,102,111,444,687,71,56
118,414,105,107,426,643,68,66
116,400,101,101,412,634,59,68
119,375,92,99,402,612,58,72
112,366,80,63,346,618,63,73
122,370,79,62,323,639,67,71
115,369,76,64,308,645,66,60
167,363,74,66,291,675,66,52
175,371,84,64,326,699,67,48
174,395,90,64,738,691,62,46
176,406,91,84,895,701,62,51
186,422,87,84,1018,694,59,50
147,451,98,82,1079,664,54,55
133,433,91,79,1116,640,62,54
127,429,91,80,924,616,68,58
120,407,83,61,769,576,60,66
119,401,87,64,611,584,69,66
120,401,79,60,522,613,72,64
140,418,78,60,419,628,66,66
135,431,83,60,370,640,62,68
143,442,91,75,390,655,81,58
147,442,83,72,400,654,76,61
154,402,85,73,364,624,76,83
142,412,83,78,392,628,76,89
141,399,76,83,385,618,80,90
150,404,75,73,391,609,62,97
135,404,82,75,411,600,60,95
120,426,83,92,433,602,64,78
132,405,94,113,432,614,72,70
144,418,106,111,468,698,71,62
124,406,125,127,477,732,72,58
138,429,124,127,493,788,74,57
143,453,122,121,528,819,73,63
140,466,117,101,513,823,68,63
128,459,114,114,553,765,64,62
136,460,96,95,570,737,61,62
130,469,104,102,548,692,60,64
126,459,117,110,504,655,54,56
116,464,116,112,503,637,55,62
106,442,111,108,427,626,56,60
101,428,117,112,384,607,61,61
88,400,119,108,356,608,63,62
86,377,108,98,358,621,67,59
83,367,117,92,367,625,66,50
88,392,116,77,375,629,64,51
80,398,99,75,363,643,59,46
87,377,86,69,363,635,66,51
93,392,82,62,358,619,68,55
91,420,83,72,405,630,68,58
85,396,78,82,389,634,70,64
82,410,88,74,421,621,71,65
102,421,84,82,436,623,64,61
98,397,86,87,445,627,66,56
101,365,80,94,432,603,68,58
103,385,83,113,451,587,86,63
104,375,81,121,431,570,99,60
91,362,84,119,414,551,107,62
99,387,85,132,430,559,114,65
94,370,83,123,388,560,121,64
93,355,92,110,378,579,110,55
95,392,105,100,392,618,99,53
99,395,106,98,400,630,90,53
89,378,105,80,367,644,81,56
94,403,124,88,376,791,74,58
147,437,132,92,403,867,73,62
148,401,121,99,408,913,71,65
147,436,129,101,444,934,76,72
151,440,129,113,450,932,69,67
153,430,111,104,451,814,61,63
122,434,102,100,440,733,64,68
127,444,101,95,422,664,65,66
121,427,99,99,388,613,64,66
136,443,93,102,387,588,64,76
131,437,87,104,383,578,63,77
141,417,83,108,402,568,79,73
137,416,81,119,397,566,80,72
138,434,71,113,401,603,82,72
125,425,74,105,397,616,85,68
123,445,76,102,400,627,85,68
109,442,68,90,381,636,71,68
110,426,64,81,378,639,68,68
111,434,73,82,372,630,84,61
116,469,70,79,388,655,84,59
119,452,70,81,375,655,89,58
111,479,76,80,362,654,93,65
107,484,80,78,377,681,94,67
112,449,71,83,374,699,90,66
99,412,76,78,378,696,88,65
96,418,76,78,392,717,89,68
99,383,76,74,386,720,81,60
96,410,84,72,379,696,82,58
82,414,87,70,382,695,73,69
80,397,89,65,371,685,73,67
90,405,94,75,372,667,67,73
90,389,90,76,382,666,66,75
91,360,84,74,367,651,75,78
92,356,88,69,368,640,69,71
91,397,87,69,368,634,69,74
83,359,83,66,354,615,69,65
68,359,84,63,340,612,76,62
66,357,92,64,371,643,72,68
75,349,91,63,337,622,68,66
71,314,86,63,340,633,68,59
73,333,89,55,352,659,65,63
78,345,100,62,355,656,64,81
77,335,100,62,342,670,62,74
71,361,103,67,396,719,66,79
75,349,102,67,387,703,65,79
78,356,103,67,384,693,71,82
74,385,92,61,408,695,65,72
79,386,92,66,390,639,69,72
73,371,93,73,379,587,65,66
73,385,96,72,383,578,68,66
80,369,90,76,385,543,63,62
82,354,98,77,358,531,66,49
83,347,96,76,364,542,69,54
79,331,85,65,323,533,74,57
82,443,91,66,409,621,78,66
68,482,92,60,424,635,77,69
98,460,83,69,429,628,76,73
103,496,77,66,460,642,69,71
110,509,90,70,460,624,68,69
108,398,81,72,370,528,58,62
124,342,111,86,331,510,65,68
112,346,110,101,308,526,63,67
108,296,109,101,263,534,62,64
119,283,100,107,315,570,64,69
119,286,99,109,324,581,67,69
139,364,105,102,347,616,69,68
138,374,105,85,352,590,69,65
135,385,104,88,351,546,76,65
134,380,113,89,306,511,75,67
136,374,112,85,285,489,74,65
110,324,77,84,268,434,75,53
142,402,113,96,264,427,78,69
147,390,118,93,256,444,69,69
149,390,122,91,260,435,65,61
150,391,128,93,274,437,62,63
140,372,126,92,253,493,51,61
169,257,101,85,260,499,64,66
171,253,95,94,260,499,64,66
167,250,77,89,266,572,79,67
169,263,75,88,284,646,80,72
169,273,74,87,306,665,81,73
113,292,70,82,330,692,86,60
107,303,72,83,330,706,86,62
96,297,83,83,336,654,78,61
85,281,76,81,320,574,83,56
89,270,80,83,298,513,80,57
67,274,81,74,276,491,63,49
66,286,86,62,273,478,64,50
65,303,75,55,275,503,60,55
67,314,75,53,286,541,54,60
60,329,78,54,288,552,53,59
63,317,76,51,292,564,54,57
55,303,71,45,322,601,53,52
59,282,75,51,304,611,52,61
59,286,81,55,284,575,51,59
64,283,77,61,289,555,52,58
63,270,73,65,278,556,50,57
73,263,74,71,248,508,59,64
69,269,71,67,242,480,54,51
68,278,68,68,241,497,54,48
67,278,71,64,267,552,52,50
63,273,74,61,287,563,47,52
51,285,77,60,287,589,48,51
58,302,82,63,293,638,47,54
58,304,92,63,309,657,48,50
53,305,91,65,284,627,51,53
60,313,89,79,302,587,58,57
63,311,86,83,303,562,51,64
67,332,84,82,315,531,52,66
68,309,70,85,307,514,60,68
72,299,72,80,312,526,57,66
67,312,75,68,281,565,53,63
69,297,74,61,275,566,52,55
62,278,84,59,287,619,51,52
62,283,88,53,288,621,52,52
59,279,83,55,314,640,58,61
60,278,89,66,326,669,59,65
57,292,90,88,326,706,61,66
56,281,82,90,297,652,64,78
63,300,88,88,306,692,59,90
61,321,95,87,298,717,59,107
63,326,85,77,277,692,60,107
62,313,83,56,267,683,60,105
67,326,78,55,284,724,60,96
62,314,68,62,288,711,64,86
60,313,62,65,300,709,72,55
64,318,63,68,333,751,70,51
73,317,63,62,342,768,71,52
70,320,60,66,370,776,73,50
67,325,60,63,365,783,77,49
75,312,55,59,354,749,71,52
72,299,56,61,326,721,72,64
58,326,60,72,317,716,69,64
61,362,69,70,286,700,69,62
70,388,71,70,289,707,59,60
65,398,71,79,298,768,57,54
63,393,67,80,311,804,59,57
68,410,70,71,329,819,65,63
69,351,61,65,333,855,61,65
65,312,62,65,364,900,63,67
63,314,66,58,353,884,63,67
77,329,90,51,343,852,62,61
76,303,93,55,341,824,58,60
72,345,95,68,318,780,58,59
75,371,105,69,300,720,62,57
78,355,109,69,298,673,64,58
73,350,100,71,332,696,69,69
73,362,101,70,329,713,72,64
75,355,110,59,347,733,70,65
68,345,102,57,350,736,65,65
67,361,108,56,353,771,61,69
57,363,119,52,327,774,50,48
62,354,118,54,338,779,49,57
66,347,112,56,367,783,62,54
77,355,108,62,358,775,63,60
81,335,105,62,369,771,62,59
89,354,90,63,392,774,65,61
86,351,84,60,388,763,64,56
84,332,80,56,361,739,54,59
78,313,83,50,366,735,52,55
76,314,73,59,380,719,59,59
71,318,66,60,348,668,63,59
70,310,61,59,336,663,65,59
67,319,63,66,354,682,64,62
73,351,63,68,342,672,67,63
68,372,59,62,315,659,61,58
68,353,64,77,356,671,60,55
66,361,70,78,362,671,58,53
70,373,73,77,346,670,67,52
72,359,72,72,350,679,64,47
74,382,93,72,354,697,66,47
77,381,91,64,309,694,64,46
79,385,87,68,328,686,71,47
75,407,85,74,360,676,61,56
71,419,88,76,384,701,62,59
73,386,67,75,396,727,59,58
68,392,70,70,416,746,63,65
64,393,74,66,399,759,53,70
69,369,85,56,388,745,73,68
65,368,88,59,377,726,73,67
68,393,97,64,362,671,78,73
75,396,92,64,358,635,74,71
77,399,89,62,370,604,73,64
72,387,72,58,355,585,55,61
66,360,72,58,335,548,57,62
64,353,63,55,341,570,60,71
55,372,63,52,363,607,57,66
61,371,64,54,364,637,64,70
62,381,76,57,375,664,70,63
67,389,71,52,380,696,70,65
63,390,71,52,375,703,61,54
66,408,86,52,369,703,61,60
69,405,88,48,375,690,54,57
68,415,83,52,387,692,49,61
68,433,84,52,397,694,49,58
72,423,94,58,401,689,54,64
74,384,83,58,380,681,52,62
65,388,95,60,389,683,51,63
69,393,97,56,381,697,49,59
72,367,97,56,392,702,45,62
74,406,90,50,413,716,43,70
72,420,89,49,437,762,45,68
80,429,88,50,432,778,57,68
89,447,80,57,432,799,63,72
104,467,87,60,433,802,63,76
105,464,88,56,428,796,61,69
105,454,95,63,407,760,66,75
106,448,100,60,402,728,56,78
117,405,102,55,399,681,47,80
106,377,104,52,396,683,44,84
142,360,103,59,377,682,47,78
151,370,98,59,392,681,47,74
152,401,92,65,403,708,51,69
137,413,93,66,409,707,54,73
151,425,93,75,411,709,56,65
132,434,96,86,424,730,61,69
125,429,94,85,408,717,58,69
125,393,82,82,396,701,56,70
141,393,82,86,390,711,54,63
132,397,66,84,368,675,63,63
118,380,53,70,374,641,57,57
119,380,69,68,403,647,55,52
114,402,82,67,406,641,58,57
98,400,83,62,387,621,57,56
111,396,89,56,393,633,56,62
111,387,95,54,395,620,56,64
107,395,94,57,380,600,59,67
107,384,88,67,368,599,61,65
103,365,88,73,384,603,76,70
75,366,82,69,378,589,72,62
90,384,81,74,367,606,75,64
91,355,74,75,351,612,75,62
94,330,69,72,352,607,75,66
98,359,72,67,353,619,63,59
101,377,84,69,345,627,60,61
117,355,82,66,336,617,57,60
114,400,78,63,346,630,59,66
111,399,81,63,348,640,64,62
108,377,79,62,344,623,62,64
103,344,72,64,353,643,63,62
66,356,69,65,350,641,71,66
75,333,80,71,359,607,73,62
70,349,80,65,371,607,65,61
74,362,74,68,374,607,67,63
76,360,69,67,370,566,67,65
71,381,71,72,421,585,66,66
59,372,59,66,398,601,63,65
81,360,55,66,388,573,63,64
83,373,66,70,421,609,64,68
86,417,68,68,427,642,69,68
92,394,65,63,390,663,68,66
99,412,63,65,411,686,63,71
81,435,65,66,418,717,62,72
77,425,56,65,380,699,61,64
81,406,59,68,386,693,57,64
78,400,59,70,391,682,60,60
85,377,68,69,385,672,62,60
98,353,70,69,383,667,62,63
97,375,75,65,373,685,62,67
94,370,70,62,367,690,62,64
92,392,73,61,365,682,54,62
79,397,71,55,370,697,53,61
105,418,64,52,367,715,57,59
117,402,72,55,386,702,57,55
117,400,76,52,390,722,54,56
121,375,76,51,384,725,63,65
123,400,76,58,391,719,64,63
97,404,88,60,407,724,60,63
102,403,85,57,410,732,58,62
96,402,83,58,402,728,59,62
91,414,79,59,416,747,54,53
90,382,77,56,404,744,58,50
83,358,65,53,396,722,59,55
54,345,63,52,395,711,58,60
69,335,64,56,391,674,57,58
70,323,65,51,371,667,58,61
74,303,72,50,365,654,51,66
76,298,97,51,365,656,49,66
83,328,101,58,369,671,49,66
90,325,103,59,387,703,56,69
94,308,102,67,377,663,59,67
105,341,98,68,389,654,62,65
109,349,76,65,390,660,64,73
118,307,63,60,922,619,65,73
113,312,74,59,1030,597,73,70
124,349,79,54,1131,644,68,71
115,317,81,53,1165,662,66,68
115,324,82,57,1184,650,68,59
118,359,86,60,854,684,81,59
116,362,78,63,725,679,70,60
124,372,78,59,562,637,67,57
152,389,80,59,483,626,67,64
151,366,77,69,429,616,64,65
139,347,75,69,376,613,45,63
134,353,78,68,348,608,41,62
132,328,79,69,323,611,40,68
94,341,79,70,309,627,52,62
93,465,80,65,342,695,61,57
108,494,79,60,394,708,63,57
119,528,74,56,418,723,65,57
98,522,74,58,414,709,65,48
98,497,69,58,404,662,60,64
101,378,67,60,353,571,51,64
83,321,65,61,284,503,50,63
84,223,67,70,274,503,60,73
84,198,62,67,285,520,66,78
85,237,60,66,308,563,67,73
102,241,81,62,351,611,66,72
108,260,81,62,351,637,66,72
95,284,86,51,338,608,60,64
102,374,117,54,348,626,57,63
106,348,119,62,332,604,54,55
85,353,107,67,312,547,54,70
84,348,113,65,317,521,54,74
87,347,105,63,288,518,49,74
111,282,81,64,284,451,56,74
110,292,83,61,269,432,54,78
112,287,81,53,238,428,56,67
106,310,75,62,236,410,56,63
107,290,83,62,273,465,57,60
74,279,70,58,264,479,51,56
70,313,65,56,289,515,63,50
66,322,65,53,289,570,62,48
95,295,67,48,284,579,61,47
96,317,59,51,267,530,64,62
101,317,66,50,264,551,74,64
101,321,78,46,251,521,63,62
116,344,81,60,276,488,62,61
109,354,105,63,288,475,67,69
104,347,108,62,283,474,66,59
99,334,110,65,284,452,54,59
97,306,109,76,305,499,53,61
108,309,112,79,284,496,52,62
94,315,88,76,276,523,52,53
97,314,83,78,270,552,54,52
100,319,81,78,273,560,54,55
123,314,75,67,250,528,66,56
106,278,67,54,263,576,67,58
106,283,83,53,284,598,62,61
108,280,86,52,341,576,58,61
105,280,82,52,356,576,62,60
73,298,81,50,367,596,55,58
89,311,83,51,368,548,55,58
91,282,74,53,346,532,59,57
93,297,90,55,287,570,60,59
91,296,101,61,284,601,62,65
91,294,106,67,267,599,62,65
71,333,113,71,260,611,62,62
69,337,113,77,277,579,60,61
61,324,99,76,285,551,59,58
58,353,103,71,264,527,68,69
58,347,109,76,257,493,65,65
48,305,102,75,250,455,67,65
54,339,112,63,224,500,67,66
79,339,112,62,212,486,69,67
81,337,99,64,238,510,57,54
84,325,89,52,249,566,63,54
90,331,89,46,257,582,64,54
89,290,71,48,281,589,64,51
95,294,79,54,288,628,73,64
102,286,90,54,266,597,70,67
106,285,86,59,293,595,69,68
104,303,91,63,300,611,67,67
105,322,95,71,286,572,70,68
82,356,89,70,323,601,66,57
105,334,75,73,327,630,64,46
100,365,82,75,351,639,58,45
99,366,75,73,360,700,55,45
106,367,74,69,360,740,66,52
102,337,76,68,337,733,60,49
103,341,93,65,347,795,66,55
111,320,94,69,294,804,67,61
131,294,96,72,287,755,75,66
128,294,92,73,307,794,67,64
136,334,98,74,344,807,66,75
115,381,89,75,337,742,63,71
157,381,82,68,360,708,77,76
144,370,89,70,395,739,71,72
144,365,92,69,415,694,68,68
143,332,92,70,395,674,74,60
142,285,87,65,395,719,72,59
87,308,85,71,418,800,57,49
83,352,70,66,404,842,56,50
112,388,64,68,383,877,58,58
122,396,62,69,364,887,49,56
122,394,66,72,359,879,63,60
119,367,70,64,325,825,64,67
120,332,77,66,301,755,66,66
105,293,80,59,283,714,63,59
96,256,72,59,289,686,72,57
93,289,72,53,288,670,62,54
101,297,78,58,293,655,69,47
117,315,75,58,296,678,66,44
104,316,76,57,297,701,67,43
97,324,78,50,303,711,61,49
107,332,76,55,340,777,62,47
101,350,68,49,348,807,56,45
89,345,73,44,348,819,57,49
91,350,72,49,354,798,58,52
93,360,70,50,360,790,63,60
95,323,74,50,351,734,58,65
94,307,70,54,341,721,59,64
93,312,63,52,334,691,57,69
91,320,69,48,341,699,56,67
96,339,78,49,331,680,51,63
83,331,79,44,346,686,52,60
95,343,88,42,345,679,48,63
111,349,91,44,332,685,48,55
109,340,85,51,341,696,55,57
113,329,96,64,355,730,58,50
116,349,91,65,318,699,59,48
133,347,87,64,309,677,57,47
118,339,91,76,318,674,59,49
133,324,89,85,300,644,54,53
127,310,76,78,296,636,54,57
130,318,82,82,313,665,56,59
120,315,77,85,316,708,58,60
121,330,70,75,333,732,60,62
108,347,76,61,333,767,69,66
110,383,80,57,334,770,66,61
112,402,84,61,330,784,65,63
94,405,100,74,351,766,69,61
91,386,104,80,353,737,66,64
107,410,104,80,363,688,54,56
110,376,95,80,349,674,52,55
102,364,101,79,326,625,52,58
106,370,86,66,298,601,49,62
101,393,84,68,298,607,59,63
78,413,127,74,325,636,58,64
106,424,129,79,328,631,57,65
114,401,121,72,368,657,55,57
110,404,121,71,387,681,61,63
111,391,122,64,375,677,62,68
119,382,86,60,349,670,64,67
113,380,91,63,364,666,65,68
110,408,89,68,361,650,65,71
111,405,90,66,363,630,58,64
121,420,93,67,374,633,51,52
119,382,86,64,384,619,53,53
94,399,77,61,395,633,55,51
86,409,77,58,413,640,55,52
107,401,81,62,410,647,55,58
97,398,73,63,409,645,50,54
93,409,71,62,390,655,47,53
109,388,70,60,397,638,43,53
116,383,83,62,377,643,45,53
102,374,80,62,368,623,43,50
109,379,83,65,382,602,45,57
108,360,86,66,401,593,44,60
91,355,87,62,380,574,49,60
88,365,92,59,368,549,48,58
78,378,104,77,360,553,47,52
64,364,105,71,353,588,45,50
63,366,105,69,387,604,45,46
98,363,114,71,396,632,39,48
95,343,100,74,389,647,46,47
100,365,85,52,388,651,50,58
110,402,82,53,382,682,53,54
109,444,76,53,385,709,54,57
92,490,60,52,420,747,53,55
95,493,81,45,430,732,46,59
108,489,85,53,470,746,46,51
103,473,90,61,473,702,43,56
108,439,95,70,442,651,41,55
109,398,95,71,406,607,43,56
109,369,77,74,415,619,46,52
101,364,85,72,379,595,49,59
106,343,74,68,388,606,51,52
103,341,73,64,370,610,50,58
120,359,82,71,382,615,55,57
122,381,81,69,374,602,59,63
120,371,83,67,392,589,55,56
127,407,92,66,389,592,54,62
128,416,91,67,387,586,59,60
111,405,93,61,368,574,66,67
108,438,105,62,377,572,62,63
125,436,100,60,371,615,76,65
114,401,94,66,348,579,82,63
114,407,108,70,371,573,80,59
119,420,101,73,380,559,72,57
128,381,109,76,382,551,76,63
110,384,126,92,376,508,66,64
102,380,128,87,382,531,64,61
125,384,132,88,393,571,75,72
116,371,135,105,423,570,74,70
118,388,128,105,426,581,70,73
126,377,109,105,432,598,77,82
131,393,111,119,438,590,77,85
111,442,97,131,481,636,70,78
128,448,98,154,442,639,78,78
126,427,101,180,455,633,86,76
146,468,108,181,452,638,84,68
151,445,112,186,458,640,82,62
151,413,118,176,391,560,82,70
136,408,118,148,439,562,76,65
125,427,118,126,451,612,78,61
85,399,116,119,491,632,76,60
74,426,109,112,501,687,75,61
67,383,103,112,509,716,71,54
61,365,101,140,510,727,68,59
55,356,92,141,775,727,59,64
55,343,89,139,872,727,54,66
53,337,89,136,958,687,56,75
73,383,82,145,1006,684,55,71
72,389,82,114,995,705,58,69
76,383,77,101,791,682,55,66
76,383,70,103,662,685,57,68
76,384,70,94,513,692,55,58
57,401,81,85,426,687,57,57
82,409,79,88,408,657,56,56
88,405,107,90,388,630,64,60
91,394,113,82,371,606,59,56
101,388,110,80,387,610,58,56
102,355,106,71,405,629,58,59
82,341,104,66,406,660,62,59
83,369,75,74,423,708,61,65
80,385,89,77,423,712,62,65
66,376,94,78,409,717,66,64
64,351,93,77,385,710,67,63
71,347,109,80,389,688,67,66
63,312,107,68,376,662,62,61
62,302,88,69,382,680,62,58
64,308,88,66,381,658,60,60
69,302,87,67,375,652,63,65
70,317,73,63,353,649,69,65
64,329,73,69,353,657,70,60
67,344,81,64,350,632,72,62
75,352,101,65,355,657,72,64
84,358,97,68,339,649,71,69
87,375,108,67,362,639,61,70
90,368,110,62,375,648,61,65
91,366,108,65,354,645,58,67
104,358,97,77,384,667,61,65
104,367,99,78,383,660,64,60
106,365,78,88,388,659,67,59
127,370,94,104,354,655,63,66
129,348,94,109,372,655,70,68
115,347,92,101,333,589,68,66
107,334,103,97,350,612,63,65
99,311,107,92,336,601,63,65
80,388,99,78,399,640,66,57
73,449,96,74,466,689,58,51
71,458,93,74,483,701,55,58
72,452,87,74,463,655,54,55
73,456,82,74,467,674,56,59
83,402,71,70,425,613,56,62
82,348,73,65,364,543,58,63
82,353,77,59,337,520,58,58
77,363,72,59,346,527,64,58
77,334,92,58,340,550,59,53
52,306,93,57,347,546,57,48
66,309,105,68,319,527,57,52
64,264,105,69,319,530,57,50
70,325,104,70,300,522,50,50
82,348,97,67,289,466,51,52
88,429,105,69,342,491,53,52
79,441,100,60,354,503,53,46
85,476,106,70,354,507,51,53
97,463,113,76,381,525,47,59
85,456,114,78,379,513,50,58
92,375,120,85,328,464,49,59
92,361,111,91,321,486,55,69
88,326,115,85,308,479,58,66
71,292,110,77,272,458,61,67
79,364,112,77,321,565,63,67
90,385,104,69,311,575,62,75
105,395,116,68,302,546,56,76
119,401,104,76,331,565,54,76
127,396,100,87,337,581,55,71
132,337,97,93,307,502,50,71
138,323,105,96,314,494,53,65
133,286,98,104,334,505,55,61
126,316,103,116,351,521,57,61
126,307,102,116,361,508,61,71
185,368,102,154,395,501,61,81
185,373,100,232,449,509,63,94
248,394,132,388,523,524,83,92
302,363,145,400,501,487,120,147
329,377,150,409,519,485,131,159
310,327,153,425,601,533,134,157
346,327,170,524,690,530,138,162
377,358,171,464,692,504,131,174
364,394,164,471,741,477,111,139
361,418,169,578,769,478,108,132
362,434,181,617,739,435,115,139
353,501,174,528,660,426,119,158
281,464,157,517,605,562,129,146
252,428,161,508,615,646,130,144
296,431,157,380,605,684,135,137
310,409,161,290,559,711,131,136
280,344,158,268,600,737,123,101
275,358,154,241,614,673,113,100
287,396,152,282,562,647,105,96
239,371,156,328,641,598,108,121
221,381,149,378,712,561,112,114
230,369,148,396,648,543,118,118
278,357,149,393,658,501,120,119
274,314,141,357,717,465,126,122
275,307,135,313,624,521,124,100
266,322,138,273,571,527,122,111
255,304,121,222,563,537,126,112
285,311,125,227,525,577,124,113
278,346,141,240,433,577,118,116
270,359,141,274,454,558,116,122
274,371,114,263,500,621,110,111
309,410,115,265,548,605,107,106
250,412,111,248,568,635,105,100
256,395,105,254,576,681,103,97
238,372,97,220,549,694,93,93
246,348,106,190,545,677,98,105
206,298,106,194,567,725,93,102
202,337,110,222,620,736,98,110
187,342,100,258,691,753,106,111
250,381,108,250,704,777,106,113
252,377,109,261,663,793,109,99
269,397,115,257,622,810,111,111
261,364,116,241,641,789,114,107
289,352,120,202,633,748,113,117
250,316,121,212,676,724,111,119
237,303,115,194,645,708,102,120
224,301,112,202,655,688,104,112
219,299,105,216,604,701,92,108
187,346,99,188,517,732,88,92
178,340,105,181,467,769,84,73
204,347,105,176,496,813,84,84
191,355,110,202,500,856,86,87
199,366,113,199,549,888,101,102
200,344,111,200,563,909,93,105
203,354,107,211,564,894,99,112
181,365,118,229,550,846,110,105
181,339,111,210,576,801,101,103
191,351,112,218,484,772,89,90
231,372,127,221,522,749,92,81
247,362,120,204,509,727,94,86
245,339,111,203,578,742,94,93
259,346,117,224,559,769,96,91
247,323,108,197,572,751,96,90
207,303,105,189,535,764,96,98
246,325,109,189,533,821,90,92
241,325,105,170,446,815,76,84
231,334,110,130,423,777,78,109
226,338,119,123,479,757,75,111
223,332,107,121,496,737,72,109
170,308,104,124,497,675,67,105
173,311,104,125,529,659,63,107
183,313,93,124,524,652,56,80
196,331,101,123,498,673,57,89
227,308,93,124,459,664,68,94
204,320,99,147,452,666,72,103
202,331,108,148,416,689,80,108
192,325,108,145,429,725,83,104
194,325,88,147,429,794,95,109
196,364,105,153,449,804,94,108
209,386,129,136,476,795,91,99
228,414,120,138,506,784,93,98
228,405,129,134,477,752,103,129
214,374,127,130,480,631,91,120
187,357,120,125,504,601,90,117
167,345,105,129,508,618,91,117
169,312,110,158,509,624,92,137
174,326,99,176,535,663,83,119
184,338,110,186,515,716,81,129
208,331,107,193,498,723,73,132
235,343,95,192,481,720,79,131
247,339,101,162,473,700,80,115
241,347,103,145,453,637,80,116
241,352,98,148,457,598,85,102
252,376,105,174,480,585,87,105
229,351,98,169,495,545,81,103
209,369,92,173,503,540,90,109
226,341,100,185,503,554,89,96
265,368,99,176,500,576,86,109
226,368,92,147,448,596,86,100
231,389,104,156,417,648,92,117
247,383,103,159,412,659,77,105
239,405,102,154,402,675,79,110
198,404,103,152,422,697,95,105
201,416,108,156,477,674,96,105
201,420,102,143,506,669,98,98
156,412,101,133,525,661,96,91
139,414,88,118,535,633,95,94
115,394,86,144,509,613,90,103
112,380,94,146,527,629,96,118
98,370,95,152,517,621,93,113
122,394,101,161,488,637,104,116
125,384,103,169,465,655,104,110
129,396,105,148,469,631,97,105
124,392,93,163,402,646,88,86
144,394,90,165,397,624,86,90
148,363,96,171,425,612,71,93
146,382,101,182,454,623,82,93
146,377,112,204,480,624,84,94
158,377,113,200,497,580,92,102
144,405,119,218,509,588,95,106
121,403,105,216,504,555,97,100
117,400,98,233,508,538,94,124
150,419,81,212,470,569,91,113
160,424,81,203,473,603,86,103
166,442,83,196,540,687,88,102
168,461,95,194,544,747,86,101
173,491,98,168,576,799,91,100
161,492,99,170,609,814,89,105
147,492,112,162,599,802,88,121
143,461,116,180,525,722,83,113
151,456,117,174,509,690,78,125
148,430,117,160,485,642,69,103
184,415,117,168,451,592,72,108
178,406,104,172,438,589,74,92
182,410,86,142,455,593,72,92
178,405,77,173,463,578,76,80
178,385,93,184,452,553,76,83
146,391,98,185,463,568,77,77
158,407,97,178,472,576,78,86
227,397,104,174,457,572,81,89
225,391,112,141,421,572,94,97
233,402,98,148,443,616,94,99
228,392,100,153,461,609,93,93
217,361,94,167,509,615,91,95
160,358,87,176,506,640,92,94
166,344,77,193,502,673,87,92
157,350,85,189,491,645,87,86
162,350,82,196,481,652,88,89
181,368,96,227,494,661,87,117
179,359,96,224,518,641,91,118
170,380,98,209,549,621,88,117
175,359,99,202,522,615,83,117
163,357,92,207,504,612,87,121
191,342,92,169,454,619,94,118
176,363,100,188,458,633,89,120
206,388,100,199,467,610,86,118
200,409,98,212,513,635,103,120
205,414,108,208,516,633,97,124
179,410,113,205,543,611,98,99
184,416,108,181,549,621,97,94
164,402,98,173,525,646,108,103
167,388,94,164,491,629,94,111
152,392,89,144,500,655,99,106
133,380,74,136,467,672,91,108
121,365,74,140,456,658,94,113
111,376,85,139,481,672,82,106
100,365,92,158,500,693,80,102
110,358,96,158,509,680,72,97
118,400,94,161,550,690,76,102
125,375,97,187,529,716,72,104
119,340,103,209,515,700,66,104
122,376,106,202,508,704,64,95
126,372,108,228,533,700,74,111
130,334,120,237,501,690,72,109
136,379,120,219,561,685,78,110
134,378,115,198,566,673,78,107
151,371,118,206,617,693,88,118
147,381,112,177,598,720,84,112
142,371,98,171,626,698,87,104
142,330,100,170,591,692,82,103
142,343,95,177,580,749,89,104
132,315,80,166,537,699,89,94
148,327,85,182,528,714,89,97
146,331,87,186,493,755,92,104
142,337,103,199,492,753,94,97
140,348,110,219,542,702,89,91
134,382,117,223,541,746,80,92
116,345,111,223,537,693,74,82
123,364,113,215,518,673,73,88
120,360,91,196,496,687,69,90
140,340,84,176,430,685,71,95
145,295,80,168,448,635,73,107
151,319,79,167,457,680,77,115
139,295,70,162,474,654,66,106
140,313,74,160,485,627,71,104
124,335,84,159,503,672,74,98
123,334,88,148,460,676,84,85
120,330,86,126,522,675,92,105
123,363,93,135,515,729,94,107
142,362,97,139,488,735,92,111
154,352,87,128,541,745,98,111
155,358,79,137,548,776,90,122
154,356,85,150,479,767,90,95
155,333,83,154,462,739,85,87
141,362,79,178,465,734,87,90
131,375,84,212,409,676,73,90
129,384,87,207,421,650,80,68
141,395,100,211,408,621,71,87
147,399,106,214,414,608,73,90
139,358,111,202,401,599,75,98
135,403,103,177,408,674,77,98
151,427,104,204,417,697,68,101
130,451,92,193,438,688,74,98
139,444,89,191,437,667,73,96
160,443,85,185,445,652,71,85
193,375,88,177,406,544,78,87
181,327,110,143,360,469,78,90
208,280,109,146,427,461,71,77
202,306,115,131,443,481,75,87
206,305,115,150,485,529,75,91
179,330,116,181,530,613,78,98
221,345,99,196,554,624,77,92
221,326,98,202,522,621,83,95
262,342,85,214,570,616,82,98
277,350,85,216,587,566,79,92
307,333,93,219,562,483,72,87
308,315,97,222,553,468,75,92
331,308,99,212,509,444,71,106
345,287,102,224,476,397,70,94
344,300,105,260,443,424,77,106
319,283,96,258,431,423,78,106
358,299,93,282,451,413,80,105
349,325,89,290,510,457,81,97
306,297,85,288,499,494,80,97
282,281,79,256,510,508,76,96
317,311,88,363,602,566,74,101
312,349,147,631,756,619,84,129
297,342,176,786,772,638,107,128
356,352,195,886,948,645,123,128
362,369,202,903,966,622,130,126
346,361,214,892,986,554,139,122
317,356,212,875,1050,516,155,97
311,367,214,890,1088,478,160,103
247,359,206,796,940,462,149,101
295,340,202,802,975,488,147,106
288,334,190,777,896,507,142,120
265,295,150,647,719,492,114,120
273,291,121,505,769,507,91,110
277,290,118,495,785,536,96,120
231,304,119,459,752,506,100,123
228,314,149,622,841,488,109,131
234,335,153,582,827,539,120,142
251,309,152,531,728,496,115,146
246,302,150,604,801,483,123,157
239,328,152,617,759,562,137,153
259,340,128,537,753,626,142,141
256,336,126,519,730,624,134,126
230,355,134,583,733,673,137,130
255,366,138,552,659,685,140,112
267,359,134,543,684,670,123,105
257,368,141,473,604,662,114,102
259,356,146,477,597,633,114,105
258,358,135,371,576,597,124,101
245,361,124,322,537,578,109,100
241,321,120,304,482,533,108,111
282,310,100,292,546,499,102,111
277,314,100,306,606,544,105,108
272,368,100,301,584,554,85,105
291,428,100,268,571,573,81,109
298,461,103,263,589,664,77,104
250,464,104,231,513,683,75,104
290,469,88,187,430,692,76,123
318,426,91,190,430,745,86,130
298,388,99,207,434,740,90,126
277,390,101,216,449,693,93,126
266,370,100,215,443,708,92,127
231,356,122,220,425,706,88,107
219,354,119,195,399,682,84,115
200,322,110,162,459,687,87,126
214,275,110,216,424,691,99,122
223,281,111,234,506,702,94,127
194,292,93,238,546,687,101,126
179,296,96,267,581,725,100,106
173,314,106,275,557,787,99,103
171,343,102,239,573,785,80,97
159,345,96,231,532,761,86,82
159,326,91,246,531,760,98,127
154,323,82,229,515,732,114,133
208,330,89,225,466,661,116,125
198,320,86,253,522,652,118,133
205,326,85,260,546,696,116,143
220,344,92,255,553,726,107,136
244,366,108,260,573,740,99,129
229,368,95,276,604,792,93,128
232,365,112,265,652,848,99,121
226,396,118,251,665,853,104,138
211,425,115,247,701,853,103,117
187,440,112,231,698,875,103,131
170,434,116,221,752,857,105,140
216,460,112,201,689,801,98,151
229,429,111,188,696,774,96,146
248,397,108,193,673,736,85,140
234,375,104,202,669,706,82,126
228,369,100,223,619,701,81,134
185,335,88,206,593,712,77,132
198,327,87,206,551,719,94,118
187,352,91,219,611,761,119,125
189,336,90,215,667,781,120,126
185,335,85,197,662,777,122,107
168,372,101,201,693,776,126,94
215,405,113,195,704,771,111,99
215,379,114,194,620,748,95,92
224,370,116,187,532,699,89,98
253,385,124,165,531,674,86,98
318,371,118,159,491,656,101,123
277,366,113,174,452,652,114,117
315,415,123,210,549,639,117,118
328,418,124,223,607,670,123,119
347,412,115,222,578,697,130,126
295,410,116,219,577,724,120,103
307,395,113,225,599,726,118,97
286,370,101,179,516,729,108,99
288,413,106,176,457,713,104,91
270,431,112,179,472,680,100,100
271,419,101,175,455,646,99,108
262,420,108,159,464,634,92,107
238,411,108,126,420,646,95,121
256,363,92,110,412,631,98,119
231,373,87,119,411,640,109,129
232,385,95,161,441,659,106,122
256,405,98,150,387,697,105,122
283,429,112,163,387,700,102,101
256,467,118,168,411,745,100,100
265,451,121,162,464,837,88,118
273,465,120,144,442,843,84,114
271,452,116,182,450,809,79,114
248,466,117,207,454,789,96,116
248,491,135,205,467,752,97,128
225,477,135,207,425,642,93,95
229,448,131,197,459,623,93,98
267,439,129,169,470,641,91,101
262,396,127,124,484,672,82,101
273,335,105,161,474,678,78,114
280,343,102,163,459,705,75,115
261,391,103,177,449,738,81,111
262,376,110,178,432,736,91,112
287,394,102,187,421,746,82,114
267,412,126,196,392,729,97,103
258,428,140,212,441,715,106,100
282,404,154,209,431,699,98,109
219,425,151,211,432,690,107,107
189,411,156,210,437,677,119,119
190,483,178,177,450,707,108,117
233,493,179,180,465,727,103,114
225,504,189,344,506,730,133,118
221,516,203,555,541,742,128,124
235,530,216,644,621,734,130,136
248,484,206,667,632,707,134,133
221,472,197,665,615,702,142,141
229,457,184,597,555,688,122,139
273,467,181,467,523,659,119,132
260,503,178,348,472,653,116,108
243,547,184,348,438,642,129,108
296,548,199,404,417,594,122,103
280,551,196,426,467,600,116,99
270,625,206,411,545,644,111,122
308,609,193,460,600,711,102,121
315,549,169,455,633,727,74,111
268,561,157,428,631,741,83,126
316,595,162,413,627,726,95,136
291,505,134,386,569,713,98,123
248,506,156,357,512,650,101,129
238,532,161,397,498,645,110,142
261,568,157,389,499,645,115,136
204,529,156,398,531,628,108,124
196,528,176,425,540,569,111,117
240,509,153,400,538,540,119,122
253,481,140,325,529,496,121,113
241,419,134,301,532,486,109,99
285,425,128,325,530,479,105,98
302,445,109,287,504,498,106,98
271,433,114,352,488,472,96,98
259,434,120,389,532,491,112,102
299,403,123,419,554,489,112,100
255,408,118,382,529,527,113,104
239,356,105,366,511,516,112,107
252,361,104,301,511,537,109,110
282,375,105,276,514,577,85,114
222,405,111,247,486,576,83,118
228,413,110,250,504,590,88,114
257,433,100,255,623,624,83,114
248,491,118,259,630,617,110,112
213,471,110,238,620,595,110,99
246,454,126,225,604,590,117,96
247,439,131,243,606,559,119,99
225,429,133,255,600,563,145,101
215,343,117,252,580,564,125,83
237,360,129,266,543,549,126,97
219,420,108,264,604,569,127,106
207,414,107,236,558,573,123,109
198,421,108,206,449,534,96,113
205,440,102,177,435,559,96,115
180,430,97,181,453,577,91,103
161,419,109,202,411,579,93,99
210,425,103,224,473,607,96,97
231,405,111,236,474,632,90,93
229,372,119,241,532,618,88,92
252,403,115,223,521,622,92,97
252,398,100,238,587,606,95,92
210,422,121,307,539,594,109,96
208,463,129,351,628,597,121,108
202,522,124,346,639,662,122,110
181,505,129,368,639,670,121,109
179,471,132,348,569,706,114,112
201,454,114,285,596,696,99,108
208,418,88,212,521,704,84,99
206,364,85,207,463,677,81,95
222,356,126,200,494,670,86,104
225,347,130,201,510,643,86,94
205,365,130,186,487,681,79,86
208,410,144,195,478,673,88,73
210,419,144,203,478,651,88,73
179,432,98,152,458,698,87,51
197,489,110,132,461,702,82,58
199,477,109,123,478,675,84,56
200,497,101,126,521,728,83,98
213,526,103,138,547,727,93,113
214,514,106,140,567,723,88,114
220,511,84,156,598,785,128,125
232,525,94,195,609,817,137,130
201,468,93,216,653,784,136,106
189,470,136,253,628,828,134,93
189,477,145,276,602,814,139,109
216,424,156,302,613,780,103,99
224,463,169,303,635,770,114,131
236,489,169,295,568,751,124,130
280,476,152,282,591,684,127,173
306,476,139,273,630,729,131,164
272,497,127,237,631,691,139,169
278,429,119,214,587,707,127,159
301,431,111,218,594,735,117,160
270,408,99,191,614,772,111,109
244,397,103,189,573,688,112,118
264,434,105,201,543,741,98,119
276,420,83,197,541,675,91,93
261,403,91,176,530,671,85,94
260,406,85,181,525,678,82,99
267,405,83,173,521,695,69,89
249,419,99,174,470,639,80,82
249,437,101,175,517,667,82,93
240,445,101,187,489,629,84,107
227,442,115,173,489,650,97,104
231,432,113,165,481,646,107,116
226,417,119,162,550,730,108,117
222,482,129,184,568,760,111,117
225,465,127,175,598,782,114,120
229,446,115,183,544,708,103,119
224,492,135,195,560,684,94,157
217,456,124,191,489,597,90,155
228,406,144,232,401,519,95,151
225,455,155,244,347,458,102,143
227,477,155,235,345,470,101,149
252,531,163,252,340,518,100,94
266,523,156,259,365,519,98,104
219,504,129,205,400,548,89,105
217,503,115,197,456,577,75,104
213,513,120,209,499,648,79,107
192,423,86,179,489,618,71,105
216,435,89,161,502,608,85,99
215,421,96,166,490,577,93,94
223,357,105,160,456,567,98,91
227,333,121,142,415,491,95,88
266,316,120,138,388,474,94,86
261,296,127,138,374,489,87,86
265,331,134,175,463,595,76,96
274,348,131,180,538,593,73,88
278,372,123,270,656,616,77,83
243,377,125,305,715,639,82,88
236,396,117,322,750,668,107,96
244,394,105,311,699,598,111,90
276,407,108,305,653,582,111,94
295,379,108,234,581,612,106,96
281,371,107,207,537,600,106,101
298,343,115,194,514,558,79,88
302,324,117,218,505,534,77,86
260,321,113,236,489,537,74,89
272,329,106,258,452,473,83,89
278,385,105,252,445,551,89,109
257,396,106,253,413,544,93,108
252,427,106,222,429,571,94,111
281,399,108,211,452,620,94,109
255,390,98,205,463,616,97,107
288,386,109,240,511,544,101,100
291,374,98,231,566,603,94,96
301,347,104,289,625,569,106,96
278,346,105,347,656,521,105,94
279,352,128,428,763,562,107,97
292,360,124,433,739,571,107,93
303,368,123,440,715,534,105,98
296,407,116,405,690,612,108,102
289,435,110,360,641,632,107,103
273,444,85,272,568,669,108,105
215,395,70,232,549,716,102,97
208,397,88,232,534,693,106,109
225,362,88,236,471,647,88,101
226,354,87,245,507,668,88,104
223,327,93,229,400,582,76,100
262,325,94,225,400,525,72,98
237,331,90,224,444,549,78,89
230,320,83,257,471,525,84,88
220,334,93,264,493,492,93,83
237,365,91,269,527,543,91,85
208,365,93,261,527,548,87,79
250,425,96,264,513,547,87,76
238,429,99,265,496,591,92,92
234,413,88,241,430,603,81,91
229,394,105,236,475,622,88,90
254,390,121,295,477,664,91,93
224,302,121,295,440,667,93,95
266,299,122,255,479,698,89,87
275,279,131,267,487,722,89,89
328,304,114,258,486,708,84,95
329,308,99,214,567,687,83,95
345,312,93,196,575,701,70,89
375,336,101,209,555,676,59,93
433,382,90,210,563,702,68,93
398,358,101,225,510,724,71,103
384,358,108,230,435,726,70,104
359,352,103,220,412,718,72,109
350,358,103,224,438,733,76,100
272,302,102,222,449,696,79,100
285,295,87,196,473,675,86,103
270,336,91,170,457,703,89,105
323,361,97,186,471,745,86,102
264,384,118,174,453,751,92,115
265,399,118,146,436,767,97,115
258,457,137,150,406,831,90,109
273,418,131,138,431,838,96,107
237,409,134,129,427,821,98,113
231,403,127,279,591,865,110,109
264,411,135,313,682,879,105,108
276,354,125,321,715,837,103,113
302,371,121,344,737,815,104,117
297,399,121,383,733,792,113,117
349,389,103,300,602,726,95,118
324,364,94,282,531,704,89,124
315,354,85,323,540,690,93,104
287,373,84,319,521,696,82,108
269,355,84,276,532,759,82,102
197,330,92,266,537,783,86,98
197,350,100,263,500,779,86,95
231,416,107,239,561,833,101,100
257,390,110,220,560,833,105,93
275,379,114,221,572,788,99,99
288,390,107,236,585,772,101,116
298,396,105,252,634,774,114,121
257,375,114,238,599,720,102,126
221,391,117,248,582,697,98,121
198,381,112,243,580,670,98,122
181,350,115,268,600,666,90,98
210,347,122,306,603,669,85,96
201,291,112,293,555,663,88,79
213,292,108,294,549,681,91,88
216,309,100,324,566,699,90,83
213,355,107,322,542,688,93,81
202,337,96,293,525,663,92,74
215,377,134,290,503,630,81,87
201,360,133,277,500,612,79,88
244,415,135,232,447,616,77,85
247,388,127,186,491,648,75,97
258,437,125,149,443,660,61,96
295,407,82,162,451,683,61,91
303,415,91,174,582,718,68,103
268,377,105,177,1101,732,76,103
276,415,109,194,1290,728,75,100
243,384,114,195,1343,728,79,107
218,438,120,208,1348,738,90,122
271,431,118,210,1298,712,96,108
327,464,133,328,894,679,108,110
326,451,134,327,515,651,112,111
324,451,126,351,318,634,113,112
309,396,126,357,231,589,112,101
264,405,129,380,156,563,111,107
221,350,107,295,253,588,93,112
211,336,117,321,518,610,92,107
252,356,127,360,643,622,95,101
267,361,125,358,734,647,106,109
262,343,122,329,782,662,104,105
241,343,113,317,778,643,103,100
250,346,96,281,681,684,97,102
200,362,82,176,618,703,90,98
215,410,102,149,548,716,70,94
205,435,101,162,524,710,61,89
217,433,102,167,514,713,65,90
198,421,104,161,504,654,64,84
219,418,112,170,488,640,66,92
179,372,84,186,527,645,67,82
181,394,95,204,541,656,71,100
158,415,94,217,536,676,72,97
205,480,99,222,575,742,77,103
185,473,89,219,596,762,78,96
198,491,95,191,544,769,81,96
202,484,79,166,513,769,82,113
210,476,80,168,507,759,87,116
182,425,79,170,432,699,84,116
179,410,84,168,386,674,80,117
150,386,79,169,385,654,75,124
152,373,111,154,369,645,69,104
132,375,115,124,376,683,66,102
101,379,121,192,414,709,72,99
93,376,129,212,477,719,87,112
91,385,135,215,480,713,87,100
91,440,124,229,522,729,92,96
113,436,131,233,564,706,91,106
121,433,131,202,584,667,89,110
121,456,133,192,539,637,79,98
120,471,134,216,595,625,86,128
115,418,122,213,587,569,81,135
139,472,123,227,557,588,79,128
148,533,125,249,542,624,84,135
154,538,115,243,580,687,83,136
158,553,119,225,530,709,71,115
157,557,117,214,520,754,64,110
126,512,108,201,512,743,78,113
112,447,100,170,479,722,72,97
103,413,99,194,417,678,73,97
102,365,87,196,438,658,75,93
90,358,83,194,411,637,75,88
117,348,83,182,390,605,64,95
136,325,75,149,387,598,63,99
143,331,69,105,381,594,58,102
152,340,63,68,510,630,56,96
154,331,64,65,890,637,59,98
143,368,67,97,1025,646,91,115
125,390,71,110,1032,656,94,115
125,393,81,122,1047,635,100,114
111,397,88,139,987,617,101,119
136,403,90,145,680,618,108,127
130,361,89,152,499,610,82,101
130,384,95,153,519,582,80,105
140,380,83,141,501,595,71,99
169,375,78,122,480,572,72,111
155,374,80,116,453,531,65,103
153,384,73,85,418,529,62,100
149,337,85,72,357,529,61,93
134,312,86,67,325,499,63,100
95,328,91,66,299,496,66,87
114,336,93,61,307,520,58,84
104,321,92,56,294,519,64,96
107,350,75,59,372,592,67,96
109,386,83,73,411,652,78,94
110,367,85,100,501,654,77,88
77,415,87,150,588,673,83,85
79,422,115,253,659,657,92,75
82,445,121,282,666,611,97,81
94,446,121,284,660,589,95,115
98,453,117,277,608,575,94,118
114,424,115,254,551,548,91,118
134,449,86,155,466,590,80,123
143,417,74,117,396,566,70,129
138,414,69,126,409,531,78,110
133,437,79,184,581,583,101,112
124,423,107,270,673,589,110,109
100,399,122,299,727,555,112,100
78,399,126,292,743,578,111,84
68,370,123,286,722,586,102,72
73,342,118,259,621,576,84,64
73,335,96,192,508,591,72,61
72,343,80,143,434,605,67,64
72,330,77,138,410,616,65,73
72,363,78,133,424,647,68,88
63,354,75,120,365,622,60,88
61,387,80,81,413,619,56,91
62,373,79,82,425,630,55,88
63,382,88,80,413,583,57,83
64,376,91,156,494,564,64,62
82,386,94,192,501,570,68,74
82,353,124,275,469,549,71,78
83,363,144,351,454,530,77,85
82,347,145,385,552,539,81,84
83,338,143,369,529,517,87,83
74,334,139,353,561,504,87,75
75,310,104,297,576,493,83,73
96,287,74,207,575,490,79,64
104,310,64,139,484,503,75,68
155,305,72,114,432,504,58,78
164,294,74,133,455,525,60,79
159,332,89,178,495,583,72,72
153,384,114,236,729,602,77,76
147,384,122,287,767,605,82,75
98,405,127,321,795,621,92,80
78,419,129,321,792,606,90,78
84,421,127,311,773,562,84,81
93,408,115,269,558,532,80,87
133,401,114,221,514,519,81,112
147,384,115,275,653,498,86,120
148,458,114,305,666,603,89,119
149,478,117,299,660,678,93,121
141,475,106,300,666,694,95,116
112,481,114,375,667,684,90,91
104,471,107,339,591,686,75,66
118,394,115,318,560,584,73,71
117,346,107,332,673,488,66,66
117,321,107,361,845,449,62,64
113,311,95,289,886,474,64,81
99,331,93,275,860,502,73,89
81,328,87,283,869,487,69,94
83,365,96,304,877,496,79,130
77,394,143,448,761,565,100,138
109,389,148,487,785,558,116,147
116,397,210,722,864,539,162,159
128,405,231,762,921,580,172,160
131,361,236,774,861,584,171,135
140,320,216,693,883,530,159,142
146,361,240,782,937,543,166,140
153,412,210,650,838,537,127,133
162,425,200,662,817,503,128,159
192,483,231,796,1046,509,139,175
210,500,241,818,1044,510,141,166
209,511,261,877,1197,550,157,179
213,460,270,1068,1320,567,179,192
206,447,267,1122,1385,575,182,174
202,383,250,1102,1283,542,180,178
207,422,292,1218,1265,593,203,195
236,382,266,1188,1047,549,193,201
227,358,248,1011,887,522,176,186
233,362,244,922,722,559,168,199
249,360,231,846,546,570,157,194
233,384,204,790,460,535,161,193
185,363,202,724,384,543,156,170
183,372,188,676,310,558,147,166
178,346,185,657,230,528,144,149
120,352,181,614,269,550,146,134
103,231,139,468,634,540,112,117
117,229,117,410,885,536,98,111
117,292,120,401,1040,568,93,112
112,310,133,414,1112,571,84,105
110,329,138,453,1169,555,90,103
115,330,142,446,1048,551,90,96
120,337,134,391,873,510,83,88
127,274,128,378,738,456,83,100
123,292,135,366,652,441,89,116
129,278,137,348,539,455,80,116
126,281,125,250,478,511,71,112
138,326,127,249,556,585,88,112
132,337,131,269,496,601,88,100
145,309,111,271,550,627,85,81
181,314,94,210,573,653,89,90
182,363,85,207,597,615,90,94
166,391,112,288,571,576,76,105
170,432,126,304,613,590,84,120
156,425,123,298,598,550,86,140
105,415,126,307,681,513,79,131
108,394,143,383,919,509,86,139
102,330,127,322,934,512,86,140
145,275,118,300,925,513,83,134
146,272,121,346,896,539,82,115
149,276,121,341,795,549,89,118
151,290,104,271,466,563,83,112
146,289,99,276,308,575,76,98
95,307,96,256,205,549,65,82
92,331,110,174,148,539,78,101
91,330,120,258,416,570,79,99
78,313,121,252,541,588,82,90
78,359,117,240,631,660,82,88
101,400,114,239,688,740,84,89
110,408,91,233,724,784,69,60
124,448,92,128,640,809,59,54
150,448,85,91,572,808,49,48
155,440,90,88,497,772,55,76
145,393,85,80,431,713,55,91
163,388,91,75,411,707,62,96
165,360,80,73,370,670,60,98
162,374,93,74,384,656,62,107
168,344,92,73,376,625,60,122
164,349,100,123,397,637,62,123
143,383,98,138,679,650,55,118
142,367,97,158,1055,695,60,118
127,379,90,176,1223,754,62,110
130,413,92,214,1291,814,81,90
132,434,91,209,1329,880,80,101
153,422,93,197,1210,947,82,118
143,446,96,181,904,956,84,124
137,422,90,162,709,956,83,130
133,395,91,109,608,934,61,123
141,372,86,65,544,875,57,109
114,353,95,61,568,782,56,96
109,307,86,66,573,754,54,93
106,320,94,68,500,703,50,93
92,306,92,67,501,687,69,94
79,304,89,77,448,693,75,101
75,318,77,89,419,689,76,107
73,324,91,83,421,676,73,102
70,310,85,80,416,709,80,105
106,326,83,79,379,728,64,103
103,329,90,72,415,736,57,90
102,306,95,59,377,735,50,78
101,324,89,54,352,720,52,87
104,345,90,56,317,705,39,79
65,361,104,59,340,692,40,78
59,362,102,59,297,669,42,76
85,414,101,60,301,687,55,89
101,436,113,60,307,697,54,92
98,419,111,57,328,687,57,92
118,448,119,75,310,691,61,90
128,444,117,95,307,708,59,88
111,396,113,99,299,680,52,82
100,391,104,105,305,685,59,94
101,397,106,106,265,678,56,95
84,361,100,112,266,658,52,111
72,352,105,157,330,648,65,120
97,358,108,182,357,652,65,117
103,327,106,225,359,628,61,108
110,341,136,442,428,660,77,116
141,321,140,498,501,668,80,104
149,319,137,484,479,660,69,115
206,333,137,475,493,667,70,119
206,328,149,461,514,678,72,109
206,311,122,293,489,656,64,102
189,300,108,190,421,664,65,114
202,301,114,203,439,666,70,100
161,283,114,223,449,674,70,103
167,303,93,230,438,659,71,106
175,331,96,206,423,679,65,106
197,357,91,215,489,686,66,91
179,381,90,214,500,673,67,85
172,427,90,205,475,678,64,83
192,432,88,208,471,698,63,92
227,412,99,249,536,673,77,113
216,382,109,241,490,680,75,113
223,350,103,254,672,717,79,115
215,329,104,252,989,715,88,113
230,361,117,250,1116,723,86,107
192,440,102,217,1112,736,81,90
186,452,94,232,1101,708,81,93
183,502,118,235,985,673,85,116
177,512,117,237,658,656,78,119
142,607,112,233,378,649,80,120
134,688,113,213,280,653,73,116
125,713,117,217,414,670,73,114
112,681,97,188,507,688,61,115
109,667,108,179,576,714,63,110
88,578,103,175,641,714,60,102
114,430,110,233,739,699,60,103
116,397,101,224,772,671,64,105
119,448,105,225,733,706,63,74
121,436,102,263,724,675,62,68
115,460,106,283,751,686,75,92
78,435,105,281,712,693,77,88
101,450,113,276,639,695,81,86
120,408,106,282,641,656,83,86
127,425,105,251,625,685,91,113
129,381,99,229,539,666,81,99
141,384,89,222,503,665,83,106
183,383,89,241,464,695,80,113
247,392,99,293,460,694,80,112
283,380,97,301,441,705,72,86
290,381,122,325,450,711,83,128
296,380,131,332,422,706,78,129
290,363,129,314,411,706,79,123
240,361,123,263,382,699,77,131
222,368,126,259,362,664,74,138
238,355,109,272,438,641,83,117
284,365,106,259,479,626,92,111
260,388,110,289,607,604,89,122
267,388,111,287,624,603,100,132
267,362,117,316,631,592,107,124
249,377,115,284,617,625,94,108
182,370,117,265,647,635,87,111
183,331,112,223,537,645,86,96
229,342,117,225,519,656,72,68
215,337,99,179,542,653,66,84
244,312,104,197,506,627,65,85
253,313,98,191,425,647,64,80
286,361,116,230,506,666,70,96
249,364,110,243,522,661,79,111
262,376,120,288,511,693,93,119
235,403,116,295,594,708,94,124
234,396,122,294,654,697,97,136
207,372,106,276,623,693,94,127
209,360,102,271,602,676,95,130
193,357,98,231,598,661,80,117
228,433,132,330,750,712,93,118
229,450,129,350,776,775,91,104
214,436,129,356,776,759,89,106
193,440,134,353,791,770,87,91
172,441,132,339,796,761,86,88
111,328,106,213,593,710,68,77
109,371,113,227,567,672,74,82
106,367,113,236,545,665,76,87
101,366,119,293,626,687,80,86
100,424,125,315,686,730,90,98
98,450,118,331,716,743,94,99
108,427,105,293,685,713,89,111
114,429,100,284,706,728,89,105
118,431,88,218,642,714,82,118
130,405,77,187,598,705,69,104
134,401,81,159,549,719,68,110
111,388,82,163,509,711,77,103
100,387,85,143,454,695,75,105
102,436,105,137,426,699,75,98
87,415,105,142,377,668,80,100
88,418,116,203,464,607,83,123
80,392,120,236,656,608,83,123
86,386,132,275,652,570,86,128
89,316,115,301,685,539,94,127
100,370,134,341,765,524,101,129
98,348,128,358,731,518,107,116
99,354,122,341,637,547,108,113
94,416,111,307,654,657,109,107
90,454,109,287,634,724,104,111
98,439,89,251,563,766,99,122
95,447,80,188,570,831,91,109
105,463,85,181,494,840,112,127
112,417,82,190,502,827,110,129
116,396,92,202,498,797,113,122
100,369,93,189,525,798,112,114
106,393,90,195,553,762,123,117
99,397,85,202,554,779,105,99
91,412,90,210,555,758,105,94
77,407,81,195,563,746,102,121
74,402,79,183,508,719,106,121
74,389,97,155,458,700,93,127
66,371,95,136,436,672,81,121
65,354,92,97,405,698,80,120
63,350,96,136,462,729,84,97
70,359,94,188,510,767,90,93
65,380,81,203,538,810,89,80
69,413,86,228,538,813,88,78
69,406,91,238,544,752,93,90
69,420,91,223,512,728,86,89
63,403,87,190,457,686,81,107
61,372,81,180,394,656,80,119
57,347,78,151,395,651,84,125
58,357,72,170,378,656,84,127
67,324,82,189,361,627,90,130
66,364,86,204,461,600,94,120
62,352,89,206,458,569,105,111
69,333,89,211,463,520,105,112
72,344,86,193,488,582,101,111
71,415,87,168,500,661,99,114
90,457,86,153,467,715,104,125
92,463,83,139,516,732,93,138
85,463,88,142,505,720,96,138
85,479,91,143,511,676,98,132
83,412,78,152,482,598,106,150
65,319,78,153,431,518,97,141
65,326,81,156,356,509,93,138
66,312,75,141,352,528,90,132
66,280,87,198,396,540,98,139
63,311,92,205,427,570,89,111
63,347,97,196,443,600,84,105
61,358,98,189,445,596,96,98
61,385,97,190,460,600,101,104
61,387,90,127,406,563,88,93
61,386,92,118,356,526,92,89
55,368,91,125,320,514,100,88
49,358,91,125,329,539,87,82
58,346,104,146,392,520,91,83
59,328,94,148,376,537,94,94
60,331,89,140,386,536,90,106
93,353,99,135,373,517,77,121
96,343,98,165,434,507,84,119
91,358,89,149,400,525,83,124
91,362,99,140,401,509,81,119
90,347,98,138,433,564,87,128
59,323,91,153,465,604,92,135
60,334,91,122,427,599,83,136
73,310,91,150,467,636,88,126
70,353,97,180,481,658,100,129
71,367,94,186,442,599,97,112
69,353,89,186,449,566,99,111
65,347,100,190,446,547,99,108
53,356,107,167,379,518,90,110
57,298,93,134,352,525,76,106
55,289,99,118,368,553,75,132
65,303,94,93,332,571,68,111
71,289,83,93,336,570,89,119
73,308,81,131,353,526,97,122
69,314,88,170,411,507,104,126
72,323,87,179,521,508,109,102
68,314,87,188,631,481,108,105
68,348,93,183,637,493,103,110
64,354,88,158,636,532,90,105
65,355,83,116,602,515,85,104
66,340,83,109,530,530,94,116
72,342,89,127,418,594,97,124
72,293,83,143,389,603,87,122
76,296,111,154,421,591,92,142
79,295,119,158,460,638,97,147
75,291,119,176,455,611,80,138
69,364,126,157,433,587,80,130
64,368,126,138,443,591,81,140
66,356,112,123,384,568,75,121
63,362,107,118,338,514,69,116
62,368,110,78,314,498,66,117
60,297,99,72,305,471,62,129
59,293,97,72,279,461,62,111
55,263,83,81,320,503,61,116
57,257,85,109,366,557,63,119
66,242,77,116,367,586,63,115
65,253,82,132,438,643,76,114
76,314,87,144,458,659,74,142
80,368,85,176,459,683,76,136
80,406,77,168,430,695,78,138
76,419,81,180,409,716,76,141
82,423,93,198,367,666,75,138
74,418,111,204,345,668,78,112
82,405,123,207,331,669,87,126
84,388,134,234,383,652,93,130
86,373,136,237,466,647,94,126
89,369,126,219,452,698,85,131
91,332,109,214,467,675,87,134
91,351,96,185,459,660,79,141
90,311,85,140,411,662,68,134
100,414,91,162,350,684,80,142
103,436,90,164,391,667,79,130
112,487,98,249,435,702,90,132
109,459,97,261,475,699,91,112
107,465,102,281,483,706,102,110
102,388,90,264,500,703,91,100
94,363,88,265,457,712,93,100
111,375,86,197,413,722,97,107
110,362,91,248,475,788,103,106
115,377,93,300,495,825,101,113
118,361,95,311,554,842,104,111
117,365,106,313,575,890,103,124
87,284,104,333,595,870,94,110
84,307,123,297,510,838,85,159
78,298,118,246,497,801,79,155
60,303,119,237,380,766,79,155
60,280,116,261,358,688,83,154
76,297,115,225,326,706,74,158
80,279,94,251,361,691,80,127
88,318,94,236,384,710,78,145
91,328,98,225,391,733,77,145
94,331,90,202,434,752,70,139
80,342,96,200,449,819,74,139
81,351,88,157,438,819,68,127
89,347,90,144,421,803,69,134
92,346,80,147,473,804,67,138
105,393,94,216,454,792,74,145
107,376,91,222,425,691,66,140
103,363,92,212,412,697,63,134
90,332,92,211,437,697,59,99
97,357,102,219,410,678,64,108
101,354,95,156,401,693,57,93
101,346,87,168,404,719,55,97
98,353,94,182,390,719,57,97
100,370,91,198,344,717,65,120
90,348,86,204,375,736,68,117
63,311,80,197,353,706,68,117
66,310,95,214,425,705,74,124
72,308,90,250,479,661,78,132
74,338,128,381,549,642,84,117
91,342,135,428,577,597,88,106
119,346,139,439,625,601,88,116
122,353,134,430,634,575,92,118
119,364,139,411,647,616,88,116
115,310,108,309,607,652,74,109
107,293,98,258,602,696,67,133
71,282,94,229,574,723,67,126
63,293,99,292,541,763,61,136
68,289,94,292,512,780,62,127
69,301,105,297,554,756,76,131
90,324,112,296,501,715,74,106
90,328,118,303,499,686,73,103
96,362,114,340,516,638,100,79
92,348,116,341,509,598,100,77
102,356,105,315,464,601,90,86
78,337,97,310,457,610,88,82
81,328,95,309,440,618,89,90
83,285,94,196,388,658,64,126
87,306,95,196,377,674,62,135
77,308,94,232,422,683,69,135
92,353,110,235,406,706,68,137
93,371,106,231,415,706,76,143
89,405,112,255,435,668,69,109
92,412,113,312,553,674,73,111
114,422,112,318,570,661,72,106
101,379,98,308,574,644,70,107
96,369,99,307,569,656,61,105
102,361,93,289,590,677,67,106
98,337,90,214,506,685,62,98
65,322,82,158,466,717,58,90
78,377,99,136,473,740,62,110
83,386,101,126,464,731,60,100
73,391,102,118,459,744,54,105
68,395,102,144,476,739,56,103
72,396,110,153,467,703,56,128
94,387,122,158,459,681,53,108
93,383,124,164,461,682,53,107
95,358,123,157,421,678,52,113
104,366,127,175,376,666,56,122
108,413,121,177,377,685,58,97
79,384,92,177,381,703,61,96
80,402,88,185,395,710,65,96
82,428,86,182,403,706,67,82
71,442,74,148,408,727,66,76
67,415,79,143,363,745,60,89
64,415,80,158,390,749,63,91
57,395,90,157,413,778,59,92
47,361,87,152,408,760,64,99
46,329,96,185,403,741,69,96
39,296,98,190,427,717,70,84
55,347,102,174,406,710,74,90
58,343,89,189,379,673,77,93
57,348,84,189,367,681,70,75
73,373,99,161,374,677,69,95
85,374,95,196,383,682,77,96
89,355,104,202,391,661,71,95
90,374,104,177,405,665,71,98
90,390,113,172,409,657,71,110
87,405,113,172,415,644,65,91
81,415,116,171,449,622,64,103
67,400,107,197,437,618,62,99
67,386,107,209,460,613,66,101
72,360,102,210,451,610,64,98
64,326,86,208,439,631,66,102
61,304,94,196,413,637,59,89
68,301,101,169,437,637,61,102
73,287,108,155,405,626,59,105
69,293,116,157,415,617,62,101
66,294,111,150,395,619,61,95
63,307,99,131,368,622,61,105
64,296,87,117,326,633,63,139
61,322,81,137,372,635,59,133
72,339,75,164,379,645,57,133
77,365,88,209,397,648,56,135
88,380,93,205,390,632,54,131
84,381,90,211,424,636,55,102
85,367,103,201,371,626,56,120
74,342,96,188,364,611,57,118
83,322,89,145,389,603,59,116
77,310,86,153,392,615,60,114
81,319,103,150,377,596,56,111
83,357,90,179,398,621,63,97
84,356,91,174,423,652,63,96
102,396,96,190,390,639,65,109
103,387,90,176,411,667,69,109
101,377,71,171,402,684,67,89
107,376,91,161,400,694,69,111
109,379,90,168,393,690,69,109
93,370,108,150,427,715,63,98
91,384,111,151,406,710,59,96
87,385,110,160,418,724,60,99
80,372,110,151,398,712,55,87
80,377,109,149,403,694,56,85
73,338,83,135,360,684,57,88
74,340,82,137,398,675,57,93
76,358,86,137,384,647,61,113
74,366,66,125,395,644,57,100
78,357,77,111,377,671,59,109
72,351,85,123,405,661,62,114
71,337,86,121,393,668,66,141
69,358,84,120,408,702,62,133
68,345,80,116,409,722,64,132
60,346,74,119,425,722,62,125
61,369,63,137,406,745,61,138
54,356,59,131,386,748,54,106
57,338,64,149,357,717,61,117
51,326,64,159,356,692,56,114
57,328,65,157,324,673,56,122
95,366,81,156,357,647,55,103
102,371,80,166,377,629,57,103
106,352,76,147,397,608,60,111
108,353,80,137,382,592,63,114
113,369,78,145,403,592,67,113
83,321,76,129,364,568,69,118
74,329,75,117,329,569,71,117
76,340,81,130,328,584,63,102
75,350,76,125,347,581,59,98
62,330,88,112,335,592,58,100
63,334,86,118,352,642,60,91
62,330,86,117,358,629,59,94
73,335,92,99,378,656,65,82
77,338,91,98,362,685,64,81
77,349,96,99,345,656,61,78
77,333,93,111,359,622,63,77
79,327,93,114,376,643,63,74
64,300,91,116,361,623,68,103
68,278,97,115,368,599,70,102
72,292,85,123,377,614,69,97
75,324,100,122,410,678,67,100
73,400,100,118,450,758,66,108
73,428,93,116,472,726,59,95
68,467,98,130,472,701,60,98
64,464,94,142,476,714,60,111
64,433,80,150,468,627,66,111
67,369,81,154,444,482,68,131
74,345,77,154,433,547,65,135
69,296,64,142,433,565,63,137
72,271,75,129,424,565,62,132
67,301,68,95,376,598,54,137
65,332,67,83,353,644,54,118
53,350,72,88,345,644,56,108
57,343,75,99,373,657,57,107
63,370,68,107,376,614,56,108
64,343,64,107,377,597,52,99
69,311,72,112,369,559,48,98
65,273,71,110,346,505,52,90
69,280,77,111,321,484,53,110
66,250,75,111,318,498,55,104
65,268,76,112,309,474,58,123
72,298,78,119,309,474,57,133
73,302,77,114,302,496,46,133
69,307,69,103,285,505,49,128
72,303,68,107,331,530,54,126
82,298,70,106,338,590,52,119
75,288,66,99,346,587,54,107
75,293,65,101,350,605,54,103
81,281,81,104,356,597,52,108
74,273,90,91,301,598,47,112
64,256,88,91,292,568,54,134
61,244,87,91,274,587,56,141
60,255,86,87,264,550,56,144
56,266,74,85,266,594,60,138
53,264,61,77,272,572,59,139
61,298,67,84,313,625,57,132
67,292,67,83,309,618,54,128
71,296,79,85,326,667,56,125
68,275,83,79,319,627,50,120
68,278,86,83,327,649,51,114
64,277,91,124,311,592,57,130
62,273,88,130,304,562,59,134
92,374,86,133,294,502,58,154
118,393,83,136,288,494,59,154
120,421,92,143,286,472,59,153
119,409,93,110,256,469,65,132
117,411,93,97,271,524,65,122
100,311,92,98,282,572,71,98
66,299,104,103,278,607,68,91
65,256,94,90,293,656,70,91
76,316,106,83,309,670,61,65
75,313,110,91,317,687,59,61
69,328,108,86,311,667,51,67
69,321,95,77,325,639,56,75
69,322,95,85,328,579,53,82
57,276,68,84,319,566,44,84
62,301,71,90,335,509,50,100
59,285,64,121,345,516,62,119
58,286,65,132,374,560,62,128
61,293,61,136,366,602,67,129
59,280,68,158,382,624,71,125
78,321,80,167,373,661,73,152
80,322,83,144,352,656,68,138
88,373,101,136,340,684,64,128
95,368,103,130,343,703,67,128
99,369,113,129,330,694,65,131
90,349,111,135,337,689,64,108
90,343,112,139,352,755,58,99
82,285,97,156,349,731,66,110
70,333,98,164,366,727,60,111
75,337,88,159,379,756,60,107
81,348,75,155,379,791,56,83
81,348,71,155,370,765,62,100
82,351,75,136,371,803,53,87
85,315,80,131,344,795,54,79
82,316,76,117,323,790,53,78
62,253,73,109,294,763,51,79
60,251,79,107,310,724,56,77
62,252,69,105,288,676,57,74
55,233,73,98,284,707,56,77
57,249,80,97,276,690,57,83
60,247,75,77,272,685,56,82
62,277,74,79,258,734,48,88
59,276,76,78,243,771,47,87
66,300,78,80,235,766,49,88
59,272,72,75,263,821,48,86
56,295,84,72,288,866,51,93
52,269,82,71,295,877,58,74
55,264,79,75,321,866,60,80
50,259,69,72,322,839,56,77
54,268,68,71,320,793,61,92
55,254,55,71,298,749,58,87
64,266,62,93,313,693,53,104
64,294,68,97,312,671,52,107
59,282,67,98,441,672,55,111
59,322,83,105,461,680,52,101
60,327,84,103,576,678,52,100
70,335,86,91,633,709,49,99
66,312,82,87,652,721,50,90
72,344,87,90,603,724,54,90
76,308,71,90,590,713,49,95
74,300,68,92,483,700,52,96
71,294,69,96,434,683,59,111
77,294,68,98,388,677,59,113
72,253,58,91,346,678,56,110
74,278,81,82,345,690,57,107
75,284,85,80,344,713,56,107
63,285,85,68,274,727,51,80
84,308,94,82,279,723,53,83
89,320,95,87,292,722,50,80
81,298,79,87,296,791,53,75
88,314,78,90,283,781,54,73
87,292,80,84,290,762,51,54
64,271,70,68,297,754,51,72
58,272,77,60,282,737,55,103
60,255,72,57,250,632,52,103
50,235,70,64,270,609,53,108
68,278,70,70,282,605,52,133
71,273,72,68,280,603,47,121
94,314,74,77,322,632,50,107
97,326,80,80,347,663,59,115
97,334,84,71,347,702,58,115
87,325,71,64,346,733,56,85
83,343,70,63,345,767,57,104
56,328,70,57,305,762,55,103
49,320,69,56,316,760,50,95
56,347,71,59,316,741,49,111
54,326,79,69,310,710,53,118
59,309,77,71,296,680,54,104
56,285,66,70,306,667,50,98
57,288,65,69,281,653,43,95
53,258,70,67,270,658,48,87
52,268,61,55,264,680,42,78
58,283,68,53,284,700,42,81
60,279,70,52,298,708,41,83
66,308,76,49,305,722,50,109
63,299,67,48,308,708,47,98
71,339,76,48,357,696,47,103
62,334,73,45,357,679,44,99
66,352,76,47,370,662,45,102
93,335,74,63,375,653,37,77
107,356,78,65,389,673,39,89
149,325,71,70,338,672,40,84
152,379,92,77,345,676,43,83
156,422,94,87,412,693,50,85
143,410,88,79,584,679,51,89
166,424,92,82,678,652,53,92
164,458,92,84,718,651,60,95
193,433,72,79,728,655,69,101
198,390,84,74,693,635,65,108
201,422,88,75,554,634,67,105
189,391,85,76,415,641,65,94
179,351,95,82,385,624,61,114
180,339,99,102,366,601,58,128
193,344,89,104,367,597,57,118
240,336,88,114,428,635,57,112
238,317,85,117,428,639,57,115
225,323,82,130,409,653,58,94
226,305,76,128,437,662,53,78
216,323,90,141,413,673,57,81
188,342,91,135,348,629,57,94
212,369,93,138,362,609,71,101
220,374,96,134,362,614,71,109
214,394,95,122,307,586,75,105
216,394,78,138,306,578,73,110
201,368,96,157,315,568,73,100
173,363,111,216,339,569,78,124
188,379,104,218,390,547,82,128
202,389,110,226,455,578,78,129
214,423,111,213,479,569,77,123
208,412,96,221,527,562,82,133
220,439,87,166,524,560,68,99
207,428,95,164,513,545,66,86
191,423,96,155,465,495,63,78
171,370,111,197,471,517,89,146
170,384,114,257,486,511,89,147
147,362,107,285,500,501,99,150
174,356,100,280,493,494,98,153
173,332,103,292,493,517,98,154
198,318,89,284,488,491,85,125
239,351,93,228,418,518,81,123
254,361,97,188,412,526,66,120
238,365,100,188,386,531,63,117
253,398,95,168,388,525,65,121
234,405,97,246,553,539,70,108
205,369,100,256,585,537,71,108
192,369,112,277,592,582,75,114
214,368,124,299,633,598,81,119
203,346,122,309,639,599,79,128
215,337,129,248,566,589,80,138
235,385,132,224,569,580,79,142
265,359,120,199,544,518,75,141
246,368,103,164,530,505,70,137
277,361,104,149,530,509,75,130
277,393,87,125,469,537,68,104
346,381,80,135,426,537,66,107
332,377,84,147,453,567,73,114
421,386,87,157,418,575,74,134
408,395,97,160,454,595,73,134
420,394,112,157,523,654,63,133
356,371,104,140,512,658,64,120
351,374,105,136,488,650,58,116
252,338,105,129,498,648,59,98
245,344,101,118,450,635,59,97
236,327,97,129,365,540,65,96
248,333,104,155,372,542,65,102
239,336,101,159,371,531,76,116
295,344,107,152,342,572,71,115
287,347,113,154,422,630,70,110
305,357,111,143,441,666,72,136
303,342,103,115,433,658,72,134
328,337,112,93,445,698,63,129
303,364,112,96,459,688,72,144
299,366,100,118,413,664,70,147
284,349,97,104,419,666,64,134
284,377,102,103,432,699,64,136
295,417,97,118,451,685,64,155
297,419,98,124,453,691,64,167
310,409,99,107,456,677,72,182
329,464,98,110,437,654,76,183
326,438,104,110,447,644,74,179
308,433,105,97,479,625,70,164
297,414,102,84,499,602,66,139
288,396,124,88,493,586,60,117
262,308,125,90,460,546,54,102
251,307,125,88,447,519,54,116
236,252,117,83,392,521,61,110
199,227,117,91,365,482,63,111
194,265,94,83,344,478,60,111
228,273,101,76,335,517,59,114
224,273,92,76,337,509,68,116
231,323,104,84,309,490,69,116
234,333,103,76,312,525,70,114
295,330,101,72,311,529,69,116
266,338,102,75,332,514,71,114
281,352,108,76,334,527,63,109
324,343,101,83,359,547,59,100
343,370,97,92,346,532,58,95
324,417,102,103,376,534,61,96
377,486,99,112,387,520,64,99
389,503,108,120,366,501,67,109
410,498,108,112,340,471,66,112
508,501,115,111,354,448,65,118
495,549,122,118,428,554,72,117
476,507,117,115,454,612,68,117
504,507,110,106,477,624,69,154
458,505,114,105,485,630,67,151
400,540,114,100,473,633,69,149
394,477,115,86,405,523,58,151
363,498,123,83,396,460,63,148
292,470,116,99,379,430,62,90
350,466,121,104,410,488,67,91
312,432,127,104,430,494,64,82
338,419,125,100,420,506,65,75
343,370,128,94,384,538,59,81
355,399,126,78,389,558,60,85
319,407,121,82,393,500,57,86
328,375,114,85,381,520,56,85
299,327,116,83,365,511,55,83
296,328,102,84,351,473,55,78
320,322,112,110,366,478,48,63
328,317,122,105,317,483,43,56
270,336,120,103,306,437,41,54
268,355,120,103,314,417,40,53
262,367,122,102,341,410,38,46
256,361,116,77,326,395,47,45
212,342,102,67,315,424,48,53
240,346,113,67,316,418,51,57
241,340,108,65,295,432,52,61
263,344,111,114,265,445,63,69
269,338,127,197,317,508,72,78
283,347,128,226,344,493,78,76
268,320,132,370,665,528,95,83
340,329,137,452,810,529,103,92
345,309,179,654,963,537,136,103
323,312,195,681,1086,496,141,103
325,299,199,688,1115,496,140,102
338,351,204,703,1074,505,140,105
290,361,196,667,984,523,140,101
278,380,174,479,845,519,112,83
315,372,145,456,748,498,107,75
324,374,150,458,727,507,109,79
313,333,129,331,542,498,96,68
288,327,140,318,570,478,94,74
278,317,142,346,620,464,89,82
215,315,157,318,575,464,83,83
221,324,147,300,614,467,78,77
234,314,149,303,627,457,84,80
242,310,137,291,606,465,85,73
240,307,118,233,550,486,92,78
251,316,90,196,509,508,88,86
260,342,97,185,490,541,94,89
234,362,108,215,549,602,88,82
226,369,131,241,601,651,86,92
261,376,137,238,607,671,79,86
256,381,147,245,608,653,78,85
213,348,142,248,564,637,75,91
224,339,136,221,494,602,76,96
254,321,129,249,466,543,74,88
211,304,123,256,468,522,78,86
202,319,120,242,448,590,81,76
229,365,121,236,493,589,77,71
225,361,119,234,503,662,75,72
200,368,110,223,544,723,79,68
208,365,105,233,540,730,72,69
204,346,100,247,570,734,79,69
166,309,94,243,514,747,90,68
148,329,87,237,509,669,91,59
122,324,87,213,426,634,87,65
117,326,84,189,408,659,91,62
147,316,91,170,338,622,86,72
192,305,94,162,335,642,76,72
208,281,103,167,317,678,73,73
258,296,106,148,292,676,70,70
267,281,107,161,388,720,65,71
257,306,102,170,419,767,62,63
226,312,109,173,433,765,55,58
209,301,108,163,443,796,56,56
142,282,96,157,433,809,57,49
113,316,104,151,361,756,65,64
92,352,111,148,374,757,76,75
84,379,100,142,402,764,79,76
114,383,97,151,416,719,79,78
113,376,100,149,422,699,78,78
120,405,95,164,427,711,70,63
123,337,81,154,383,678,54,43
130,371,80,150,342,664,56,70
104,362,71,140,331,686,64,67
164,382,92,137,335,725,62,76
162,332,86,102,324,745,62,76
163,437,101,101,374,784,61,80
161,389,103,103,402,804,64,65
163,431,107,106,411,810,63,68
125,461,112,121,408,784,67,62
140,461,119,125,414,768,66,62
139,373,113,138,374,718,66,63
133,370,111,135,340,699,60,68
136,319,115,130,301,694,55,67
123,261,98,126,282,692,50,65
98,270,111,139,311,710,52,63
116,304,118,123,325,761,51,63
124,292,118,121,315,755,50,51
129,339,123,128,360,755,50,73
121,362,124,117,372,751,49,73
122,392,114,97,343,724,46,76
104,369,106,87,317,671,49,72
94,378,108,95,347,656,51,74
72,341,98,91,336,655,51,53
69,300,99,108,357,687,53,60
73,287,109,119,366,694,57,56
67,306,109,131,415,716,51,56
66,327,108,149,437,721,52,52
97,351,109,164,437,706,50,58
99,371,104,163,422,666,56,65
100,340,80,176,423,643,56,71
101,324,68,175,389,598,59,71
140,333,75,190,386,588,62,76
126,316,71,191,424,560,62,69
137,344,69,190,461,578,63,72
133,350,79,182,446,575,63,65
133,367,86,182,441,587,63,65
91,331,78,148,420,591,58,58
126,317,75,122,343,610,56,60
114,292,73,112,294,636,50,45
116,297,64,95,308,682,45,45
118,292,60,106,319,706,44,46
117,308,58,103,310,790,45,49
76,330,71,106,329,796,48,59
73,317,74,103,325,791,49,58
111,337,76,102,325,771,52,60
127,375,97,89,313,745,54,68
131,362,99,91,295,658,53,64
141,394,93,103,303,633,52,62
142,382,91,104,295,599,46,58
110,349,84,118,321,590,44,57
104,300,91,128,363,613,47,55
104,305,89,128,378,617,51,55
143,268,97,118,390,633,53,54
145,283,99,116,405,671,53,54
167,327,106,91,392,666,55,72
168,317,111,83,372,651,47,71
166,324,111,85,369,658,46,73
119,297,110,84,351,645,40,67
118,309,108,88,380,612,44,68
96,313,102,104,398,699,41,46
77,348,72,95,417,763,43,38
81,345,77,104,439,782,45,37
82,392,73,117,486,836,51,37
85,396,74,125,460,873,51,44
108,372,78,126,453,820,52,50
122,352,86,122,438,775,51,52
122,359,86,111,425,751,55,55
125,321,81,112,392,715,55,53
125,309,85,113,382,655,54,52
97,313,87,115,369,637,52,61
89,353,94,113,355,630,51,64
87,346,90,122,355,603,51,61
83,335,97,120,356,601,50,64
79,346,103,116,420,667,54,61
99,334,102,106,417,656,53,50
95,285,88,110,424,654,54,42
112,294,88,103,419,678,49,48
129,319,96,97,390,656,49,58
126,314,100,120,347,654,43,57
117,315,101,128,361,687,44,55
126,336,103,139,363,695,42,55
123,360,106,141,406,699,51,51
123,348,98,138,407,711,50,52
187,360,106,182,394,662,57,69
231,383,106,199,408,621,61,78
259,360,104,234,473,596,68,80
337,340,112,279,486,573,73,80
343,346,113,327,542,551,85,82
347,322,107,330,594,538,81,73
374,289,116,383,651,534,84,68
358,315,118,381,645,519,87,66
300,317,111,354,628,492,79,71
300,363,115,326,612,465,67,78
263,375,119,311,602,450,77,77
180,370,105,241,555,441,80,76
181,348,101,211,501,453,72,78
212,363,102,226,505,477,76,75
211,347,95,238,505,512,85,58
221,327,79,236,472,522,86,69
236,350,85,241,488,536,79,66
229,363,90,244,505,530,82,72
196,342,86,233,498,520,80,71
202,338,99,217,494,523,74,82
207,348,95,202,509,541,67,71
194,364,105,179,470,555,71,71
193,362,110,188,487,571,74,65
172,359,115,205,513,576,73,67
170,330,101,198,490,554,70,57
159,347,100,195,443,540,65,70
149,353,94,204,442,556,63,71
177,382,81,215,442,591,65,79
183,398,88,245,488,585,69,75
190,416,86,247,500,606,70,77
188,402,89,253,542,621,74,75
192,380,90,308,701,601,83,84
163,358,102,300,726,549,80,78
159,345,94,252,689,573,77,82
117,325,98,250,688,559,78,78
101,345,105,239,665,558,75,70
101,327,98,151,487,569,66,70
99,304,86,135,404,595,67,67
104,302,85,135,354,575,64,63
108,325,87,132,387,584,64,74
126,308,90,152,416,589,64,72
118,326,88,153,412,572,64,65
119,351,96,151,421,585,63,65
144,329,94,157,425,598,62,66
145,323,106,147,377,594,61,64
140,313,91,122,373,602,57,66
149,312,93,115,372,604,55,67
150,279,91,112,359,558,59,69
132,305,89,113,394,566,60,67
138,274,69,109,410,559,59,63
128,278,72,137,466,630,63,59
120,302,69,142,507,716,65,57
122,302,69,158,550,721,61,62
134,295,71,158,532,715,62,66
128,337,75,159,545,776,64,66
127,329,76,156,503,692,62,65
125,309,83,166,500,607,63,68
120,324,83,155,483,641,67,72
85,332,83,227,549,675,65,72
99,295,82,237,552,639,65,66
114,319,93,239,592,667,67,71
116,314,117,241,624,649,63,66
128,335,138,249,634,603,63,60
144,337,143,221,586,551,66,59
133,355,142,241,591,511,68,65
119,355,139,258,544,462,70,74
115,354,115,263,492,480,72,75
141,322,105,255,457,473,67,79
126,304,96,224,441,464,63,76
124,272,106,195,405,476,57,69
136,246,107,155,383,477,56,69
134,228,106,142,369,520,53,65
94,286,89,157,377,557,52,63
93,307,90,154,428,648,56,67
134,365,74,148,453,716,60,85
128,378,65,164,473,739,62,82
147,376,66,146,445,702,63,87
150,380,61,125,474,715,64,86
166,425,77,124,532,712,63,96
137,417,87,132,601,714,59,84
130,426,91,130,611,716,77,89
123,450,97,150,622,713,75,87
126,431,116,271,706,666,90,91
105,363,111,280,676,577,92,80
108,339,119,308,643,488,95,90
137,329,124,328,684,464,86,86
133,308,120,321,689,467,91,97
128,303,110,277,599,487,78,96
123,349,122,285,543,525,79,93
118,344,113,267,517,546,78,96
87,320,104,245,418,541,71,88
80,331,114,252,397,555,66,77
105,330,105,215,361,565,72,82
107,299,83,196,422,528,73,89
105,301,86,176,413,511,72,77
102,316,86,187,442,499,71,77
96,311,86,191,495,477,74,81
69,289,87,176,489,455,65,67
80,312,96,181,439,445,60,68
81,339,90,191,420,411,56,66
88,346,89,179,424,429,59,69
95,360,82,174,367,428,58,73
89,357,80,174,370,440,65,74
78,338,75,163,367,485,68,80
74,311,70,179,359,515,72,80
80,299,75,159,333,500,67,81
70,267,72,160,326,515,65,71
94,285,81,184,342,522,63,73
92,269,77,197,399,503,62,58
95,261,87,183,391,509,59,65
89,259,81,188,388,536,64,63
89,263,84,188,399,554,61,61
70,262,77,166,371,552,58,62
66,254,79,151,302,550,50,60
92,310,77,149,363,548,51,56
93,311,76,141,355,542,46,54
94,334,72,130,354,524,44,52
111,329,76,124,360,523,41,50
117,328,76,119,355,521,42,51
102,280,64,94,280,513,39,59
120,321,79,101,271,487,36,64
124,290,75,89,242,483,35,66
117,311,81,85,283,503,38,65
127,313,81,81,281,498,38,68
121,302,83,84,308,549,41,54
122,260,86,80,350,625,49,58
122,259,93,86,370,650,52,58
110,225,83,100,346,680,51,55
101,249,96,129,357,734,51,56
107,269,102,127,334,680,48,55
78,261,93,122,292,639,42,50
74,267,90,118,281,641,41,60
85,277,91,109,279,598,38,60
83,282,86,78,265,551,38,73
86,288,83,74,276,600,38,81
84,286,84,69,269,582,37,78
85,293,80,81,260,589,39,74
80,288,82,76,256,621,42,82
69,267,78,69,247,629,42,67
74,267,90,68,244,672,44,65
75,259,88,72,252,700,44,66
89,237,94,56,245,672,42,67
85,233,92,53,228,671,41,59
95,218,101,58,248,682,41,60
95,186,102,63,241,597,40,70
95,192,102,63,232,601,39,70
82,219,111,65,285,656,46,76
83,212,107,62,287,641,44,75
73,237,100,60,276,664,43,74
73,238,98,51,312,748,43,62
73,239,95,47,322,786,44,58
68,226,79,43,280,800,36,43
85,272,103,52,301,824,37,60
84,261,97,50,295,802,37,61
68,255,83,48,253,780,35,55
67,286,88,51,254,761,32,62
85,317,98,52,262,726,32,71
72,287,76,42,245,726,29,58
79,284,90,46,243,721,29,58
84,292,95,45,239,702,34,79
83,273,92,40,230,704,34,76
67,226,81,43,247,715,34,66
75,218,83,47,245,724,37,67
71,229,70,47,254,781,38,68
68,264,77,65,269,814,36,49
74,262,81,90,285,819,38,48
90,304,97,240,432,837,59,58
115,321,100,298,507,851,66,57
131,333,108,307,517,817,66,63
153,316,99,306,525,784,68,71
173,321,99,303,543,756,69,78
172,297,92,214,431,735,52,74
155,282,91,133,358,699,44,74
155,265,90,123,360,695,45,76
145,282,102,145,392,771,45,67
128,296,102,160,394,765,47,66
148,336,105,179,413,772,53,64
148,344,99,181,469,774,59,67
143,341,95,232,530,756,64,61
161,315,89,255,522,673,67,72
180,300,87,248,506,651,66,70
202,247,72,228,488,610,64,75
218,240,81,245,452,591,63,77
215,242,81,217,390,592,57,78
195,252,84,206,422,602,60,69
170,229,86,263,454,651,63,67
115,240,93,271,470,698,63,61
73,306,93,256,512,731,64,54
69,326,97,247,524,764,66,48
66,331,86,234,534,806,62,46
68,345,91,165,519,797,61,52
63,335,87,171,528,756,61,55
65,287,89,171,460,715,55,55
71,280,93,166,441,675,53,54
71,250,94,185,426,601,51,58
69,241,90,198,430,574,52,52
71,268,97,201,454,610,48,57
72,266,98,215,539,628,64,58
77,303,96,231,565,655,66,60
72,312,102,200,522,684,64,59
76,337,98,193,541,721,62,67
72,331,94,193,575,730,67,62
77,393,102,221,524,754,57,76
71,414,111,216,500,745,57,78
88,424,108,223,531,720,60,81
101,422,115,220,530,698,72,81
112,415,121,213,460,668,67,79
127,376,114,181,462,652,73,85
134,343,109,303,477,642,75,88
135,358,115,374,480,658,79,89
129,336,112,377,435,684,95,106
123,341,116,384,438,689,101,125
105,324,117,377,407,710,98,116
94,287,109,286,396,730,108,123
83,295,110,204,455,763,116,120
76,299,105,207,481,734,98,105
66,302,91,209,491,723,93,82
66,319,88,216,512,704,92,81
66,338,95,208,528,694,79,67
61,305,85,182,433,635,59,65
56,310,88,179,411,655,71,67
60,323,95,145,409,675,72,68
55,306,95,128,441,688,80,69
58,306,95,165,443,982,81,69
65,306,102,261,509,1105,86,76
65,319,110,288,587,1187,76,73
65,320,106,357,650,1227,110,87
69,311,103,374,698,1230,109,101
69,320,93,365,684,995,110,106
74,322,90,326,662,860,111,104
75,308,79,312,637,700,115,105
75,302,82,265,596,597,85,98
79,313,82,251,514,554,79,82
74,343,101,301,539,554,77,73
73,349,98,294,575,568,72,71
70,358,108,317,585,607,69,71
66,363,106,359,571,648,72,66
65,359,110,380,583,662,71,68
101,329,97,334,572,701,71,67
159,330,97,327,565,720,73,67
169,337,95,294,519,713,73,69
227,341,90,214,545,708,71,79
265,352,93,184,576,708,69,77
261,323,97,210,590,673,70,81
268,363,99,197,542,633,67,87
