59,130,161,214,165,202,83,48
54,123,132,184,157,230,86,49
67,116,120,154,157,235,77,49
63,89,124,150,137,210,73,46
58,92,145,183,119,204,68,44
58,104,153,178,106,212,61,44
56,111,152,183,106,184,56,47
35,109,178,216,99,182,62,43
39,115,188,231,116,191,70,48
42,107,181,217,115,209,72,53
43,100,189,218,127,196,77,53
48,95,205,239,133,212,86,59
52,99,204,239,138,204,111,59
57,120,213,256,142,203,116,63
65,128,219,259,139,184,116,61
65,127,233,281,142,187,115,60
63,143,225,260,139,166,110,52
63,160,223,264,138,166,78,52
60,153,217,248,140,159,82,48
59,169,200,225,152,160,78,51
56,211,164,190,161,152,83,55
70,213,175,204,174,157,83,61
68,202,165,195,183,185,89,61
69,207,174,232,190,175,96,60
63,210,200,267,188,170,118,58
64,180,214,277,178,178,119,59
46,168,204,271,173,186,118,53
48,260,220,265,212,174,113,56
44,256,201,215,202,174,94,57
39,249,181,185,199,178,64,54
41,249,177,181,220,215,58,52
43,247,191,202,212,201,60,54
43,149,160,190,158,193,78,51
42,146,175,231,159,211,73,48
41,127,169,223,156,215,73,49
41,121,153,216,126,189,75,48
41,219,141,198,132,196,72,44
52,363,147,209,136,202,59,54
57,398,135,198,150,191,67,59
61,419,134,192,147,194,70,58
59,424,149,190,142,169,67,60
58,384,143,182,135,171,72,61
51,255,134,157,141,165,76,57
50,206,203,201,125,197,87,52
51,172,233,254,158,194,92,57
50,157,237,265,155,196,100,54
50,175,239,272,163,191,98,52
55,169,238,273,155,192,93,51
51,158,207,248,149,152,76,54
52,154,192,250,139,151,69,61
61,150,187,258,145,150,60,60
61,132,195,253,136,156,64,61
55,137,231,295,140,160,61,58
57,131,220,298,138,188,64,55
58,121,205,258,112,184,94,47
51,127,226,243,103,182,121,51
55,121,241,265,116,189,121,54
54,138,215,231,125,189,122,53
51,198,210,206,136,181,150,56
47,208,229,214,143,185,151,52
47,214,197,209,152,189,142,51
45,219,165,187,154,200,154,53
49,234,175,176,150,198,227,56
52,201,171,180,150,206,262,56
48,238,176,231,168,219,254,61
50,242,189,245,168,222,259,58
51,244,193,250,174,226,251,54
50,216,177,260,177,222,200,56
51,206,180,265,184,201,128,57
52,157,150,211,171,193,171,53
53,145,146,223,193,183,382,59
53,144,160,225,192,164,457,62
54,146,163,239,196,169,455,62
54,148,170,265,196,168,454,61
52,142,172,263,194,154,450,58
46,134,171,247,177,173,293,56
42,126,169,260,166,167,168,52
37,120,164,237,147,165,158,43
35,107,154,208,129,167,159,41
41,119,193,272,125,163,136,37
51,114,195,287,108,142,113,38
51,105,190,267,101,143,89,42
51,117,207,272,107,145,88,43
55,115,203,262,122,154,82,46
51,95,166,197,114,173,63,73
42,91,153,174,115,194,59,108
40,86,147,195,118,187,54,127
49,68,122,189,120,179,60,131
44,65,128,192,113,173,61,131
42,74,121,191,112,162,59,118
44,75,127,198,104,146,58,87
49,111,143,216,128,153,64,55
45,189,151,240,176,153,59,44
45,213,160,263,187,147,71,43
49,217,173,262,195,148,77,51
45,225,166,260,201,157,108,53
46,214,151,229,192,187,126,52
45,156,142,201,157,194,127,52
43,133,118,179,140,203,127,52
42,173,123,205,141,210,127,51
47,169,139,223,164,209,111,50
42,195,191,247,175,196,100,49
43,192,197,273,206,192,103,52
46,195,196,260,215,183,94,51
45,175,179,237,216,183,102,48
44,170,177,215,199,175,100,51
48,141,154,229,200,177,93,49
46,140,151,198,158,175,95,52
50,136,152,208,161,169,96,53
51,119,153,220,164,188,83,53
50,117,141,212,163,188,91,48
51,117,123,208,149,168,87,55
51,117,123,208,149,168,87,55
45,175,179,237,216,183,102,48
44,170,177,215,199,175,100,51
48,141,154,229,200,177,93,49
46,140,151,198,158,175,95,52
50,136,152,208,161,169,96,53
51,119,153,220,164,188,83,53
50,117,141,212,163,188,91,48
51,117,123,208,149,168,87,55
54,113,114,222,164,172,91,52
49,106,112,206,143,167,91,50
48,96,112,213,127,137,90,48
57,140,181,281,143,137,76,49
52,147,182,282,149,152,92,42
49,150,196,282,156,155,97,44
51,166,221,308,160,165,106,49
49,165,223,300,163,161,117,51
39,143,171,249,160,170,321,52
44,144,176,257,154,176,608,54
45,142,166,259,139,168,770,56
45,131,134,231,138,166,789,53
46,133,130,226,139,179,788,49
46,144,143,218,125,183,732,47
43,136,118,166,120,171,533,47
42,137,136,145,107,180,249,41
41,129,148,180,113,174,181,42
41,146,162,191,114,171,180,44
48,127,152,180,120,156,170,46
48,135,165,198,122,143,103,45
50,145,165,219,141,167,88,48
49,144,158,192,139,203,73,51
49,127,154,191,148,196,62,49
43,132,169,225,152,234,59,47
41,122,162,215,155,255,56,47
38,117,151,213,147,239,49,46
40,121,158,238,154,216,55,45
38,124,152,230,143,225,68,54
35,116,140,222,131,188,69,57
42,120,151,266,143,162,69,55
42,133,165,266,146,169,76,55
42,148,158,242,136,177,71,59
42,158,162,258,150,161,62,52
43,158,157,242,152,170,59,52
41,166,143,184,141,176,58,54
42,223,110,162,170,174,48,50
39,222,114,191,192,169,56,43
39,222,111,171,181,164,52,44
41,234,110,168,193,157,55,44
39,232,108,184,197,153,65,42
38,167,112,182,168,149,67,46
40,150,95,156,149,133,63,50
38,132,102,155,156,139,70,47
39,112,119,155,141,136,86,43
37,111,134,152,138,134,97,41
32,288,141,159,140,149,98,40
30,413,140,148,136,161,106,35
40,424,125,140,128,168,112,41
38,424,106,135,120,158,116,42
40,425,74,110,109,155,111,52
42,338,58,93,103,130,114,51
43,160,55,94,98,125,110,51
36,145,57,98,95,118,97,47
37,167,61,103,106,129,77,46
38,167,58,96,128,133,64,40
37,156,56,84,128,132,55,38
39,164,79,112,134,140,46,37
50,149,103,124,126,137,56,37
48,117,104,113,121,134,54,43
47,100,106,112,97,144,54,39
46,93,107,131,91,162,56,41
44,76,92,118,74,147,58,40
37,72,78,113,76,158,52,47
35,71,73,111,72,178,54,43
36,70,71,111,75,175,60,50
40,70,71,102,79,162,61,53
38,76,68,97,88,173,64,54
34,80,65,95,94,181,64,50
33,86,69,129,92,177,66,49
35,87,68,131,89,168,59,42
32,80,67,122,84,175,54,39
36,95,77,125,88,165,57,41
39,92,84,140,90,149,64,44
44,101,100,140,103,135,76,47
41,103,98,137,108,153,104,45
43,109,99,138,111,147,106,45
43,94,96,136,105,157,103,45
38,91,91,124,111,168,100,41
33,74,76,96,113,181,92,41
32,67,77,98,108,204,64,42
33,66,81,103,104,205,68,44
38,69,85,108,100,210,66,42
39,77,88,107,86,204,64,41
43,84,85,109,66,199,61,42
42,121,89,117,67,159,53,47
41,116,83,120,68,150,49,55
38,133,75,116,79,155,55,61
39,187,62,114,86,154,58,62
36,281,55,105,84,142,62,63
36,271,48,97,78,146,70,61
36,273,49,91,81,151,69,60
32,264,45,86,81,134,67,71
32,227,52,80,82,149,67,95
33,80,56,89,96,155,60,95
35,64,56,88,97,152,54,95
49,56,55,78,101,157,54,92
50,72,58,77,96,164,59,80
52,68,53,82,91,159,61,48
52,73,68,93,106,181,62,43
52,74,68,90,107,179,60,42
38,76,68,95,104,185,58,39
36,65,67,100,110,182,52,39
36,71,75,102,112,175,46,43
36,69,59,88,101,148,47,45
38,150,61,91,106,151,49,45
38,164,62,86,104,133,53,46
38,167,67,98,104,162,48,42
34,167,59,94,115,170,51,38
38,165,58,90,105,172,47,38
36,98,57,92,100,177,50,43
37,77,58,95,101,186,44,39
38,104,47,73,96,148,49,44
38,154,36,66,95,156,47,45
38,177,50,102,105,160,48,44
39,177,49,98,113,161,46,39
37,174,48,95,118,157,49,41
35,158,52,98,124,164,44,40
36,109,62,98,115,141,49,44
36,69,53,73,99,135,52,43
35,68,62,85,102,150,54,42
34,78,62,85,97,156,52,40
39,76,61,89,90,154,54,39
39,76,54,93,92,168,49,36
37,75,57,105,97,160,52,38
34,72,46,96,91,141,50,40
36,60,50,99,91,132,51,40
37,64,55,96,95,158,50,42
36,62,53,89,87,152,51,43
36,63,48,64,99,182,46,41
39,66,51,69,102,209,48,41
40,79,63,108,102,213,44,46
38,103,61,110,102,198,46,43
40,112,60,113,114,195,56,42
39,116,64,113,114,186,71,45
36,118,62,110,116,179,83,47
35,122,52,80,114,188,93,44
35,104,49,76,115,189,95,42
33,97,51,73,112,205,91,44
34,93,54,88,108,195,80,45
37,90,57,93,109,184,74,42
35,71,55,85,113,169,61,42
32,61,52,80,111,171,62,44
33,58,51,79,109,147,57,41
35,57,47,62,106,151,56,39
35,54,44,52,96,141,49,42
34,56,41,48,96,145,47,42
38,53,41,68,98,151,41,42
47,56,44,75,105,190,72,53
48,60,42,73,105,190,73,51
49,63,40,73,104,194,72,50
49,64,42,77,108,196,77,49
48,66,43,59,102,184,83,52
42,63,45,64,93,149,67,42
40,60,59,86,92,150,67,43
44,68,66,90,105,149,68,45
46,69,72,94,100,150,67,50
46,70,73,99,113,152,64,51
48,74,75,104,131,150,64,52
48,73,64,91,135,153,79,52
44,65,61,88,126,150,89,50
43,67,56,83,123,147,97,48
42,66,70,100,124,145,96,47
37,60,65,90,100,140,93,43
36,59,65,87,96,138,80,41
37,60,65,87,94,136,69,41
39,63,67,96,97,135,59,39
37,62,52,73,79,133,53,36
35,66,56,79,82,140,52,39
35,62,55,81,85,155,52,42
34,61,52,79,85,162,52,41
29,59,46,67,94,167,51,42
31,65,52,77,93,171,60,50
35,63,49,62,88,161,61,48
33,68,51,59,80,137,62,48
36,69,56,76,83,125,59,48
39,66,56,77,67,113,60,48
39,57,47,71,80,137,59,45
35,55,45,72,93,144,60,46
40,54,45,78,100,146,60,47
37,53,44,73,104,174,59,48
36,53,41,70,103,174,62,46
37,55,41,64,98,169,55,43
41,62,44,65,101,174,58,40
43,62,43,63,95,175,58,41
43,65,48,88,84,145,57,40
42,68,50,89,92,150,51,40
41,69,50,91,89,138,54,38
36,66,48,94,75,149,53,38
29,64,48,91,74,159,52,36
28,58,39,55,78,166,78,36
32,58,45,87,74,172,91,37
32,57,45,87,85,178,94,38
35,62,48,86,90,170,92,38
40,64,48,86,91,166,94,39
38,65,48,86,90,170,74,37
34,62,49,62,91,184,61,37
35,59,47,60,93,191,52,37
34,58,52,65,90,189,53,38
30,56,51,62,91,187,47,36
29,57,50,61,90,178,48,42
31,56,42,53,84,153,39,41
34,62,46,55,70,138,45,41
32,57,36,45,70,129,52,40
32,58,42,48,69,145,53,42
40,58,43,51,67,137,56,37
41,62,42,47,66,150,58,39
40,56,39,59,71,152,54,34
39,57,41,62,72,151,52,38
38,59,38,75,87,147,55,33
37,69,99,114,101,176,53,35
40,81,115,134,102,168,53,39
40,88,130,179,107,164,62,41
45,86,139,187,113,167,59,41
46,83,142,200,107,163,62,43
43,82,116,186,102,148,65,43
40,65,103,175,98,147,64,39
47,64,97,126,95,149,56,40
43,69,95,131,98,180,53,41
42,73,97,112,93,166,47,43
43,68,94,116,91,165,45,41
41,69,95,117,98,164,51,41
32,65,85,122,96,159,52,40
34,63,78,115,81,121,56,39
33,64,77,114,92,149,58,36
32,58,72,101,101,152,57,35
34,63,72,102,97,154,49,35
34,63,79,102,98,173,51,35
34,61,70,88,98,178,58,40
35,53,66,97,90,186,63,45
34,60,74,103,76,179,63,46
33,54,81,125,78,180,66,47
52,51,78,127,84,171,67,52
59,58,80,135,84,167,60,49
77,59,76,121,85,144,54,45
83,58,67,118,86,137,54,41
84,56,50,96,84,131,54,41
72,55,40,80,67,118,48,38
69,50,40,67,72,116,45,36
46,53,44,88,68,114,49,38
34,50,53,95,71,137,51,48
45,53,53,97,79,142,46,49
57,59,54,99,89,151,215,48
58,60,53,101,93,168,350,48
60,61,61,90,95,166,388,50
59,61,58,96,93,155,502,47
49,61,60,88,88,159,766,45
42,57,59,89,92,164,744,45
35,58,57,88,87,150,750,45
36,74,61,92,96,175,778,42
36,76,59,75,96,184,713,42
42,80,57,75,104,188,427,43
35,82,57,81,93,177,438,42
36,85,61,83,100,179,352,41
32,70,49,74,102,182,245,42
33,72,44,72,103,174,238,41
33,67,45,72,97,175,221,41
35,62,44,61,95,172,175,39
35,59,42,85,86,164,119,44
39,58,38,84,65,126,85,45
39,57,43,86,62,123,77,42
33,63,40,84,73,118,66,40
32,83,38,84,76,117,67,44
33,86,37,63,81,140,64,39
31,86,39,61,88,166,65,43
30,84,36,54,94,172,58,44
33,83,37,52,94,184,59,48
35,63,38,52,98,196,54,45
34,55,38,55,99,183,54,44
32,55,42,64,96,162,55,39
32,92,48,66,86,153,60,40
34,108,47,66,72,131,59,43
32,141,48,66,78,123,61,45
37,160,48,58,87,129,66,45
38,188,44,42,82,132,65,44
39,182,39,48,98,166,68,43
35,466,40,49,103,168,64,39
38,510,37,51,92,162,63,37
36,536,36,51,81,169,64,36
38,566,39,51,98,175,64,37
36,568,36,40,86,143,61,37
36,381,34,37,80,149,64,39
33,520,37,33,86,175,62,42
32,808,38,41,89,172,56,47
32,796,34,40,79,165,55,46
34,827,34,42,83,185,57,48
34,842,33,41,95,181,58,47
34,737,34,43,94,155,57,44
36,359,32,37,91,150,55,42
35,326,31,38,88,148,54,43
33,226,32,41,86,127,53,41
33,128,34,40,76,136,51,37
30,79,31,39,75,136,52,41
28,71,29,37,73,131,53,37
27,73,31,38,70,124,55,39
30,74,33,38,72,125,63,40
29,64,31,44,94,151,73,41
32,61,35,49,102,149,78,42
31,63,37,50,105,147,78,43
37,58,36,53,111,161,80,48
35,57,37,51,109,166,70,49
37,60,37,47,96,138,65,49
34,61,36,43,86,143,58,46
34,59,34,43,80,146,58,47
39,64,33,37,89,149,57,42
38,63,32,41,86,138,57,40
39,59,32,38,86,135,53,38
39,58,30,37,90,148,52,45
39,59,31,38,101,147,57,44
32,55,30,38,91,138,55,42
33,58,26,33,93,150,57,43
35,61,25,34,84,158,56,47
34,57,28,34,80,149,56,41
38,57,27,32,83,152,54,47
33,56,27,29,82,151,55,48
32,51,27,33,86,165,49,46
27,47,29,38,104,164,54,44
27,53,32,38,108,164,57,42
27,73,30,37,104,164,55,37
30,99,32,39,116,182,55,37
31,100,32,37,112,166,57,42
37,110,32,37,102,167,55,45
38,163,30,38,98,161,54,47
36,372,31,36,92,170,54,49
35,511,29,38,98,175,58,50
39,664,31,39,100,183,59,49
35,699,29,40,98,173,54,50
34,789,30,42,97,178,62,55
33,817,33,45,96,176,69,53
35,762,33,45,75,164,71,52
29,690,32,43,70,148,76,52
28,920,34,42,74,145,76,48
28,1060,32,39,78,139,71,45
29,1152,31,38,83,126,64,45
29,1159,32,38,93,130,64,46
34,1132,32,40,97,142,67,45
35,1094,29,38,91,152,69,45
36,934,31,38,84,157,69,42
38,718,30,38,85,162,72,45
37,721,29,39,96,171,64,46
32,736,29,38,147,183,54,42
32,459,31,41,155,175,60,42
32,332,29,45,162,170,60,38
30,328,30,45,169,176,61,39
28,234,30,43,159,149,62,34
30,157,28,41,114,118,61,38
28,284,26,40,108,149,50,39
30,429,26,35,100,146,46,40
35,704,28,38,87,147,45,44
35,704,28,38,82,141,46,45
34,705,31,39,80,141,46,42
35,665,30,38,76,138,46,40
35,580,29,39,80,147,51,41
31,146,27,36,75,149,48,33
29,116,31,40,78,152,48,34
29,88,32,41,78,158,48,38
28,63,33,39,74,140,54,39
24,63,33,37,69,135,50,38
24,72,32,37,67,119,64,39
28,82,29,34,66,123,72,36
30,84,26,36,66,117,87,33
31,82,29,38,67,113,91,28
30,82,27,40,73,112,96,33
27,81,27,42,75,118,85,32
27,71,30,42,82,122,75,38
25,64,30,38,86,133,59,41
25,73,28,39,86,142,47,49
24,73,30,39,89,151,36,47
30,69,31,37,91,159,40,48
30,68,28,35,85,155,41,46
30,74,25,36,79,148,41,44
29,75,26,32,78,140,42,38
31,76,25,30,90,158,46,39
29,88,26,30,88,137,45,34
27,102,29,34,98,146,46,32
30,105,30,33,103,151,47,35
31,100,28,36,110,152,48,34
30,100,30,35,97,126,48,32
28,86,28,36,113,167,51,36
27,71,27,35,107,167,49,37
25,71,27,35,104,168,48,34
25,73,29,34,111,175,59,35
29,74,30,37,110,177,58,34
30,86,32,36,92,155,56,32
30,94,32,35,84,146,56,30
29,91,32,34,80,142,59,30
28,88,31,34,54,125,50,28
24,83,30,33,50,124,47,29
27,72,28,31,47,103,48,28
29,57,28,33,53,100,48,31
28,53,28,37,73,107,45,33
28,49,29,38,79,110,42,34
28,53,30,36,84,115,48,35
24,55,29,40,82,120,46,36
24,66,29,37,82,127,47,34
24,67,28,34,67,110,47,35
24,87,30,32,59,109,45,35
24,92,30,33,64,109,45,36
21,100,28,32,78,105,49,40
18,99,29,34,79,110,50,42
18,99,31,35,79,119,54,40
25,102,28,36,85,123,56,43
26,107,27,37,82,120,55,42
27,101,28,36,70,121,51,37
27,97,27,35,70,111,58,38
27,94,24,35,72,119,53,37
24,73,25,34,73,123,53,34
23,58,25,31,72,127,50,34
24,58,28,34,74,135,54,34
26,61,29,33,72,140,46,32
27,69,32,36,69,128,44,36
28,75,31,36,75,159,46,34
29,78,31,38,71,152,44,34
27,76,29,34,72,143,41,36
25,73,27,35,73,146,44,38
25,67,28,33,76,154,53,38
22,63,27,33,90,121,58,39
21,60,25,30,104,136,61,39
21,63,24,34,117,165,60,37
26,66,24,31,123,161,58,36
29,68,22,31,126,174,53,35
28,69,23,33,114,175,48,38
27,65,25,35,102,158,49,39
28,68,27,33,89,131,51,39
27,64,27,39,112,159,49,39
24,63,27,38,112,138,47,39
26,55,29,36,110,146,47,36
27,54,26,34,108,147,40,34
29,48,26,38,140,202,38,36
30,58,27,35,128,191,46,36
30,57,24,34,124,195,45,32
30,58,26,37,124,187,43,33
32,58,27,37,132,199,45,34
30,57,27,33,99,170,45,31
27,56,27,37,85,166,41,30
27,64,32,44,88,166,47,31
26,64,29,41,86,176,49,29
29,65,29,43,83,178,51,30
31,72,30,44,77,167,59,42
30,74,30,43,84,164,61,44
33,83,28,39,101,195,63,49
40,92,29,40,107,199,63,50
44,113,30,40,120,202,66,51
45,113,30,43,128,200,66,41
50,108,29,42,129,209,66,41
53,98,29,44,116,174,62,33
48,94,31,45,111,165,60,34
43,69,29,42,104,191,56,34
42,63,29,38,89,183,45,35
38,60,28,37,80,170,47,41
36,66,28,35,76,174,54,42
35,66,27,35,78,166,56,38
32,65,27,36,72,123,66,38
32,65,27,36,86,130,75,40
31,70,30,37,88,128,70,34
32,67,29,35,93,133,68,39
34,63,26,34,90,135,67,43
35,65,30,36,88,154,57,42
41,68,31,40,76,151,50,40
42,64,29,38,73,155,51,38
39,60,31,39,65,152,45,36
41,63,37,47,66,159,47,35
43,65,37,46,57,136,47,38
39,76,36,43,67,143,46,38
37,81,39,50,78,146,54,38
36,80,38,52,78,154,56,36
35,77,35,46,80,142,53,33
33,75,34,49,83,135,55,34
32,59,34,53,77,122,57,37
34,58,34,49,66,113,51,37
34,60,34,48,66,99,50,38
30,60,32,46,64,103,51,39
33,59,37,48,74,112,51,37
34,61,44,57,80,122,49,35
33,60,42,59,85,132,53,42
35,59,40,58,87,135,52,43
40,61,48,70,89,143,52,44
36,63,43,74,76,147,56,46
32,63,40,67,82,155,55,47
33,60,41,68,77,155,53,42
34,61,43,71,76,158,56,40
39,60,38,62,72,155,56,40
41,56,39,58,77,144,49,37
43,58,40,58,62,122,53,36
44,61,48,61,62,120,49,35
41,59,50,71,65,120,51,38
33,59,48,69,66,115,48,38
31,63,52,67,60,118,51,39
31,69,67,99,75,120,53,40
32,65,74,119,82,107,59,42
37,77,88,133,93,104,58,39
37,77,95,152,94,107,60,39
44,92,114,184,101,135,62,39
44,87,119,252,100,166,61,37
48,427,132,264,102,189,56,36
45,574,148,286,91,190,54,45
51,811,181,343,140,189,60,47
50,914,197,364,154,177,58,47
50,922,238,387,170,162,65,53
56,828,239,386,173,139,72,51
58,735,253,387,182,140,70,47
54,470,275,410,169,140,66,45
53,203,264,388,153,134,65,45
55,187,230,337,144,128,62,40
44,172,227,324,136,124,59,41
41,168,203,314,128,118,57,40
43,161,187,312,146,117,72,46
39,161,193,325,158,131,69,43
37,144,186,314,156,136,70,47
37,139,188,339,163,137,72,47
47,133,198,356,176,143,84,47
46,114,169,294,145,153,72,43
47,119,183,282,133,142,85,53
49,120,209,308,134,133,83,49
52,119,222,331,150,145,75,51
42,134,226,331,145,141,65,50
46,146,247,346,146,136,62,51
46,164,247,369,162,133,43,40
44,215,240,367,173,153,41,45
42,241,222,337,163,142,47,43
44,245,203,308,155,138,44,43
40,252,163,274,156,148,42,41
43,243,134,247,155,146,49,43
48,199,147,371,185,120,72,41
45,178,167,381,178,124,73,41
48,189,174,391,184,135,79,40
48,176,186,418,214,144,86,43
48,190,205,456,210,173,89,41
44,194,183,355,188,180,71,38
46,187,164,339,187,179,71,40
45,167,175,348,184,190,68,42
44,163,163,312,145,181,62,41
43,144,134,259,143,165,57,47
47,150,183,263,121,165,62,49
49,156,194,280,137,164,72,48
50,157,191,265,133,149,73,46
52,170,215,300,144,151,74,43
54,176,248,361,146,146,73,42
53,162,211,340,145,153,72,47
51,287,201,335,228,156,61,46
49,316,191,331,261,154,58,45
48,317,162,301,261,136,58,45
44,319,107,227,254,145,56,44
43,335,151,282,269,147,63,37
45,265,160,282,210,164,67,37
45,227,177,320,198,160,72,43
44,229,186,340,190,165,72,45
44,229,204,342,198,157,71,41
48,215,203,317,187,151,64,43
46,171,213,389,173,131,70,46
45,173,205,366,139,148,71,47
50,177,216,355,147,171,75,53
53,275,198,341,174,172,76,58
50,281,171,325,162,169,77,63
49,295,160,218,166,172,71,65
48,298,151,209,159,165,67,61
43,287,129,201,155,139,62,58
38,187,140,207,126,142,60,56
38,162,136,220,131,144,59,51
43,139,155,225,124,154,63,50
41,139,152,214,124,147,58,51
40,145,156,225,135,161,58,46
40,141,152,253,115,172,65,46
51,155,187,328,141,170,63,46
55,178,231,429,170,156,57,43
58,177,256,459,178,162,66,42
58,168,251,467,172,161,67,43
63,182,259,453,172,135,61,42
52,164,239,396,143,131,63,43
49,135,194,312,120,159,68,51
47,128,176,272,108,160,67,48
56,152,215,311,129,148,66,50
56,140,207,330,135,153,70,50
56,154,216,349,144,155,69,50
53,150,205,337,134,130,65,42
56,164,193,339,144,116,59,48
48,166,150,278,117,120,53,49
40,212,159,259,167,130,54,48
40,241,138,247,189,122,56,44
42,239,142,224,193,113,59,44
40,232,147,225,185,121,60,39
40,217,141,233,185,128,64,35
42,168,121,217,140,126,69,36
43,117,128,212,124,167,69,39
40,198,110,216,183,167,67,38
37,194,110,220,192,166,66,37
40,202,111,198,197,157,65,41
39,214,141,243,205,153,56,40
44,262,165,290,193,116,57,42
45,231,177,315,171,131,55,46
48,285,195,347,174,129,58,50
51,293,200,363,183,141,57,50
53,299,183,352,177,144,58,51
47,262,157,310,183,154,55,47
51,253,177,327,159,148,62,47
55,207,189,345,159,152,71,44
50,205,193,376,152,137,77,44
49,187,202,387,160,134,85,50
49,181,202,383,155,128,87,50
44,172,191,366,142,131,84,50
40,153,168,312,140,132,158,50
40,130,160,256,134,156,219,49
39,130,147,207,123,152,294,41
36,163,148,200,133,144,297,44
35,180,129,174,151,141,297,43
31,187,108,152,137,131,262,41
33,189,108,146,138,132,212,39
33,185,99,141,129,135,72,41
34,153,91,145,114,141,54,38
38,116,87,134,87,140,51,45
41,97,97,158,101,157,55,51
43,97,106,193,106,164,59,53
47,101,120,231,115,172,57,55
51,110,127,230,116,166,63,56
51,110,125,224,118,163,64,50
49,115,118,216,119,148,77,44
47,119,112,206,122,124,77,40
44,118,104,175,118,111,73,39
44,109,93,171,118,112,69,41
41,120,92,160,111,109,72,38
43,123,106,201,110,143,60,39
43,120,122,189,102,151,79,41
45,148,120,180,109,183,99,45
46,182,131,194,129,184,106,45
44,198,134,209,145,195,105,44
49,211,133,182,136,176,103,46
51,208,111,181,140,164,90,45
51,190,106,177,133,124,70,45
51,161,97,165,128,130,59,45
51,138,93,153,125,124,80,47
45,119,70,130,125,123,89,53
41,116,69,128,118,121,88,55
42,112,75,143,128,128,89,51
36,132,69,145,113,122,89,50
34,159,62,133,114,110,70,51
34,180,75,138,117,104,58,43
43,188,94,170,130,155,58,47
51,202,127,229,145,177,65,46
52,191,151,260,167,184,66,45
54,169,176,304,170,185,72,49
57,147,177,337,172,196,86,48
52,152,195,361,178,164,87,46
44,133,176,334,160,143,86,49
44,129,157,316,135,180,389,57
42,127,132,277,129,192,560,56
41,132,141,238,130,196,978,58
40,146,114,214,121,225,1328,54
41,157,122,230,144,228,1567,53
41,180,125,227,159,203,1556,50
41,186,144,272,173,197,1506,48
39,181,139,307,187,192,1285,45
43,160,131,285,191,168,933,47
38,149,130,270,176,159,434,50
40,128,130,278,164,147,292,46
43,142,120,246,151,144,282,50
42,138,118,203,130,135,230,55
37,130,109,187,109,125,166,55
39,126,104,173,111,140,125,49
47,126,127,209,119,178,109,48
44,98,134,240,131,184,94,47
46,116,166,259,142,200,79,46
48,114,167,267,143,194,75,47
50,120,176,270,136,194,72,50
44,108,158,229,131,164,65,52
41,103,152,190,106,153,68,52
40,79,120,169,94,149,59,49
40,99,136,186,94,154,62,50
39,91,125,184,102,139,63,49
48,92,137,224,103,138,72,57
54,103,155,252,106,153,68,53
52,103,164,286,111,141,68,53
54,133,154,275,117,145,68,60
53,203,155,272,144,146,67,60
48,231,181,312,148,147,52,51
43,268,170,295,158,161,56,51
45,280,167,267,164,176,64,53
42,295,175,268,190,165,66,46
46,266,199,313,197,170,74,45
43,252,165,242,192,169,75,46
43,217,151,225,184,160,71,49
46,204,153,296,178,143,66,47
44,158,152,316,154,154,59,44
39,131,122,274,113,155,50,43
38,121,125,286,111,149,55,42
41,135,131,307,135,139,55,41
47,169,128,279,181,137,57,43
47,208,118,246,186,138,67,45
49,230,116,251,191,128,68,47
49,245,140,273,198,135,68,46
49,233,152,269,183,136,68,45
40,219,142,222,135,147,67,41
38,186,148,247,135,137,59,36
39,178,194,316,169,138,60,37
40,168,182,291,160,132,57,48
39,167,169,283,158,130,57,46
41,175,217,307,166,133,58,46
44,174,217,302,158,149,68,58
46,161,176,238,127,160,67,59
44,159,202,280,144,168,71,50
43,160,210,284,156,202,78,51
42,132,161,250,145,193,76,55
43,123,153,239,138,181,70,48
42,118,152,238,126,174,77,50
42,101,110,198,115,177,77,57
42,105,105,199,102,145,74,58
43,115,112,210,99,150,74,55
40,116,115,217,103,160,78,55
37,114,119,204,111,181,77,53
38,111,128,214,108,181,73,45
40,98,127,241,111,176,70,43
41,95,135,273,131,172,74,48
42,100,144,289,133,164,67,45
42,127,138,288,130,154,62,41
41,132,129,269,124,153,60,40
45,144,118,227,116,155,59,51
47,280,125,183,99,159,56,48
47,368,111,160,103,162,64,50
48,369,114,160,103,145,64,54
48,399,113,155,196,170,72,59
46,427,125,163,218,166,85,54
42,359,116,202,222,166,88,54
42,266,110,187,220,176,82,54
42,253,110,194,218,173,82,50
45,196,111,194,143,137,82,51
40,102,100,200,103,127,71,48
40,73,76,141,86,130,68,48
38,78,76,136,83,149,66,45
36,77,73,120,81,153,60,44
40,84,92,168,89,165,51,37
39,88,90,154,86,161,51,40
40,85,87,155,92,171,55,41
42,82,86,153,95,149,58,43
43,77,92,170,96,145,65,44
35,73,71,122,89,155,67,44
37,70,63,117,91,160,62,44
38,83,74,141,98,158,56,40
38,84,78,148,94,164,61,46
38,84,66,120,86,177,55,51
42,79,63,113,84,170,57,49
41,83,78,139,87,181,63,48
42,71,69,119,76,163,67,51
41,74,71,118,72,173,61,51
40,76,75,118,76,160,65,49
39,82,79,138,85,156,68,51
37,80,65,113,89,164,70,51
34,80,60,102,86,169,65,48
33,73,50,97,86,147,71,42
35,70,49,112,89,150,71,46
37,61,37,87,81,152,71,50
39,60,38,86,70,137,66,57
40,58,38,87,80,136,72,57
41,65,40,85,79,149,69,61
43,65,35,63,76,167,67,60
41,65,36,75,73,162,76,65
46,63,36,83,70,155,82,59
49,66,38,88,61,148,79,60
48,63,42,96,74,139,78,57
49,66,48,100,83,120,84,53
51,66,47,87,85,120,78,44
46,71,49,82,92,141,74,42
47,69,57,90,104,142,74,52
48,67,55,87,96,141,72,50
43,67,49,82,89,133,62,49
47,66,49,83,92,130,67,50
50,60,48,82,95,118,65,52
49,69,38,66,85,127,65,43
48,70,37,61,89,135,73,47
54,81,39,61,92,147,74,49
48,81,42,60,95,142,64,50
47,92,43,64,94,152,63,50
42,92,45,67,91,169,64,51
53,95,45,65,92,162,61,49
50,90,46,65,88,162,58,50
50,97,45,67,80,168,63,50
50,86,41,62,73,157,67,51
54,86,43,57,86,131,67,47
43,84,41,55,80,121,61,47
40,75,39,56,80,116,70,53
38,69,36,55,87,132,75,53
38,71,39,64,86,128,72,53
37,70,44,78,75,150,71,51
41,71,46,87,89,181,82,63
46,79,46,89,92,177,79,64
55,100,83,102,91,171,69,66
54,109,85,106,96,202,74,65
52,103,86,116,97,184,80,68
53,120,109,140,101,168,76,62
51,134,135,191,119,176,85,58
43,122,123,194,126,178,88,53
45,131,137,200,130,146,84,58
44,136,141,218,132,164,84,59
43,129,134,216,119,162,79,55
48,116,121,193,101,177,71,63
53,121,141,210,102,166,72,70
52,111,143,223,108,161,73,66
56,119,140,195,123,155,71,71
53,166,145,197,141,165,73,73
49,203,167,239,156,162,67,65
47,210,171,253,153,166,68,58
46,206,161,247,154,204,66,61
42,204,160,252,142,207,68,53
45,168,168,274,154,203,76,52
51,126,192,338,193,190,92,59
47,129,184,345,192,190,92,60
47,150,205,374,190,158,91,61
54,161,222,422,194,150,95,63
55,169,223,432,181,155,89,60
52,171,196,358,135,164,75,60
56,203,212,349,151,166,70,62
54,237,198,339,156,170,68,56
47,239,180,285,155,176,59,55
43,233,165,244,152,176,66,55
39,229,149,263,148,165,70,48
39,192,111,250,125,161,80,50
46,153,118,221,115,151,85,52
50,184,170,290,139,155,88,47
52,200,192,320,136,131,84,50
51,207,188,308,140,160,80,47
48,215,191,302,139,152,73,42
45,204,182,292,138,154,84,44
45,164,143,237,113,135,79,44
47,148,146,234,122,162,76,44
47,143,165,246,123,139,78,48
49,131,172,260,131,181,79,50
47,128,186,282,138,187,70,55
45,128,186,267,157,217,74,57
42,136,194,280,154,202,72,56
44,142,206,300,157,199,68,57
49,142,196,288,160,181,67,53
50,142,194,287,152,171,63,50
53,152,193,298,151,141,65,52
53,142,160,273,156,164,69,53
61,138,127,226,145,180,68,51
58,141,144,222,139,163,67,51
60,144,158,249,147,161,63,45
58,130,148,240,125,163,62,53
58,125,158,217,112,145,55,52
49,115,162,223,111,123,63,48
44,116,146,217,107,128,64,52
39,113,113,170,106,125,66,56
36,116,122,159,105,127,62,45
35,116,107,160,99,126,63,51
34,117,102,177,103,134,69,53
34,108,116,192,111,156,65,50
37,115,131,186,102,159,62,48
34,118,147,198,99,163,67,47
36,114,151,197,101,171,67,40
37,111,144,171,91,166,56,44
42,131,171,209,101,153,62,45
41,126,160,225,102,158,66,52
42,141,140,231,122,154,76,55
49,175,137,226,121,144,86,59
49,198,156,257,133,139,85,57
46,190,115,214,122,138,84,63
46,218,117,193,131,171,84,62
51,240,120,171,124,177,79,64
45,225,116,167,132,178,72,59
44,215,91,127,130,180,72,56
42,246,109,191,137,186,75,50
46,272,107,209,163,157,73,46
44,255,102,209,189,139,65,43
41,255,100,208,201,148,63,45
40,249,97,199,197,149,68,46
45,224,79,147,193,138,63,47
42,157,75,116,164,159,67,52
39,292,82,133,224,160,79,51
40,337,112,183,255,159,84,50
41,344,117,194,258,157,83,56
37,343,109,185,258,165,87,59
39,356,131,203,258,143,87,57
42,256,124,185,179,163,75,54
44,196,97,136,111,159,66,57
45,191,94,122,108,174,61,50
46,179,94,120,106,163,56,46
47,169,60,86,96,159,59,47
45,275,56,91,173,142,68,50
44,297,70,94,197,140,73,49
44,291,71,106,199,127,77,48
44,292,76,139,212,128,82,49
38,280,69,128,214,125,78,44
37,158,70,126,160,141,74,45
33,86,55,122,118,134,72,45
29,82,49,111,112,142,70,50
25,74,46,66,99,151,66,49
27,70,47,80,96,158,66,44
29,69,46,78,88,148,63,39
33,87,43,79,88,154,62,39
34,90,42,77,89,137,56,39
34,93,36,74,70,144,56,41
33,98,55,84,82,158,56,44
29,99,77,117,91,152,59,43
26,86,80,122,102,166,62,49
27,86,80,124,96,176,66,51
31,88,79,124,97,159,62,47
31,84,69,122,85,150,60,45
30,83,46,95,77,152,56,47
29,80,42,87,62,133,50,42
30,81,42,85,69,118,46,38
28,81,41,86,70,125,55,42
31,75,38,63,81,132,58,43
33,70,37,64,81,126,56,41
34,69,49,79,83,128,61,37
33,62,49,78,79,137,62,35
35,60,49,75,90,186,60,44
32,62,49,76,92,179,55,48
34,69,50,78,94,208,58,59
33,76,35,59,93,223,58,69
32,84,35,59,100,222,57,74
30,92,34,66,93,188,50,71
30,98,47,92,84,187,53,70
29,94,45,90,77,162,51,62
32,95,44,88,76,153,46,54
32,94,46,89,72,162,49,50
31,85,48,90,61,153,57,42
31,81,44,78,70,164,59,43
36,76,43,73,69,164,65,47
34,72,48,79,75,157,67,46
34,60,44,76,68,141,66,44
35,59,42,69,70,136,69,47
35,109,36,60,78,133,66,45
32,134,37,60,78,131,60,41
33,138,30,53,71,132,67,40
34,141,31,52,77,142,66,41
31,142,32,53,79,151,61,40
35,107,29,51,60,134,65,38
32,78,36,57,68,159,66,36
29,71,39,62,71,162,61,36
35,67,40,63,67,153,63,34
39,68,41,62,67,150,58,32
35,69,40,61,71,173,53,31
37,68,36,58,69,147,54,34
38,65,32,52,68,130,52,35
34,71,33,50,69,131,48,39
31,71,34,54,73,131,50,40
29,74,35,55,79,115,66,43
29,77,32,51,75,112,67,42
29,75,33,52,74,120,63,42
27,74,31,51,71,122,62,38
30,72,31,47,64,117,60,37
32,68,34,52,70,126,49,38
30,61,37,56,73,130,44,41
31,67,38,53,74,122,48,39
36,65,37,53,75,124,47,38
34,67,36,54,79,133,54,40
33,65,33,52,79,118,60,39
34,64,30,53,76,126,60,37
32,65,30,59,74,144,59,36
32,60,35,59,91,159,63,40
31,55,31,57,102,175,60,40
31,58,39,50,101,186,52,40
33,64,38,48,102,180,57,40
32,63,40,47,107,175,60,40
27,70,36,45,93,161,58,35
28,77,38,49,80,157,60,37
29,77,32,53,67,136,56,35
29,77,33,51,68,139,51,36
29,78,32,47,59,126,48,44
32,73,34,49,70,139,45,45
32,67,34,46,67,123,49,41
33,68,35,40,69,124,52,43
34,62,33,45,67,128,55,43
36,59,31,50,67,133,55,36
33,58,31,53,62,122,58,34
35,59,30,53,67,115,55,35
36,65,30,56,76,125,53,33
36,72,30,52,80,144,64,37
35,73,34,50,79,139,61,38
35,75,35,50,77,135,61,40
41,75,41,54,82,139,57,44
40,69,41,59,75,143,58,47
38,68,43,60,77,124,45,42
44,95,43,58,94,132,49,45
46,107,47,73,96,140,50,49
41,109,44,74,89,134,53,47
41,122,43,70,89,129,53,46
45,132,46,75,86,132,57,48
39,112,45,76,76,125,55,46
37,102,44,61,75,132,56,47
38,104,42,58,76,137,54,47
38,88,46,62,70,132,55,43
41,71,42,57,68,124,57,43
41,77,43,61,67,149,60,42
44,73,39,73,73,159,61,38
44,74,44,77,73,171,63,39
44,72,40,73,73,172,62,44
38,72,41,71,79,181,60,47
37,65,38,67,78,173,61,49
36,72,40,57,65,156,55,49
35,69,41,64,65,140,58,47
34,71,41,60,66,141,58,42
38,72,40,62,57,124,57,41
36,74,40,61,52,110,56,38
39,70,39,58,66,135,69,39
36,66,35,48,64,135,71,43
38,70,35,50,65,136,71,44
34,68,35,46,83,164,75,43
34,66,34,46,86,172,73,43
30,67,34,45,80,156,66,41
33,75,44,52,86,163,59,39
30,71,43,53,86,166,63,39
31,75,42,53,73,143,55,38
33,80,45,56,87,159,52,39
33,87,47,56,88,154,46,40
33,82,34,47,90,166,47,37
39,84,36,62,100,178,45,37
47,77,40,72,98,170,46,44
46,75,44,76,85,145,51,44
47,66,44,79,94,174,57,47
47,64,46,79,90,159,57,47
44,62,47,71,77,139,55,45
35,62,48,68,78,144,59,41
38,62,45,69,89,186,76,45
37,70,53,96,80,159,75,46
33,73,63,120,82,160,77,50
38,73,71,133,93,174,80,53
39,78,69,137,94,178,88,52
36,80,68,136,79,130,75,46
34,94,68,126,77,143,83,46
55,99,57,105,74,139,84,46
52,101,46,102,69,131,86,44
53,100,46,95,81,157,77,44
53,106,48,94,87,170,78,47
55,89,37,79,89,163,68,47
36,91,41,76,91,160,74,45
35,89,41,57,83,153,68,46
32,82,43,51,84,134,67,45
30,76,40,46,78,125,60,40
30,82,41,52,81,129,65,37
30,73,36,51,82,140,54,36
33,82,37,50,96,159,50,36
35,88,38,59,86,145,53,38
39,85,39,58,87,136,55,41
39,82,38,59,84,140,49,40
44,81,40,60,87,158,54,53
44,69,38,57,75,145,59,52
46,81,39,55,70,157,59,55
48,81,36,58,71,162,55,56
49,82,37,54,71,152,55,56
44,84,38,53,64,148,56,44
43,89,38,58,69,153,53,45
43,82,39,71,83,159,55,53
39,83,41,71,86,158,55,62
36,84,39,69,93,166,62,67
33,88,38,71,102,157,60,66
41,85,39,67,101,151,60,73
39,78,35,45,100,151,63,102
39,78,34,46,98,161,63,135
39,75,35,48,97,160,55,146
42,67,33,51,96,153,62,147
36,69,31,56,94,146,65,147
36,72,29,60,93,141,63,126
39,69,29,59,106,151,63,88
38,67,27,62,97,146,65,64
38,69,29,56,92,150,57,66
36,68,28,51,94,153,60,69
36,69,29,50,88,164,69,78
33,73,29,55,74,147,70,73
37,76,30,50,73,150,71,76
34,79,31,57,78,161,75,74
36,78,30,56,83,189,71,67
37,75,30,56,84,179,56,49
38,74,30,53,77,180,57,47
40,71,27,50,76,177,58,43
39,66,25,43,68,163,55,44
37,70,26,44,53,132,51,39
36,70,28,39,53,123,56,41
35,67,28,38,60,128,58,43
34,67,29,38,67,128,53,43
39,64,30,40,68,128,48,37
40,56,31,47,81,131,48,38
39,67,32,48,82,136,52,40
44,73,34,49,83,123,50,37
41,75,34,50,79,138,54,35
36,78,32,50,81,129,60,37
36,79,31,42,71,124,60,41
36,76,33,43,65,122,54,38
32,69,33,49,83,127,52,39
30,65,32,51,83,125,50,42
28,66,33,49,82,131,43,41
28,78,33,49,84,127,44,40
33,73,29,45,86,129,44,37
32,73,26,37,100,165,51,83
36,79,32,37,100,163,53,97
39,82,31,37,102,165,60,133
38,74,34,40,100,183,68,172
34,74,33,41,97,177,72,174
35,73,32,40,64,151,69,158
36,69,31,41,68,148,68,150
33,67,32,44,65,152,61,120
37,67,30,43,86,157,63,56
37,71,31,44,90,157,61,52
39,78,32,47,90,148,60,52
35,86,33,45,87,137,61,53
36,90,34,43,82,134,78,57
32,89,31,43,73,138,70,46
31,92,34,47,69,135,69,44
30,90,32,42,67,146,69,46
30,106,27,39,83,158,72,42
31,111,28,41,94,156,53,35
35,112,30,40,102,165,56,37
36,112,28,35,107,172,56,37
41,114,31,48,111,183,54,43
45,93,34,51,98,177,47,43
44,79,34,49,95,198,46,46
43,81,40,53,80,172,44,50
44,78,41,55,77,178,43,51
43,75,39,45,70,165,45,45
41,75,40,47,70,164,48,47
43,76,40,48,62,134,60,44
40,80,36,47,55,128,63,41
40,75,38,52,55,119,65,41
39,77,37,60,59,111,64,39
37,83,50,84,58,121,65,40
37,85,63,111,66,125,71,44
36,85,77,117,73,123,73,44
35,94,77,122,71,124,74,46
27,95,81,123,75,126,79,47
32,93,76,107,76,120,76,47
31,89,66,92,76,114,65,41
31,79,51,85,78,117,59,42
35,73,50,75,80,115,60,39
34,72,43,74,84,120,60,37
30,70,41,73,96,134,58,38
32,68,39,56,96,153,63,43
35,81,41,59,95,155,62,40
30,81,40,60,97,156,65,41
30,76,45,81,92,150,62,55
31,76,46,83,76,132,66,63
27,79,48,86,70,118,66,89
30,67,45,82,62,109,69,94
29,65,48,90,58,100,61,94
35,66,51,70,66,128,60,87
37,72,62,85,67,132,65,82
39,74,78,113,67,131,67,52
36,82,84,119,74,159,71,42
37,90,85,118,71,162,71,44
36,94,83,124,59,151,69,45
39,98,78,117,68,172,66,43
43,112,75,115,71,173,56,44
44,110,79,130,81,165,60,52
46,117,78,130,78,161,63,56
45,122,79,128,88,183,79,58
43,121,77,125,81,160,76,61
39,110,66,110,83,157,80,60
47,113,84,123,75,161,78,55
45,104,94,131,83,174,80,53
44,97,116,188,88,138,67,49
41,94,149,242,106,140,67,50
45,116,171,275,120,159,68,50
42,119,182,294,128,136,59,49
47,123,193,322,146,129,60,55
55,138,198,314,141,148,60,66
57,155,208,364,139,156,63,68
56,178,219,381,149,141,66,70
55,182,202,377,147,154,78,73
56,200,264,429,165,153,75,73
53,198,299,491,188,143,79,63
53,200,301,486,204,142,88,59
54,190,324,547,220,158,87,61
54,191,334,539,225,157,95,56
51,175,291,502,207,165,94,55
50,185,260,490,231,171,92,64
47,181,235,445,216,166,85,67
44,158,192,369,196,160,83,63
43,157,203,385,185,160,62,64
43,153,191,374,191,147,63,62
40,131,170,305,134,132,66,52
40,143,174,302,131,130,65,47
39,173,153,251,106,120,61,44
42,168,114,246,126,127,65,43
40,165,108,222,107,127,65,39
42,172,101,199,114,142,58,43
55,171,97,182,119,182,59,53
58,157,117,211,126,195,65,52
55,157,114,189,105,204,66,55
61,163,109,178,103,216,65,55
66,156,114,184,99,249,69,53
55,140,136,185,91,233,63,44
63,132,154,184,94,224,65,60
66,145,167,189,98,205,62,59
61,147,166,188,94,202,68,59
57,172,178,205,105,197,70,64
62,177,171,219,107,198,83,74
56,181,161,225,109,204,78,67
54,176,182,278,123,211,84,71
53,171,187,296,133,216,84,70
61,149,179,300,139,177,85,66
59,157,191,332,144,160,95,56
53,145,176,311,144,170,112,50
52,137,141,249,154,190,116,41
52,146,143,246,152,203,112,48
48,143,146,236,151,228,113,49
45,119,125,224,169,227,101,48
47,140,155,246,169,225,94,54
50,156,177,289,166,200,85,57
51,152,183,296,167,186,92,55
54,169,190,328,165,173,95,55
56,167,186,306,138,203,99,55
56,149,161,286,134,188,87,54
61,134,145,254,121,207,90,51
59,123,128,229,110,194,88,48
51,97,107,175,94,184,95,49
47,98,105,160,91,152,83,50
50,105,129,190,99,183,94,51
41,109,122,191,84,161,91,49
50,127,126,212,101,170,88,58
52,130,124,224,104,162,86,61
54,139,136,265,130,194,97,62
54,137,165,343,154,173,88,61
63,177,208,343,155,197,86,60
57,182,248,353,155,200,91,51
58,201,298,358,156,201,81,46
61,206,301,342,149,184,70,44
59,255,291,289,132,179,72,39
53,260,299,389,166,158,79,51
53,272,280,401,162,144,76,54
51,264,233,438,176,167,86,55
50,264,233,469,189,163,90,55
53,232,230,483,191,193,93,56
60,240,320,598,222,198,94,51
60,230,328,596,230,211,96,51
68,233,339,562,233,216,90,57
72,243,342,540,217,210,96,59
75,254,353,541,228,217,103,68
66,213,239,333,176,214,96,63
67,195,220,321,171,222,105,63
60,199,214,377,166,202,109,56
51,177,193,369,169,203,103,56
45,137,157,328,137,170,96,44
45,150,185,354,174,171,97,44
42,169,213,408,185,219,88,47
43,154,200,355,172,220,96,49
53,171,204,360,165,217,95,53
54,174,203,356,167,215,92,53
54,163,175,339,131,225,99,56
56,173,176,377,132,169,95,50
54,174,169,384,139,170,80,49
53,173,171,377,143,176,78,45
52,178,178,372,139,172,73,47
51,184,186,364,142,162,68,44
49,158,142,232,133,154,77,46
49,156,156,232,128,173,78,46
46,133,161,247,133,167,85,46
48,123,148,245,135,166,87,44
47,114,135,221,139,157,85,42
44,108,132,217,118,150,78,42
44,100,141,214,113,137,74,40
43,128,148,237,117,152,76,35
46,134,166,254,125,156,77,40
44,127,162,257,118,186,86,44
44,137,165,272,128,198,89,44
62,167,149,275,134,234,91,49
59,155,135,252,133,226,88,59
54,148,109,243,129,224,87,57
55,161,111,264,132,217,89,59
60,159,123,268,145,221,90,61
43,132,130,261,142,206,93,58
42,123,122,239,136,203,89,52
49,131,136,227,138,210,89,54
51,127,142,212,135,213,87,49
47,132,131,179,124,202,81,49
47,149,119,182,122,195,78,49
50,154,132,194,120,192,81,47
49,144,115,196,119,177,84,45
47,140,99,171,113,154,78,48
47,133,97,191,110,150,79,54
46,111,92,176,113,112,79,53
47,119,72,159,113,122,81,56
41,125,109,187,117,125,87,54
42,122,122,208,118,139,88,58
44,125,118,191,112,140,91,53
49,121,121,188,107,146,86,53
46,109,125,215,119,158,81,58
49,103,93,185,124,203,72,61
50,99,72,155,122,208,72,57
51,89,69,150,121,217,68,60
47,97,71,146,125,222,81,59
52,115,75,104,115,232,84,54
50,122,81,109,104,228,88,59
53,126,113,129,110,218,87,61
52,136,139,179,113,218,91,61
62,167,153,202,124,219,90,63
62,178,158,227,126,200,92,61
60,182,155,222,129,175,100,56
58,185,158,244,129,185,104,60
61,189,145,220,127,193,103,59
55,174,143,215,129,223,101,65
51,162,132,186,120,228,101,65
50,152,131,195,130,248,95,66
55,154,100,153,124,263,96,64
51,160,88,140,125,265,94,62
48,152,52,112,123,241,94,55
50,135,46,111,120,241,95,57
54,145,51,108,116,223,100,54
48,149,57,114,113,204,96,50
48,131,58,116,117,184,94,48
45,132,57,125,100,180,88,46
47,138,60,122,103,186,79,40
47,127,78,146,100,173,74,41
46,119,78,149,109,185,85,65
46,155,88,151,105,190,88,67
46,151,98,150,104,213,97,70
40,153,101,154,103,213,104,77
74,158,94,134,112,226,106,79
75,166,107,140,109,207,93,62
77,138,102,178,109,198,93,62
78,134,95,176,119,197,85,60
80,131,89,172,122,203,82,52
50,124,80,160,103,206,98,50
50,111,58,143,97,215,104,45
47,103,59,126,109,268,115,51
50,105,54,127,105,277,123,64
48,102,51,123,100,281,126,67
50,120,54,124,106,264,109,68
49,118,54,130,116,259,112,72
57,132,55,100,97,231,108,70
62,132,55,87,98,242,113,64
65,135,59,85,108,231,111,61
69,122,56,84,112,259,111,69
71,121,58,81,107,272,119,73
67,132,50,64,113,275,126,78
61,160,56,69,111,236,114,76
58,187,55,72,106,236,121,82
51,204,62,83,114,230,143,82
47,199,58,84,112,226,131,78
46,186,68,96,110,219,123,77
48,161,73,116,116,243,132,78
52,134,83,122,118,247,123,77
52,106,83,138,113,235,103,78
52,116,93,156,113,224,100,82
56,123,101,166,124,203,106,88
53,122,97,156,114,183,97,88
47,112,93,158,112,182,101,83
47,110,89,142,127,215,111,73
57,99,78,122,135,215,120,69
55,89,62,105,149,236,115,53
55,97,67,113,157,241,116,71
58,111,63,108,156,227,110,74
59,135,71,134,148,182,96,74
48,150,82,173,151,202,89,73
51,153,78,169,130,204,83,81
52,174,71,163,128,199,93,65
56,174,87,191,137,203,96,58
55,167,113,216,147,231,102,65
55,156,116,201,155,230,110,68
49,168,116,206,151,206,108,58
48,163,135,223,150,203,103,60
52,171,133,214,160,231,105,70
49,172,115,184,141,216,109,65
57,172,112,180,122,208,99,59
59,159,115,175,121,207,106,55
67,144,99,174,131,202,101,58
62,134,91,166,126,186,97,49
65,134,102,203,147,178,81,48
64,133,94,196,142,174,77,51
67,129,88,193,149,175,68,55
59,118,80,174,135,170,70,54
63,116,73,164,123,155,90,59
60,101,41,97,91,149,95,58
56,115,75,109,118,172,101,58
49,116,75,112,116,187,104,54
50,112,78,113,118,201,107,53
47,107,77,119,114,200,96,54
51,132,82,125,129,210,99,58
51,117,58,106,111,188,98,57
51,118,71,127,117,189,102,62
51,123,69,129,120,188,97,63
48,128,67,118,125,186,88,58
43,100,62,108,114,179,84,52
41,113,59,120,113,203,82,55
54,123,55,110,111,190,75,50
55,122,68,127,120,178,72,48
56,107,68,129,113,170,76,52
58,110,67,129,116,177,75,55
60,103,66,114,116,172,72,51
49,88,55,101,102,198,68,50
47,89,37,66,86,195,69,45
44,89,37,63,90,202,67,41
45,91,37,60,78,205,81,42
42,86,37,61,77,175,76,41
39,85,49,67,81,146,80,46
37,82,51,70,85,167,83,46
36,86,49,71,81,171,87,42
32,79,47,71,81,153,85,44
35,86,47,70,80,167,89,45
40,85,36,65,73,162,87,43
45,92,53,81,91,145,92,46
48,93,58,84,92,148,101,48
52,102,60,89,100,155,100,49
51,98,70,102,99,179,97,51
49,98,75,117,105,186,100,50
43,92,71,128,104,202,105,52
38,94,70,131,111,201,95,53
33,84,69,130,105,203,88,54
33,80,59,122,104,172,89,58
45,108,66,130,104,175,87,61
46,112,64,134,92,160,76,57
47,109,63,132,83,145,77,59
51,115,63,127,84,135,80,58
56,118,63,126,86,136,77,53
50,100,61,140,93,127,76,53
50,105,77,160,94,122,75,52
52,113,89,171,99,123,70,50
53,123,113,203,107,146,63,46
53,122,126,241,118,180,65,51
50,124,125,231,117,180,72,50
51,126,120,215,118,178,74,49
54,149,146,245,137,183,77,50
52,151,152,253,143,169,83,48
49,170,147,225,143,146,86,46
52,188,153,236,141,144,79,44
56,203,152,249,140,166,82,53
51,183,127,224,121,164,82,52
48,179,107,234,115,190,87,53
52,179,118,270,111,184,84,54
50,156,107,257,111,179,85,53
49,164,158,268,120,178,90,46
56,167,174,306,122,191,88,44
56,164,185,288,129,167,81,43
49,146,176,256,131,181,81,44
49,148,177,252,127,188,76,44
48,108,140,221,119,177,84,54
41,128,129,188,140,171,91,56
40,121,111,178,142,188,90,63
44,133,135,184,142,170,93,61
47,136,139,186,145,165,98,62
47,140,132,200,144,170,90,57
47,129,130,184,125,168,87,57
48,226,137,190,115,145,83,49
44,291,115,191,112,152,85,47
41,300,112,195,109,145,80,45
39,301,146,239,117,147,78,39
45,299,145,240,115,145,83,38
52,233,134,231,112,205,87,41
57,136,141,245,117,213,89,47
56,107,141,254,114,241,110,49
63,103,110,214,104,249,104,53
62,102,106,208,103,253,109,60
57,114,124,214,110,207,109,63
58,107,123,183,102,198,112,61
58,116,128,183,105,182,99,61
53,123,119,161,103,161,103,61
49,133,110,148,104,153,92,59
50,134,116,170,109,150,88,55
46,141,104,173,110,146,88,55
48,157,101,156,109,134,87,62
45,156,102,163,112,153,84,66
43,141,112,163,120,194,84,61
42,151,98,134,119,209,83,59
39,147,106,144,119,208,77,62
38,129,101,140,119,207,71,56
38,122,101,140,119,218,72,47
39,121,89,144,109,181,80,46
37,108,86,161,97,171,83,47
40,106,75,148,100,176,81,40
45,110,69,145,100,175,81,48
46,103,70,154,103,142,81,47
47,106,67,152,102,139,81,48
49,101,58,125,98,130,77,47
50,99,56,127,95,124,85,46
43,89,56,132,101,147,84,41
41,86,69,133,104,195,84,43
37,81,71,130,98,195,78,43
34,80,65,135,104,212,85,41
43,85,67,156,104,214,77,40
42,87,81,195,115,199,77,40
45,101,101,206,113,155,77,39
50,109,106,210,116,156,75,39
53,107,108,209,116,171,68,42
56,114,111,200,113,177,72,50
59,120,116,170,94,181,72,48
59,116,101,165,87,177,79,47
55,116,121,214,85,192,85,48
59,128,154,289,90,173,96,55
54,132,191,386,125,172,91,51
50,128,190,386,139,167,92,50
51,139,194,390,143,174,90,49
55,135,204,442,190,167,87,52
50,157,192,432,225,165,90,46
47,159,165,373,214,160,95,49
50,171,199,422,212,162,96,50
50,158,194,423,209,174,95,53
48,160,170,349,167,167,92,67
49,134,179,332,112,160,78,66
52,136,175,318,106,165,70,63
54,127,128,260,106,164,69,62
53,131,127,255,103,148,64,64
49,139,132,268,105,159,59,50
51,151,135,257,115,165,68,54
44,141,132,248,108,171,72,54
41,137,148,287,106,181,79,58
49,146,160,361,126,178,95,53
55,181,160,374,139,190,98,50
55,175,142,372,137,208,109,55
57,191,187,446,169,200,112,55
57,201,201,451,190,204,108,52
52,197,198,396,180,220,97,56
53,170,195,369,168,207,101,60
52,164,196,363,162,184,79,52
49,155,166,259,130,184,74,53
48,168,163,215,93,166,78,51
82,185,169,263,106,150,75,52
93,215,180,282,103,147,84,67
95,215,183,290,132,153,101,70
96,206,179,332,153,163,133,69
98,184,165,363,170,167,131,74
104,176,167,341,168,161,135,74
109,118,157,352,177,176,134,57
110,129,153,362,169,188,124,58
112,131,149,334,150,173,89,60
114,141,156,302,144,170,86,58
93,128,139,282,137,167,82,65
79,135,147,269,134,147,68,73
104,122,151,228,120,125,72,78
134,137,151,275,132,124,72,79
175,123,132,274,118,157,79,76
170,122,154,308,129,173,74,75
174,127,142,296,131,179,73,68
203,129,135,309,132,186,78,58
183,107,125,261,121,183,82,60
149,133,132,241,127,160,77,65
151,155,120,238,159,174,82,61
145,217,129,252,158,174,97,65
79,228,129,251,156,161,92,68
83,231,131,270,157,175,86,70
69,215,120,261,153,176,85,67
66,197,118,219,114,177,80,62
64,131,144,230,113,180,87,57
55,121,177,303,142,186,88,69
53,146,198,334,163,187,93,67
53,151,205,362,167,196,97,68
56,158,206,385,169,183,110,75
53,151,210,427,189,178,98,77
54,151,202,398,177,175,98,68
49,132,187,366,160,166,96,69
49,140,178,343,156,165,101,70
45,150,177,326,151,156,95,64
50,148,152,246,121,145,94,63
49,135,124,203,107,161,102,63
51,137,113,208,100,185,99,61
52,138,130,220,105,212,100,62
54,127,118,209,99,210,94,69
50,125,108,196,101,217,87,66
47,138,118,209,104,199,70,62
47,141,143,211,113,169,73,61
49,133,136,200,114,128,63,58
47,146,154,226,126,131,68,54
46,144,165,280,132,125,71,54
51,133,159,322,127,122,69,53
53,124,143,317,115,137,67,48
55,126,137,314,115,154,70,48
55,122,140,307,109,150,60,43
57,122,123,274,97,154,57,47
61,124,131,215,105,177,69,72
62,117,123,188,108,175,77,74
65,119,125,187,111,166,80,75
70,120,179,260,137,173,83,74
75,139,207,296,147,163,84,76
72,137,199,290,155,167,83,63
73,144,203,293,154,168,78,61
69,151,204,301,147,155,77,64
60,143,146,234,120,155,77,62
57,131,104,159,114,173,89,69
52,143,102,159,95,160,98,65
45,162,117,161,94,157,104,67
59,149,115,165,97,177,106,65
64,149,126,158,93,167,104,70
63,148,154,179,89,161,100,59
64,151,186,204,112,175,98,58
65,133,178,201,117,183,97,54
51,133,177,194,109,169,93,55
45,125,164,190,122,172,99,51
47,121,135,170,123,169,102,52
60,110,81,135,103,171,95,48
66,99,75,133,96,163,91,47
68,102,74,123,101,162,88,44
72,118,89,191,133,172,84,45
68,115,93,202,135,183,84,43
55,111,98,202,138,152,89,45
46,133,92,202,149,165,88,51
43,141,95,200,151,177,87,49
36,145,98,143,119,167,83,51
38,149,94,121,119,165,72,57
40,156,90,125,113,171,75,57
38,145,95,136,107,170,83,52
41,135,95,141,111,170,93,52
43,124,71,117,106,179,96,49
42,126,75,123,97,197,99,41
44,119,73,117,103,217,89,42
50,111,76,112,96,201,85,46
49,119,83,127,95,201,84,46
54,124,85,140,99,187,89,46
56,123,83,136,105,167,87,49
57,127,84,137,98,146,95,51
52,128,73,123,92,151,92,48
54,120,54,127,92,152,90,47
54,107,50,125,84,178,91,48
53,105,44,122,91,168,85,51
51,98,42,120,92,162,75,48
52,97,43,117,98,168,80,47
47,91,41,83,89,153,81,45
37,100,46,68,88,180,76,47
33,101,51,91,77,181,77,43
35,96,51,102,77,182,77,44
43,91,53,101,79,181,74,51
49,99,60,101,84,192,69,50
65,110,71,108,88,152,75,54
74,115,71,98,108,165,74,52
72,118,75,108,114,162,77,50
69,122,76,117,108,156,79,43
67,122,72,118,107,142,82,45
55,111,57,111,108,129,75,38
42,93,53,100,86,122,83,38
42,94,47,80,90,127,84,48
43,92,50,75,98,131,79,52
45,92,51,73,110,170,87,55
41,89,49,71,108,185,95,54
42,97,50,72,107,184,92,53
42,120,52,69,100,183,94,47
43,124,44,64,100,206,111,48
38,142,41,56,91,183,100,43
40,194,39,57,88,169,89,42
39,210,40,69,93,185,90,45
37,205,38,92,95,190,93,44
36,214,47,93,102,161,83,45
45,214,58,101,96,145,87,47
46,192,61,99,98,144,99,49
48,234,62,92,97,117,106,53
54,253,63,71,95,124,108,56
53,251,64,84,82,141,108,54
45,249,67,106,83,159,107,54
44,229,69,112,82,164,98,61
45,166,68,117,87,177,86,60
45,130,69,116,79,186,76,55
46,126,65,108,82,194,71,59
46,140,54,435,90,196,73,59
45,164,59,591,97,202,85,53
43,182,68,601,99,191,87,49
42,254,68,603,102,191,95,51
43,329,70,605,103,182,88,47
45,349,68,430,93,179,88,44
45,341,61,165,88,169,74,43
47,344,60,121,79,173,70,41
42,308,85,148,81,151,57,42
40,267,114,161,85,161,64,37
40,265,138,171,105,153,77,37
38,265,144,167,104,156,77,45
39,249,143,168,112,157,84,51
42,229,141,145,111,198,88,51
57,175,131,132,104,185,83,50
58,112,113,114,97,194,75,52
61,119,116,110,98,201,75,43
62,126,114,107,98,197,74,35
64,459,100,96,94,184,83,38
51,474,86,76,101,188,84,38
46,568,87,76,109,226,96,41
43,626,71,64,110,230,101,41
44,637,71,67,101,229,97,50
42,464,76,75,114,208,90,49
40,456,68,78,116,206,92,51
41,329,54,71,103,150,79,50
43,194,54,68,98,145,74,49
39,289,52,71,103,154,76,43
43,339,49,65,99,168,70,41
62,426,54,64,103,189,73,38
76,427,55,66,101,184,65,33
75,426,55,70,106,186,63,31
76,350,55,65,106,180,64,33
73,294,53,61,110,215,79,44
59,106,45,56,95,196,76,50
47,105,45,55,100,202,77,53
47,105,44,67,97,189,73,53
44,97,46,73,95,188,71,51
44,100,44,74,81,134,58,42
45,100,43,73,85,132,56,38
38,93,47,77,87,146,58,37
36,98,48,63,87,147,72,38
43,94,46,53,86,163,82,41
50,90,45,52,84,159,81,43
49,93,47,54,83,161,83,46
47,88,45,50,78,149,88,45
47,80,41,48,79,158,79,45
51,97,41,46,86,165,73,43
45,106,41,45,89,176,73,44
44,105,45,46,91,187,74,46
48,107,47,51,97,206,76,50
49,112,50,54,99,202,77,55
45,106,47,53,93,190,75,55
44,92,49,67,94,187,77,55
45,107,51,72,97,183,76,54
42,116,53,79,97,181,68,51
40,117,63,81,98,183,81,46
30,110,64,84,106,174,79,47
31,118,63,74,111,172,82,43
32,115,61,71,106,163,91,40
34,119,56,69,103,142,97,37
36,117,43,71,100,140,84,37
37,115,45,79,94,151,88,38
40,111,45,79,94,152,86,41
41,103,40,77,101,149,72,42
43,89,44,67,97,154,65,44
46,89,42,58,100,170,69,45
46,87,41,45,93,158,68,43
44,84,40,47,87,149,64,44
41,101,46,54,88,153,67,44
38,110,40,51,93,149,64,43
32,122,40,52,85,137,61,42
33,131,38,50,93,151,65,42
33,130,38,47,91,149,69,40
38,120,33,42,79,143,74,45
38,111,33,41,68,147,73,46
42,101,38,43,77,155,76,46
42,99,38,44,75,147,68,46
41,99,38,45,76,152,67,43
36,93,36,42,80,158,63,35
35,94,37,45,90,161,62,33
30,87,35,42,91,153,65,33
35,75,33,43,86,151,66,36
38,81,32,41,82,161,76,38
41,77,34,43,83,152,73,37
40,71,34,46,80,138,76,37
59,71,31,46,76,170,78,39
65,78,29,48,79,177,81,40
63,68,31,49,84,164,75,38
62,76,29,50,84,184,76,37
66,79,29,48,80,208,75,42
56,97,43,59,80,174,67,41
45,122,52,71,80,168,59,38
45,222,53,74,79,178,57,40
45,260,55,74,92,178,64,40
39,274,55,71,93,152,68,35
32,280,47,62,91,158,72,33
33,272,39,47,92,165,79,31
32,200,37,41,94,163,78,33
36,149,35,41,84,153,70,37
43,121,35,44,76,150,78,52
42,88,32,41,73,159,74,52
40,115,35,43,67,164,74,54
40,136,35,43,76,190,75,52
40,142,32,40,80,195,76,52
34,164,43,67,89,199,69,41
32,185,45,74,98,196,68,39
37,198,42,71,100,200,86,35
39,205,44,71,95,179,86,37
38,206,52,78,90,162,88,35
40,194,60,79,104,165,89,32
44,182,61,79,109,180,96,37
42,154,62,81,118,180,80,41
38,139,69,92,117,194,88,41
38,135,66,92,116,201,84,43
36,136,55,79,109,216,88,44
36,134,63,85,108,202,90,42
39,147,62,84,97,187,90,42
41,156,65,73,94,163,85,42
43,153,70,85,99,172,96,41
45,152,77,92,120,139,100,43
46,151,69,86,114,149,96,44
42,137,71,86,114,152,102,45
41,112,62,85,110,155,108,46
40,107,57,77,118,148,108,43
37,99,45,59,86,171,101,38
36,96,46,56,83,160,108,38
38,88,45,56,88,155,106,37
38,92,45,60,96,155,103,42
36,94,44,58,93,145,135,44
36,94,43,56,101,139,139,46
33,95,43,55,101,155,238,45
34,100,43,56,100,169,270,43
33,104,42,56,97,178,272,41
31,103,43,50,95,192,256,41
33,110,43,52,90,193,253,44
33,106,40,53,91,175,162,47
32,104,38,52,83,162,116,47
30,99,42,64,89,174,106,47
30,94,38,60,78,161,113,47
31,95,40,61,77,153,131,45
34,98,42,59,81,176,146,40
32,114,43,59,90,184,136,40
34,129,42,44,93,163,144,40
45,137,43,49,100,160,147,48
41,132,41,51,98,151,135,48
42,131,44,62,94,144,114,49
43,130,53,69,101,160,112,52
42,126,51,74,92,166,100,51
45,158,55,72,86,171,85,46
48,164,71,77,93,175,76,49
47,194,73,79,97,181,73,53
45,206,68,73,81,173,67,51
47,203,66,65,89,186,66,53
41,176,68,67,89,198,71,61
38,168,49,59,97,213,73,57
38,134,43,44,95,211,72,56
39,95,49,62,104,221,73,54
38,92,58,78,94,205,72,53
34,92,54,79,98,194,72,43
33,97,53,78,86,186,68,43
34,96,55,81,92,180,66,40
41,101,49,72,88,169,60,41
37,96,50,64,89,174,74,45
34,96,52,62,90,195,69,45
36,114,51,62,89,190,71,45
39,109,47,57,78,187,75,46
31,106,49,56,71,179,78,47
32,106,36,52,88,203,70,42
33,107,30,47,82,191,68,39
34,104,35,48,79,193,70,40
31,108,33,49,83,184,67,40
33,113,31,43,89,208,68,40
35,116,31,31,72,193,69,38
37,115,32,34,76,178,67,40
38,112,29,35,88,187,65,40
39,115,29,37,105,194,66,41
38,109,31,41,107,158,61,39
38,107,30,58,108,155,61,41
45,103,30,60,106,198,63,41
44,90,31,63,105,203,60,38
43,84,35,64,90,200,56,34
43,80,34,61,85,203,59,36
41,87,37,48,83,205,61,37
36,86,38,45,80,166,65,39
31,81,39,40,69,163,74,41
32,118,37,36,80,166,81,46
31,125,39,46,85,168,79,48
37,134,37,47,94,159,82,52
35,144,35,48,96,158,83,54
36,154,33,52,99,134,86,53
33,133,38,54,90,133,83,48
35,127,34,49,82,133,86,46
35,118,35,48,69,136,79,42
35,121,35,48,79,139,75,39
35,112,35,44,74,133,62,39
37,110,30,42,80,124,60,42
38,112,32,38,86,125,57,42
33,105,31,41,88,128,54,39
32,94,32,43,84,128,56,39
33,95,31,50,96,152,57,40
32,93,31,48,93,156,53,36
44,100,31,53,94,174,57,34
47,101,34,61,105,169,57,36
61,97,33,63,108,178,67,37
63,92,33,59,104,164,70,44
66,91,44,74,106,161,70,46
62,84,47,71,119,150,69,47
60,116,68,80,117,158,69,47
46,116,87,91,122,147,63,44
47,123,95,103,122,142,59,39
45,129,96,103,121,162,60,42
44,165,108,120,125,155,68,43
45,149,106,120,129,156,69,42
47,148,95,114,120,156,67,46
43,146,92,111,118,176,74,46
44,148,101,114,113,163,83,45
44,118,107,106,102,161,79,46
42,119,104,101,92,147,82,49
41,122,101,103,95,145,82,48
43,133,107,97,98,135,77,48
45,154,98,86,98,141,72,49
43,143,85,74,93,142,69,50
45,140,78,71,89,154,74,45
44,138,86,78,86,156,76,43
44,128,75,81,91,155,75,43
45,94,69,81,89,163,74,42
42,101,58,80,79,160,74,39
41,96,67,84,80,145,59,40
41,101,83,89,82,151,55,40
39,102,85,86,79,154,56,38
32,113,87,87,80,139,60,36
72,114,95,87,83,157,59,35
90,116,94,87,83,159,62,35
90,119,87,86,92,154,77,35
91,120,90,89,87,142,76,36
92,111,87,87,85,140,70,34
67,109,84,91,90,120,71,34
41,110,92,96,90,131,72,33
41,105,80,80,80,138,56,31
42,102,75,75,81,139,60,30
39,114,76,77,85,147,67,30
36,117,72,72,86,150,80,34
33,115,54,55,86,151,83,40
42,110,46,57,80,170,86,49
41,108,56,61,79,171,82,49
42,104,59,71,87,169,86,51
41,102,73,103,95,178,91,50
43,109,80,108,102,182,89,47
48,109,82,107,105,159,93,44
84,125,107,121,113,152,95,46
105,134,156,131,114,151,91,46
141,141,171,130,105,156,70,45
170,136,173,129,98,136,68,42
168,142,184,143,105,131,57,41
159,140,178,140,101,129,56,38
148,134,142,128,98,143,56,39
117,133,126,107,110,127,56,39
69,148,139,115,113,135,56,42
65,145,128,99,110,153,76,42
54,137,114,90,112,168,84,44
45,123,110,98,107,157,87,41
41,113,104,107,100,160,89,39
39,95,83,94,103,161,92,37
42,107,95,106,110,137,76,33
39,108,102,111,106,141,67,35
39,112,99,106,105,143,63,37
37,109,98,96,103,144,60,42
39,112,93,96,100,146,52,43
36,100,79,84,86,158,57,43
34,87,68,71,81,152,62,41
31,93,75,91,97,143,59,42
30,93,72,90,92,127,60,38
31,89,77,91,87,119,66,37
32,92,79,98,104,117,67,42
31,95,82,101,106,112,63,41
33,93,90,84,98,112,63,42
32,101,89,89,109,147,70,41
28,104,85,103,117,146,75,42
25,105,82,95,113,139,73,37
30,113,78,92,108,139,75,36
30,113,64,89,101,140,74,36
28,104,59,84,91,123,69,38
28,112,60,70,76,120,58,39
29,109,64,78,80,140,56,38
26,102,70,91,85,137,57,39
29,104,66,89,92,149,54,37
29,103,71,91,99,155,64,37
31,96,80,91,104,186,67,36
36,95,74,84,89,173,79,39
35,96,74,76,92,176,86,35
34,86,73,81,92,172,88,38
36,97,76,90,86,155,150,37
39,88,60,87,86,131,190,36
37,85,59,85,86,129,223,33
39,84,54,78,89,125,246,34
47,88,71,75,82,125,275,33
49,82,75,72,84,123,277,35
49,84,74,71,91,121,252,36
48,90,74,72,98,130,243,39
47,92,74,79,97,128,240,38
41,89,58,79,106,116,241,37
37,86,40,76,102,140,222,37
42,85,42,74,96,145,234,39
43,85,50,74,90,153,241,39
46,97,46,65,85,151,219,39
43,104,43,63,78,163,185,39
42,110,44,54,83,144,177,38
37,110,45,71,92,150,160,39
42,113,45,88,97,136,114,37
37,105,51,93,93,135,130,41
38,100,50,93,93,143,144,40
42,94,53,96,92,152,188,42
44,101,50,86,80,133,346,39
40,89,43,68,74,133,359,41
39,90,37,79,79,135,359,40
37,94,46,79,87,125,352,44
35,98,47,78,82,131,335,42
29,89,49,74,79,135,171,42
27,96,49,69,78,149,160,42
31,90,47,48,76,159,159,42
32,87,43,44,65,157,250,42
35,96,50,63,66,141,243,45
35,95,51,70,76,147,252,45
36,101,51,74,83,135,237,46
39,107,52,79,89,134,232,45
38,106,59,82,87,145,150,41
36,94,51,64,85,150,298,40
36,96,47,58,86,143,431,50
40,92,52,63,84,136,612,48
35,89,56,64,84,136,620,48
35,92,46,59,86,120,626,49
34,98,43,65,93,124,572,47
45,107,46,64,97,155,481,35
44,102,43,62,95,157,208,38
46,98,51,69,93,146,183,34
46,101,53,69,94,149,141,36
45,95,51,63,97,152,122,35
37,87,53,64,93,133,95,36
33,83,52,68,94,138,82,32
32,81,47,68,102,142,79,33
32,75,50,69,99,137,74,34
35,84,52,73,90,132,69,39
36,91,50,75,104,143,63,39
38,105,56,74,106,141,63,39
37,109,50,65,95,140,62,45
40,116,49,65,98,147,64,43
39,109,47,68,102,149,63,43
38,117,51,67,80,131,63,45
36,109,44,67,86,131,67,45
37,108,43,68,91,127,67,39
37,98,46,89,95,123,62,39
36,103,66,99,98,126,62,38
33,89,64,100,96,117,60,35
34,88,64,98,91,110,58,39
33,91,62,100,86,124,67,39
30,92,61,91,90,118,67,39
31,98,70,94,93,105,64,35
34,98,74,97,95,112,66,36
41,101,74,94,91,145,73,33
41,121,83,108,102,140,77,41
43,129,92,111,101,147,83,39
41,126,74,98,93,152,84,41
42,124,74,106,93,154,79,42
41,120,77,108,95,135,71,40
40,109,77,90,84,140,59,34
37,99,62,74,74,137,47,35
44,99,70,91,88,139,49,47
42,98,75,95,89,144,53,46
36,97,76,97,86,135,63,47
35,109,68,96,90,122,64,48
39,113,72,95,85,137,64,50
36,121,64,81,95,145,65,39
35,128,59,70,99,133,70,39
35,128,55,65,101,130,62,46
35,115,56,67,98,141,60,44
36,119,52,67,100,128,63,43
33,105,46,64,76,121,68,42
37,97,37,57,73,135,69,44
42,107,38,64,70,140,69,37
49,106,35,75,71,139,68,36
45,99,36,77,73,137,72,35
46,97,34,74,72,127,61,35
42,104,32,71,68,134,53,32
38,98,30,58,72,137,52,31
30,91,28,48,78,128,52,30
31,94,36,51,76,126,46,33
27,110,37,52,90,137,57,32
29,111,37,52,98,141,57,34
28,114,40,58,99,136,59,32
43,119,45,62,99,141,62,34
43,112,42,61,109,146,62,31
45,109,44,60,99,151,64,35
44,118,70,72,92,147,64,33
50,127,73,81,92,165,63,35
37,123,74,83,90,164,60,35
37,132,73,79,82,174,63,35
37,132,72,82,81,156,65,34
39,119,51,75,77,135,67,36
40,101,47,62,74,111,80,35
40,107,41,50,70,110,98,36
40,107,42,54,68,104,139,37
40,95,48,62,75,106,151,35
39,95,44,55,87,125,172,35
33,108,42,57,84,126,175,37
32,102,43,62,86,129,172,36
32,95,48,64,87,118,148,39
32,94,45,56,84,118,146,40
34,98,44,57,78,96,185,38
30,89,43,65,79,91,182,35
31,91,46,72,82,89,181,35
33,93,43,69,83,86,181,32
31,97,40,66,78,98,168,31
32,106,41,64,77,118,109,30
32,105,39,59,77,136,134,33
32,110,40,54,77,135,207,37
32,109,43,75,81,137,215,38
32,103,46,77,80,134,219,38
32,100,47,77,83,152,227,39
33,108,49,75,81,146,231,39
33,105,48,71,77,147,170,36
34,101,42,60,79,159,175,36
38,102,40,59,81,159,172,36
35,97,37,57,78,132,159,36
35,91,34,55,77,138,134,33
33,93,34,56,80,143,129,32
31,96,33,42,68,137,102,31
31,133,32,39,80,149,118,32
30,151,96,38,92,165,110,29
30,156,116,42,94,158,145,33
31,153,115,41,92,153,146,33
30,154,116,43,97,162,144,33
30,125,117,43,84,155,132,36
32,103,77,45,67,142,130,42
32,92,45,40,62,141,82,39
32,93,47,51,61,143,93,40
38,98,48,50,63,129,90,39
35,100,43,50,64,139,95,38
34,96,38,52,67,133,92,35
35,101,37,54,70,130,101,36
54,95,31,43,73,127,107,33
59,89,27,39,67,123,109,33
60,104,27,39,64,124,104,34
61,100,29,35,71,157,106,32
61,95,27,32,90,160,93,32
47,106,25,32,95,164,78,34
38,104,32,38,102,169,76,35
35,89,36,42,106,168,75,31
31,93,37,46,106,137,70,31
30,97,38,48,90,145,74,31
34,94,43,48,83,142,65,34
36,97,47,55,88,143,73,35
37,94,43,55,88,125,74,36
37,91,43,50,83,135,72,37
42,92,41,50,89,121,69,38
39,89,38,50,86,116,73,35
36,88,31,41,80,105,90,33
36,95,33,38,80,123,92,33
39,97,34,41,80,125,94,32
39,99,35,39,77,133,110,35
41,108,37,42,82,141,127,38
40,110,37,48,88,147,116,41
40,108,35,51,90,136,117,45
38,109,35,49,89,138,120,44
32,108,37,49,92,127,149,43
36,95,33,50,90,125,134,41
41,92,30,43,78,121,128,38
42,94,31,40,71,115,124,33
45,88,30,41,66,108,126,32
45,81,28,40,58,105,81,30
38,84,35,40,63,112,80,28
37,76,41,38,71,121,84,27
38,80,43,39,73,126,86,32
33,87,44,39,77,131,91,34
33,92,52,45,78,139,98,34
33,99,48,41,79,134,95,36
32,103,43,41,73,128,91,36
33,100,52,53,72,121,87,36
35,104,63,73,83,124,76,37
35,100,61,79,89,142,148,42
36,95,61,80,94,157,159,43
33,96,61,79,92,186,216,41
31,94,54,71,90,202,222,40
36,105,62,78,89,201,222,39
37,108,69,87,95,195,176,33
36,110,79,99,86,177,170,35
37,114,79,102,100,148,101,38
34,116,81,107,104,130,132,36
32,97,66,100,95,118,130,35
31,92,70,96,86,114,147,36
34,92,62,88,89,119,145,36
39,101,62,85,74,107,146,34
44,108,60,79,74,116,119,35
45,108,62,69,78,122,124,34
47,126,45,54,89,123,106,36
48,138,41,52,94,121,114,35
44,134,45,58,99,127,106,36
39,127,43,59,101,110,97,36
38,131,44,56,97,109,99,37
37,116,45,63,89,123,115,36
35,98,48,60,77,131,105,33
34,96,43,63,78,139,103,35
36,102,46,65,71,145,104,34
33,95,44,65,81,143,104,35
31,95,45,62,83,124,111,37
35,102,48,70,86,114,115,38
35,89,48,64,81,103,117,36
34,77,49,66,87,114,132,36
34,90,56,71,82,115,126,38
33,90,52,70,80,119,101,38
28,93,48,61,87,120,92,41
27,105,49,58,88,135,94,42
30,112,60,58,85,126,73,42
30,106,57,56,80,138,81,41
30,108,57,56,76,148,84,37
30,98,59,60,67,156,86,34
31,92,70,67,67,151,80,33
28,89,58,62,66,159,77,33
28,90,54,56,73,164,74,34
27,89,56,57,71,153,64,34
30,99,53,54,73,149,64,33
28,94,36,50,78,156,65,35
28,88,34,51,81,149,66,46
31,92,35,52,76,123,56,44
32,92,40,57,84,144,58,46
31,83,43,55,82,149,60,46
32,92,43,57,81,138,65,45
32,113,44,58,80,140,62,34
34,114,45,58,87,140,68,35
57,111,35,51,78,115,75,35
72,116,35,59,77,111,74,34
72,120,43,63,77,129,67,34
75,106,47,66,79,126,66,38
74,105,59,68,74,129,64,37
57,106,59,76,81,133,68,37
35,119,59,74,87,146,69,37
35,114,55,83,86,126,71,38
34,112,58,81,79,128,78,34
31,112,53,89,85,124,78,33
32,114,54,82,79,121,70,33
32,104,51,76,77,99,64,32
30,97,52,60,88,103,57,31
26,96,48,62,91,105,47,31
25,87,39,48,85,109,45,31
27,92,38,50,86,106,41,30
26,86,41,53,87,106,51,33
26,95,39,50,70,109,57,34
31,96,36,42,67,104,63,33
36,101,36,40,61,121,63,34
37,95,34,39,57,122,61,36
38,90,33,35,46,124,56,33
38,84,31,35,46,118,55,31
35,81,28,35,45,115,51,35
32,75,27,33,47,94,51,36
31,81,33,39,56,145,53,34
31,89,32,39,57,164,49,34
31,90,33,41,61,172,50,37
29,89,33,42,59,177,50,34
25,91,32,47,63,182,53,35
24,82,25,39,58,143,60,37
24,77,27,38,62,112,64,38
24,81,28,44,60,93,59,35
25,90,28,42,61,87,58,36
29,98,29,41,63,83,51,37
28,109,30,44,70,102,45,35
29,111,30,45,73,111,44,35
29,109,28,38,80,113,46,36
29,104,31,39,83,125,47,35
29,98,35,38,81,141,54,40
31,88,33,36,77,128,50,39
31,84,31,35,72,127,48,39
30,80,31,33,66,138,47,37
36,80,30,34,65,133,57,39
52,83,28,30,68,119,54,38
62,87,28,29,75,132,55,39
63,86,28,29,74,139,54,39
63,91,28,30,78,127,56,42
60,87,28,37,80,124,62,40
47,76,26,40,85,129,62,34
32,73,27,40,79,122,62,33
31,77,28,40,83,113,65,33
29,84,30,39,82,122,64,34
31,94,30,35,81,120,49,33
29,95,29,39,69,116,46,36
27,93,44,39,67,116,61,36
29,96,48,39,67,119,72,36
36,95,49,40,63,115,73,36
33,85,48,38,64,117,73,37
41,89,48,32,65,120,76,38
41,87,36,34,75,141,69,39
46,82,28,34,72,151,54,41
43,96,29,35,82,152,60,38
45,98,30,47,82,147,59,39
39,122,31,47,84,180,60,38
44,130,32,48,76,172,61,38
39,134,37,54,82,164,60,39
39,126,37,57,73,164,57,41
39,126,39,53,71,180,64,40
40,105,53,70,72,148,63,40
38,112,67,75,91,132,66,38
37,123,67,74,88,138,71,36
35,117,68,79,93,140,69,36
39,119,80,86,102,119,71,37
36,121,73,73,105,116,72,36
35,108,64,70,91,124,74,39
34,96,63,69,94,119,73,39
34,104,60,60,88,112,75,41
30,110,44,51,95,127,69,42
29,112,48,50,90,144,72,41
43,109,45,50,90,142,66,39
61,110,46,52,86,151,64,37
104,102,45,53,84,150,60,37
110,92,41,45,67,137,59,36
112,86,34,44,64,118,51,38
109,89,34,39,68,140,58,36
100,84,32,35,74,125,64,37
54,86,34,35,74,127,65,32
40,84,34,36,74,152,73,34
34,86,32,33,75,146,73,33
30,92,30,32,67,120,69,32
28,93,31,30,64,130,69,39
26,87,26,28,67,141,69,42
28,101,29,30,65,116,66,44
28,104,29,36,72,122,66,42
28,100,28,38,76,134,61,43
27,99,25,35,72,132,56,40
28,102,29,36,73,131,56,37
27,90,26,35,83,138,48,32
29,85,25,31,77,140,51,34
28,81,26,31,74,137,50,35
29,82,26,34,70,141,55,36
28,84,27,32,68,130,65,36
21,87,30,35,56,129,66,38
21,87,31,35,58,136,67,37
32,92,61,35,61,133,73,37
35,86,61,34,70,131,70,35
37,85,66,34,72,138,61,38
38,88,66,30,69,130,60,35
38,85,65,33,68,127,63,37
28,83,40,36,69,128,60,36
28,87,39,36,67,115,59,35
29,105,30,38,66,105,57,35
30,117,30,40,70,117,64,42
30,122,30,37,68,128,56,42
33,122,30,32,67,125,55,43
32,122,31,36,63,136,55,42
32,103,29,36,64,156,63,41
32,90,30,36,62,151,58,34
37,83,34,37,65,142,65,34
36,86,47,73,72,144,69,37
36,88,53,78,78,141,67,38
36,146,87,82,87,124,68,42
39,166,107,100,93,154,87,46
35,172,118,120,121,151,88,49
36,177,122,109,117,150,85,48
41,181,134,125,125,149,86,47
42,141,118,131,137,152,81,43
40,114,104,121,133,115,66,44
39,110,97,103,117,112,62,46
42,137,93,110,125,111,69,45
38,134,84,95,127,128,75,46
44,134,82,90,123,136,79,48
44,131,79,89,124,154,76,49
50,138,92,94,119,150,77,45
100,118,97,84,115,161,72,45
115,124,101,87,101,155,68,47
115,129,104,93,82,144,66,46
115,136,107,92,81,146,71,41
114,137,98,96,87,154,69,40
73,146,93,102,98,139,68,39
43,147,88,104,103,138,68,35
37,142,85,106,106,135,66,34
40,154,116,117,111,127,57,33
36,223,128,118,105,127,67,35
41,285,149,155,110,142,66,36
43,305,156,161,121,134,62,36
45,304,167,172,135,141,64,36
44,298,154,177,135,143,74,42
45,255,149,188,142,135,67,40
39,165,128,156,128,123,66,39
37,116,126,144,116,119,65,39
36,139,113,123,92,112,66,39
32,138,101,104,91,95,58,39
35,127,98,77,80,102,63,40
38,134,118,80,92,105,67,42
37,134,107,84,94,102,68,44
43,113,117,99,104,122,68,44
51,147,128,106,102,125,67,40
62,142,129,109,99,124,67,40
67,137,107,101,91,118,63,39
68,136,121,109,96,125,70,41
64,137,112,100,88,104,70,41
59,99,99,95,87,129,70,44
48,101,93,90,89,142,69,45
37,98,93,97,95,152,75,44
34,105,81,94,85,162,69,39
34,101,84,90,94,173,65,39
36,97,86,95,96,160,70,37
29,93,86,97,96,155,67,37
29,100,85,96,88,162,61,38
29,95,70,83,92,145,70,40
33,97,65,85,83,147,73,37
30,99,67,98,82,160,69,37
31,91,58,91,79,152,66,35
30,86,57,83,73,146,72,36
28,77,58,84,68,157,63,32
24,78,60,80,68,162,59,34
29,81,49,48,64,160,61,32
32,82,48,47,67,163,66,32
35,87,62,77,79,163,58,31
41,88,64,80,75,164,61,33
42,91,64,81,76,155,66,41
39,89,93,93,80,136,59,42
41,124,135,120,109,138,57,43
40,140,143,132,116,132,57,44
42,161,148,136,123,138,58,42
46,169,165,167,138,161,67,36
49,177,210,194,157,174,73,37
47,225,195,187,154,169,75,37
50,255,195,180,165,202,80,42
44,409,231,190,175,197,86,43
46,448,245,193,189,179,75,43
53,452,241,207,215,180,88,50
57,431,254,235,227,185,85,53
56,425,268,243,223,145,84,51
57,268,246,254,219,147,82,52
53,266,237,243,199,162,84,54
45,391,226,286,191,166,65,46
54,403,230,289,172,173,79,47
61,409,234,290,176,183,82,45
62,444,247,289,178,207,76,46
67,411,255,308,199,205,84,43
69,290,238,247,173,198,86,42
61,373,218,217,165,191,78,39
58,656,217,242,164,197,76,40
57,645,199,251,162,171,79,41
52,692,209,293,159,166,70,55
51,699,222,295,156,180,71,60
50,650,226,297,161,194,65,59
49,358,239,317,209,183,66,66
54,342,238,335,209,186,62,67
60,237,212,302,210,193,68,55
60,221,211,312,219,193,65,51
64,239,240,321,238,179,77,53
64,203,211,322,227,177,82,44
68,214,225,289,241,181,91,43
69,220,247,293,257,175,95,46
67,224,255,301,269,156,101,48
68,234,261,300,268,161,104,45
66,240,275,282,248,183,101,45
62,244,286,303,243,185,112,45
54,230,264,269,216,181,106,44
52,222,237,240,198,185,110,44
51,213,237,238,194,193,519,54
48,227,222,194,176,175,982,57
45,209,188,144,165,169,1305,55
45,219,195,152,176,157,1558,55
48,260,247,246,216,158,1606,53
43,523,209,242,198,142,1526,48
49,778,202,274,209,141,1289,50
46,943,207,282,206,169,981,58
45,969,207,312,205,212,499,60
49,959,153,265,174,231,314,62
48,871,153,264,183,229,301,59
42,648,158,235,202,244,256,55
44,369,147,225,200,224,147,54
46,286,130,172,180,184,112,50
37,277,122,125,157,154,100,53
45,147,117,110,148,153,80,53
45,136,97,89,93,108,65,51
45,132,93,79,103,100,62,46
46,150,103,86,125,102,59,49
48,157,107,95,134,121,65,44
39,169,101,89,133,118,64,42
39,178,103,96,139,132,73,44
38,177,112,112,141,150,75,50
47,166,106,105,129,156,74,50
45,158,94,102,127,145,73,94
45,135,85,98,120,163,78,108
45,132,126,127,123,170,72,130
48,165,125,119,116,161,79,186
46,169,164,145,123,164,83,191
49,174,184,175,117,162,88,177
51,190,186,184,136,171,90,170
56,283,254,225,165,167,94,154
69,293,354,302,235,196,104,76
66,303,359,317,247,203,112,61
74,332,436,387,330,229,112,50
82,371,463,455,380,223,125,52
82,301,435,447,380,227,128,57
79,339,447,505,412,214,125,60
91,367,486,529,439,245,121,62
91,349,424,489,402,223,120,64
86,334,442,452,355,226,105,61
86,336,442,452,357,232,103,62
84,280,353,339,295,226,101,58
81,255,364,369,278,245,101,62
74,272,391,374,253,255,115,62
73,240,353,344,251,251,120,71
76,264,352,329,251,250,119,66
82,262,352,323,229,248,124,69
74,237,280,250,207,198,121,65
73,212,244,232,208,214,108,65
75,208,226,228,208,217,106,56
69,171,201,223,187,205,106,54
63,166,202,258,186,205,102,47
60,176,219,279,189,197,106,50
67,186,201,304,267,166,113,49
67,215,215,328,294,155,118,48
70,241,221,323,303,157,129,52
65,255,232,322,312,146,129,53
73,251,230,292,310,165,132,54
68,271,229,240,245,176,137,55
68,276,228,252,239,206,129,61
73,345,224,259,226,209,119,62
74,343,220,230,230,220,114,62
69,382,185,218,212,221,106,58
68,374,186,225,218,210,92,58
71,363,170,178,208,210,94,59
65,352,170,170,217,211,89,59
74,369,226,241,274,218,98,62
79,343,226,239,282,218,103,67
86,341,220,252,288,222,101,73
91,370,246,285,306,196,106,72
89,348,258,305,307,209,110,74
82,337,203,261,239,204,109,73
75,338,229,307,274,210,125,71
74,343,239,293,259,209,136,64
70,307,225,275,227,223,134,69
71,328,230,280,251,253,132,65
70,324,230,271,262,261,140,62
72,331,237,229,251,250,125,59
78,323,237,260,262,255,114,68
71,343,234,252,274,256,120,59
72,298,231,224,247,212,120,68
70,309,239,237,251,205,100,77
70,291,203,221,207,215,95,83
57,291,186,182,199,206,94,76
57,280,177,198,170,217,96,78
63,270,183,224,183,227,100,72
62,253,191,222,170,224,107,64
58,229,208,223,186,215,111,60
57,249,218,233,184,233,112,64
58,233,233,219,190,227,111,70
57,242,235,215,200,255,107,69
54,224,213,204,206,266,106,66
57,237,219,242,216,276,112,62
57,229,232,247,234,285,112,61
58,231,234,270,251,282,126,54
65,208,208,250,225,272,127,53
68,211,211,251,210,260,128,61
64,201,190,232,191,235,120,62
68,173,170,221,162,221,125,66
69,164,142,181,114,236,118,66
56,193,149,196,149,206,111,66
56,191,164,223,200,225,114,61
56,200,155,193,195,233,114,60
56,202,175,240,202,222,108,53
54,204,172,246,242,254,106,52
55,206,166,236,224,274,117,64
55,205,152,203,181,284,123,64
57,206,184,234,193,288,128,66
58,207,165,187,196,283,130,65
63,199,173,177,154,260,120,66
65,188,173,167,160,242,112,56
65,232,183,191,177,226,95,57
63,230,168,174,168,225,88,55
62,275,170,201,195,264,95,66
57,272,160,210,190,245,101,66
58,304,174,211,186,252,118,70
66,293,177,201,183,233,141,84
68,299,167,191,187,236,151,100
66,273,219,185,171,210,160,102
74,314,262,259,215,204,163,107
75,271,260,269,226,204,154,106
69,257,255,269,214,223,144,98
79,254,265,267,208,227,149,92
77,250,232,259,222,230,137,82
77,227,210,188,196,228,150,77
77,237,223,200,201,224,152,82
77,264,221,196,228,233,152,85
65,277,209,201,229,253,141,76
69,274,207,205,212,255,143,82
68,312,206,207,202,257,121,82
66,313,205,206,193,254,112,77
68,372,214,218,188,248,117,75
67,366,211,204,187,224,112,75
67,390,215,233,193,208,114,70
72,379,213,234,200,210,116,73
69,379,200,225,224,224,121,71
67,350,180,216,212,214,125,69
74,363,175,216,210,208,133,67
72,334,151,168,209,240,136,69
63,323,134,165,214,228,139,67
67,320,118,152,192,212,139,63
67,297,126,152,198,214,132,65
62,294,123,151,202,222,131,76
65,286,127,163,192,217,118,87
66,267,142,186,178,239,124,93
61,257,151,189,166,243,117,98
70,223,147,177,147,245,111,106
72,212,161,195,153,260,151,101
67,222,160,189,157,260,168,90
65,232,169,185,200,258,214,87
69,246,165,215,218,272,220,84
62,260,189,275,246,274,219,72
59,266,198,277,264,282,213,68
61,261,192,269,258,273,209,67
60,245,165,257,235,276,182,64
62,226,175,231,234,267,184,61
58,204,150,161,201,273,184,68
60,170,123,134,182,249,152,76
58,186,127,135,177,250,143,82
59,192,109,104,154,243,102,79
53,201,101,112,142,238,106,80
51,205,111,130,156,224,120,73
54,203,151,158,176,211,125,63
55,189,150,155,185,222,133,72
54,203,151,161,188,237,142,83
54,207,162,180,200,277,150,89
66,207,175,192,203,313,135,93
71,218,143,187,183,337,138,98
71,240,201,248,199,319,127,88
75,233,201,249,224,299,122,78
74,218,187,246,211,269,102,84
63,208,168,230,205,236,104,80
72,194,187,239,198,260,108,92
71,169,125,177,179,263,109,96
68,162,129,177,142,271,105,97
74,201,129,159,134,294,104,98
82,220,162,179,165,286,110,97
74,248,167,166,195,258,105,82
78,275,170,167,185,266,103,83
79,271,168,174,197,267,110,88
74,275,169,171,209,250,107,76
74,305,154,161,188,259,111,75
73,312,125,138,160,308,111,90
73,298,145,138,176,326,126,86
73,296,149,140,182,332,128,83
75,299,144,136,175,318,130,84
85,260,133,125,167,318,129,92
81,227,133,143,181,261,124,79
82,217,114,153,190,230,114,77
81,214,109,150,178,249,110,77
80,188,121,162,180,265,123,87
64,184,129,168,176,253,132,86
63,172,126,155,155,238,129,86
61,171,139,156,135,277,129,88
67,198,169,165,158,255,125,90
68,186,160,154,146,250,114,88
65,187,146,145,155,293,99,81
62,229,147,148,156,308,109,82
67,253,157,185,187,280,109,79
59,259,122,171,172,281,107,83
56,276,147,180,194,279,116,76
59,303,160,183,190,275,111,76
63,278,161,186,189,318,111,75
50,253,139,154,159,309,108,74
54,225,149,163,157,306,109,64
68,213,127,155,139,309,101,64
68,177,112,141,142,287,106,66
71,191,122,134,135,235,102,71
75,186,117,111,155,260,98,74
74,181,110,101,155,251,94,72
74,172,112,99,160,231,85,69
83,179,140,119,166,252,84,69
81,164,130,120,188,259,94,65
83,171,143,121,173,263,95,71
88,185,149,115,167,273,102,70
78,178,146,110,164,292,110,69
74,174,132,123,159,283,111,68
90,187,139,124,134,291,115,82
91,189,129,124,142,271,132,77
89,175,115,123,143,273,127,80
92,184,114,133,141,272,126,79
89,168,101,107,131,252,135,82
69,145,84,101,131,257,129,69
63,144,83,127,133,285,120,69
66,150,86,128,140,280,129,65
61,145,105,136,151,295,131,67
57,149,102,140,160,292,119,61
58,165,102,147,159,271,119,62
60,153,93,123,160,258,115,70
53,154,89,124,158,268,106,75
63,161,74,107,160,277,107,77
76,174,85,101,168,287,112,77
78,175,89,88,165,305,106,73
78,174,92,89,156,288,104,61
80,166,96,86,153,285,111,62
104,181,105,93,159,260,114,72
101,173,101,94,154,257,115,70
100,175,111,103,163,260,128,74
100,176,104,100,155,266,134,76
101,198,110,110,158,252,137,70
74,187,104,106,131,228,129,58
69,184,101,111,120,220,121,63
69,175,89,113,126,195,101,59
68,188,92,109,143,207,98,64
77,172,81,92,140,208,83,71
77,155,66,94,143,226,114,77
86,163,73,87,160,248,117,76
84,160,82,85,158,234,117,76
93,148,91,104,153,212,113,71
84,148,93,106,151,225,120,67
82,148,92,96,147,209,93,66
73,134,83,92,133,196,96,65
72,125,78,89,131,222,98,70
61,117,81,79,119,252,95,75
56,109,86,82,118,255,87,75
50,111,86,80,113,269,80,75
49,123,96,121,119,259,86,77
50,124,97,120,130,243,85,71
48,139,85,117,129,224,80,67
154,153,87,122,131,265,89,65
191,155,87,129,135,261,86,61
213,146,81,98,133,261,74,57
228,151,102,120,114,251,71,59
233,143,98,119,115,238,80,66
184,129,93,112,129,182,71,70
147,142,97,117,139,169,77,65
110,137,97,115,134,176,80,65
76,137,78,100,166,194,80,73
60,137,83,100,168,214,84,78
50,136,81,97,153,223,81,74
53,126,75,84,144,233,80,74
62,128,74,94,141,246,76,74
64,125,59,79,111,237,88,67
65,120,52,77,156,222,90,53
65,126,54,79,172,213,91,58
66,122,50,76,178,194,91,72
62,120,40,55,185,193,104,77
61,144,48,61,186,189,100,85
61,141,54,68,154,193,101,88
64,136,51,79,144,250,116,85
60,133,51,80,148,276,115,80
58,137,53,81,141,264,106,77
61,118,57,79,131,266,103,70
56,118,51,69,128,293,95,66
56,117,49,55,120,254,76,72
52,123,48,53,101,258,80,66
50,124,52,57,110,279,83,68
47,120,46,61,113,281,85,73
45,123,44,62,114,245,86,79
38,120,45,61,121,236,87,73
41,117,48,63,136,205,108,72
42,123,44,59,133,180,108,70
52,116,37,54,128,185,132,69
53,116,37,51,123,188,131,67
64,117,39,50,132,223,136,73
64,111,37,50,123,253,122,78
66,93,36,47,141,260,126,77
60,99,40,52,149,256,103,74
61,97,46,58,174,277,101,69
49,90,47,64,169,240,98,65
50,103,47,61,173,218,96,63
50,114,48,61,156,221,89,64
45,110,59,91,158,230,85,61
58,123,79,110,155,217,98,71
63,124,86,113,158,245,99,69
61,135,90,116,155,269,103,67
57,137,91,118,152,262,103,66
62,148,84,96,156,271,113,68
56,147,84,94,138,266,113,64
50,156,94,107,129,239,110,68
53,159,93,106,139,248,109,66
57,165,91,104,157,257,124,66
53,160,93,105,146,245,117,64
51,146,74,86,153,255,105,56
51,135,53,63,163,283,112,50
51,118,44,62,151,242,105,52
47,98,44,60,137,221,84,49
48,106,45,64,145,235,89,47
44,112,42,62,137,234,95,51
44,109,40,61,124,219,85,51
43,119,48,60,123,232,83,47
46,125,51,63,121,230,92,52
46,120,44,50,116,217,90,55
45,133,50,49,118,210,85,62
47,134,50,44,114,204,85,68
44,123,40,41,111,189,85,73
46,125,37,38,115,194,68,80
45,117,39,46,107,181,69,77
45,93,34,42,100,179,68,69
48,103,31,46,103,164,66,65
48,105,40,52,118,168,70,62
48,98,41,55,115,187,81,54
45,100,43,57,126,191,79,53
54,114,42,56,125,195,83,56
51,111,47,60,128,193,91,55
57,105,41,55,115,193,97,59
55,108,41,53,110,164,90,61
55,106,39,46,101,182,96,65
48,97,39,44,114,185,96,64
47,98,37,40,110,207,96,64
41,107,39,37,113,217,95,59
37,112,37,34,123,222,94,51
42,113,35,36,128,204,83,50
43,116,38,39,122,200,78,49
40,124,37,35,116,180,69,48
38,118,36,35,109,162,64,45
41,110,38,36,110,170,73,49
35,109,36,32,109,183,72,50
32,103,35,36,110,171,72,50
39,91,39,36,110,179,73,51
40,91,39,40,120,191,67,54
43,86,38,40,112,178,60,54
43,91,39,40,106,161,66,54
46,106,39,38,100,162,74,55
41,99,35,40,102,156,71,53
40,99,34,34,92,182,80,51
39,99,34,33,88,190,81,46
39,101,33,34,78,184,80,45
38,89,31,30,67,177,71,41
36,90,28,25,64,169,73,41
36,88,27,28,85,150,66,40
36,89,26,30,88,150,61,48
37,96,33,31,107,156,58,46
34,95,33,31,111,161,61,45
36,103,35,31,113,169,62,46
35,106,35,31,96,182,61,47
40,105,35,28,94,178,59,36
37,95,28,27,76,183,58,35
41,93,32,28,76,179,79,39
41,89,30,27,75,179,100,48
43,89,31,25,69,139,103,49
39,88,29,27,70,150,116,47
39,85,29,28,69,139,146,48
34,82,26,28,69,156,160,49
37,110,26,30,74,147,146,45
38,121,24,29,77,163,144,44
38,123,24,30,82,152,138,46
42,127,22,27,87,148,105,49
42,135,23,28,89,141,60,49
40,116,22,27,87,156,67,43
38,117,24,28,88,148,70,43
34,119,28,26,89,160,67,40
30,116,30,26,82,162,68,43
30,109,31,27,83,159,71,41
34,107,33,30,78,145,63,43
33,93,33,33,86,149,59,43
32,92,31,33,82,145,57,47
31,94,30,36,86,156,60,42
36,94,27,33,80,154,57,41
33,108,26,33,89,171,61,42
32,124,27,29,82,166,63,42
33,133,27,29,80,176,62,39
39,135,26,26,79,188,58,39
37,135,26,26,90,191,67,41
37,126,26,26,87,190,68,41
37,115,25,27,91,210,68,45
40,127,29,25,98,202,74,46
38,154,29,28,117,209,76,55
36,158,31,28,126,218,72,57
35,172,30,27,122,204,79,57
35,203,34,41,118,177,78,53
33,204,33,44,115,184,77,51
29,204,33,43,106,184,74,47
31,204,33,44,86,181,74,43
33,203,36,45,90,187,68,44
32,172,33,35,98,199,69,48
33,152,35,32,92,188,66,49
33,124,38,35,80,184,66,45
31,120,36,36,82,178,66,47
34,109,35,33,80,183,62,49
37,101,34,35,95,190,62,51
41,101,32,35,115,234,63,51
43,103,29,32,118,217,66,49
43,98,31,33,123,219,63,46
40,99,28,32,122,216,65,43
39,99,30,27,112,201,63,38
36,95,28,30,102,156,66,38
36,91,29,34,95,193,73,38
36,91,28,32,89,198,72,38
35,74,31,33,92,202,76,39
33,77,28,33,84,200,76,37
32,107,28,30,70,188,73,38
31,113,25,26,78,139,68,39
37,112,26,26,83,137,76,41
40,125,24,28,91,133,75,47
41,147,25,28,92,137,72,46
42,144,27,32,98,146,69,49
45,151,28,30,102,186,66,48
42,167,28,31,97,180,59,48
41,331,34,31,90,178,59,44
41,322,32,32,109,206,65,46
43,316,30,28,110,213,69,44
40,312,34,30,108,186,70,46
38,311,38,37,112,179,71,47
36,112,35,40,109,175,63,52
35,122,35,42,98,155,63,53
40,131,44,49,92,142,64,56
41,130,42,48,86,149,66,59
42,127,40,44,96,152,63,63
45,135,41,42,108,159,68,59
45,119,43,40,109,156,66,61
41,109,39,39,126,156,63,61
42,102,39,39,128,147,58,56
45,84,37,37,120,173,64,48
46,75,45,44,115,176,66,49
49,98,62,56,105,178,65,45
53,102,65,53,99,201,70,43
53,106,73,69,99,208,71,44
52,119,87,80,98,193,66,51
54,142,95,84,104,192,65,51
58,144,112,89,119,207,75,52
53,142,113,90,114,186,76,50
53,140,108,80,112,180,81,51
54,141,99,77,114,174,84,47
60,119,96,79,105,168,80,46
59,111,104,86,93,152,80,50
61,129,111,92,89,184,78,55
62,130,114,93,100,194,85,57
64,122,115,91,105,191,84,59
56,135,126,125,123,185,86,54
50,124,108,127,147,204,90,51
46,111,104,140,157,201,97,47
56,115,110,146,153,233,89,51
53,139,122,150,159,245,89,55
53,191,110,126,158,247,89,59
53,346,119,127,136,221,75,61
56,550,135,128,132,203,65,61
44,553,145,140,140,163,61,55
49,548,135,137,127,150,62,56
65,535,186,166,144,157,65,60
66,459,203,190,146,154,66,65
65,167,202,200,171,164,63,64
66,159,192,194,170,163,75,69
65,151,193,195,175,173,72,64
52,141,166,182,161,174,71,60
51,125,147,156,157,196,76,53
55,135,136,134,124,185,76,52
59,147,145,132,122,196,69,55
61,149,142,127,116,182,71,62
54,156,112,106,101,172,70,60
56,163,142,132,115,145,69,60
58,170,156,131,124,152,67,59
52,158,146,140,124,138,65,55
52,186,151,144,123,151,68,55
58,182,176,157,127,166,76,59
62,173,166,156,130,192,73,64
56,163,148,153,120,192,74,66
57,179,160,145,128,186,71,65
63,158,177,168,144,197,70,70
65,161,194,179,151,197,58,77
62,160,177,165,144,176,66,73
59,151,180,166,156,193,68,72
61,157,183,164,141,189,67,71
52,156,171,144,130,171,66,59
47,152,134,115,124,172,66,46
53,194,137,107,125,179,60,47
53,253,131,110,110,158,59,45
52,260,140,148,118,158,61,48
48,266,134,158,111,155,55,45
46,269,139,178,112,144,53,48
41,240,137,183,124,173,47,53
45,194,137,182,131,186,47,55
42,165,113,150,133,190,47,55
44,147,110,135,137,205,50,62
47,132,94,110,137,206,55,60
43,135,73,87,132,183,56,56
42,133,70,88,126,170,54,59
40,143,60,82,123,189,58,60
41,139,57,75,123,192,71,57
44,138,54,71,129,191,70,55
45,125,55,70,122,183,75,53
41,98,60,92,129,175,79,46
41,85,64,92,130,152,78,46
38,87,65,95,130,124,66,40
33,87,58,90,131,133,71,46
40,99,63,93,124,134,71,51
42,105,72,84,121,131,74,55
43,105,73,90,121,124,71,50
45,104,70,84,121,118,75,51
45,115,73,84,101,119,75,52
39,148,85,87,97,120,71,48
38,155,78,70,115,121,65,45
36,158,77,65,118,128,67,47
33,164,79,66,120,145,73,47
32,168,78,73,127,139,66,45
33,137,66,67,128,135,68,46
34,123,58,67,105,157,67,45
35,117,52,57,95,158,63,43
39,116,47,56,100,174,57,44
45,92,47,58,91,172,57,46
43,93,39,57,96,186,52,45
41,95,38,54,100,174,51,44
41,93,41,56,97,179,68,50
40,95,39,53,86,169,71,51
32,98,34,45,99,176,73,45
36,106,48,70,103,164,77,49
36,105,48,70,107,155,78,48
36,101,45,69,106,156,73,44
34,106,51,72,112,143,66,43
33,113,53,73,103,132,69,47
32,100,39,46,93,141,66,44
38,101,37,45,80,142,66,46
40,110,39,46,89,132,65,43
41,99,34,44,80,142,65,41
40,86,30,40,80,145,57,35
39,90,33,41,82,142,64,44
34,87,33,39,82,139,63,45
33,83,32,36,73,139,55,44
37,77,29,33,77,151,54,48
38,76,31,28,84,148,58,48
37,71,31,28,79,158,60,44
36,109,35,33,92,172,63,41
35,110,36,34,99,166,68,42
29,114,36,33,98,150,70,41
28,117,35,33,99,162,68,44
34,125,32,35,99,143,63,40
34,98,31,33,89,132,59,41
35,100,32,33,89,166,59,41
34,100,29,33,86,162,62,42
35,102,30,32,80,156,63,41
27,96,29,28,81,170,61,38
28,95,29,28,89,181,60,41
33,92,25,29,89,169,65,39
32,115,28,32,108,183,67,33
34,115,29,36,109,178,68,31
35,119,31,37,107,164,72,36
36,122,30,37,106,156,79,35
34,128,36,43,96,142,70,36
34,107,36,43,75,139,69,39
32,102,34,39,72,150,67,42
35,96,35,39,72,157,65,43
38,89,37,42,73,156,60,47
39,83,36,49,82,179,62,45
42,87,43,64,86,175,66,49
46,87,43,69,90,173,67,47
45,94,42,69,96,167,66,44
42,100,42,69,96,167,66,45
44,101,53,73,95,139,70,50
51,95,64,70,94,138,62,49
50,109,80,84,100,134,67,58
47,114,94,93,108,138,65,57
51,133,136,134,119,139,68,55
52,162,157,173,154,147,67,56
46,176,177,189,168,170,68,53
46,193,191,195,173,168,67,44
48,190,198,205,173,184,67,43
48,176,174,181,163,183,71,44
42,147,153,142,133,191,69,41
39,133,122,115,113,161,83,41
40,104,97,98,119,158,84,40
39,111,78,74,111,146,85,43
37,112,74,73,111,153,79,38
38,109,71,67,103,137,77,40
45,110,72,74,101,140,61,39
46,115,76,97,86,149,56,41
50,106,83,114,98,144,62,42
49,106,87,116,103,152,69,45
50,117,95,126,113,175,75,55
45,136,166,154,152,183,82,57
50,145,166,150,160,189,86,61
46,144,162,142,152,196,84,59
45,148,163,142,158,184,79,65
44,151,162,137,158,172,80,51
45,143,92,103,122,198,90,54
37,129,98,102,109,206,87,51
42,169,110,101,129,203,85,58
44,173,105,109,123,214,86,52
43,167,117,124,143,203,87,56
47,164,114,125,146,170,76,53
46,160,98,110,143,152,76,51
42,117,79,110,122,140,77,42
44,99,87,117,126,125,74,43
43,100,65,99,120,131,67,38
40,93,63,95,116,128,63,40
50,105,72,96,117,132,63,44
56,109,83,94,122,142,63,43
53,109,80,77,114,148,62,44
51,110,87,74,90,165,64,45
49,122,85,75,93,163,63,43
43,115,82,86,91,163,62,41
33,112,71,81,93,163,65,50
36,113,87,86,92,151,68,48
36,107,81,85,92,126,63,47
40,95,84,86,92,139,64,46
39,107,126,97,105,138,65,46
40,107,126,98,101,133,64,38
36,108,111,90,105,132,63,42
40,113,114,98,104,137,64,45
39,120,117,100,105,126,65,49
37,101,67,76,110,127,64,52
36,103,65,75,109,120,63,51
43,113,69,85,105,123,63,55
41,115,64,74,103,136,65,57
34,102,56,78,105,143,65,54
35,113,65,81,89,152,63,50
36,123,65,78,105,178,64,49
31,122,59,77,101,178,65,47
34,142,69,84,115,169,66,44
38,158,71,78,111,172,63,43
40,157,65,76,118,167,64,41
38,152,71,88,112,144,61,46
40,151,84,101,120,139,60,41
38,133,81,103,109,137,51,40
38,113,86,104,112,147,53,42
40,112,89,108,106,134,49,41
45,108,83,95,97,143,50,43
44,106,75,74,106,152,50,44
45,101,74,85,109,175,56,47
42,119,66,81,110,151,56,46
40,121,59,73,116,155,57,48
35,138,73,93,121,149,52,43
37,139,80,115,130,172,58,41
39,143,87,117,138,170,65,42
39,131,88,124,151,177,67,45
44,131,97,130,152,180,67,46
47,121,95,122,150,182,73,49
48,129,116,110,135,173,70,48
47,133,111,97,138,181,63,49
46,148,114,99,117,180,60,46
40,148,113,98,113,176,61,44
37,144,113,97,111,193,58,38
34,131,90,93,113,192,55,39
38,123,89,104,90,167,55,33
40,107,95,103,94,160,56,36
43,105,100,104,92,159,53,35
45,112,102,103,101,137,49,42
46,114,96,103,94,127,51,42
40,114,91,95,94,124,55,45
41,114,94,92,94,136,57,45
41,109,104,97,101,133,59,48
39,101,114,108,115,133,63,45
42,120,133,124,118,128,71,45
43,125,133,120,121,137,65,43
47,126,132,124,128,128,68,47
47,151,147,132,126,131,77,44
57,161,152,149,119,134,73,44
52,151,154,148,130,131,67,47
57,152,161,159,157,162,71,50
54,157,178,173,155,168,70,46
56,148,165,176,150,167,59,49
51,133,153,174,162,178,73,49
51,134,136,167,174,186,75,45
44,132,129,158,150,158,76,40
44,204,100,138,145,149,75,43
50,197,114,129,148,157,79,39
46,218,127,114,125,149,68,41
46,224,137,114,100,152,63,39
51,229,134,113,112,167,61,51
55,178,130,117,116,190,64,48
49,177,111,109,126,194,57,50
50,169,113,126,152,197,61,54
51,164,110,121,155,195,63,56
49,168,121,125,158,181,70,50
49,165,128,135,157,165,64,53
50,166,126,142,164,162,63,54
51,149,103,118,146,152,55,50
49,141,98,119,134,135,59,48
53,123,90,117,129,144,54,44
46,98,79,101,128,148,63,43
42,91,75,91,105,134,71,47
44,99,82,90,99,132,74,46
49,110,99,96,113,161,73,47
52,115,105,101,109,196,76,52
84,118,105,102,120,190,75,59
91,121,103,97,128,215,70,55
105,125,122,140,148,218,77,59
120,147,150,174,181,221,77,62
142,146,148,170,181,184,71,63
126,155,151,180,178,191,72,58
123,179,171,199,184,171,73,58
229,179,183,187,182,174,66,55
246,168,155,156,143,170,74,54
270,189,154,159,152,178,77,50
311,182,153,156,151,176,75,47
333,161,150,148,147,183,74,46
272,153,115,129,125,169,73,53
298,137,105,116,117,147,64,52
312,98,102,118,105,153,60,50
318,98,116,114,98,151,53,48
302,111,120,117,105,137,55,52
300,119,131,129,126,145,55,44
254,118,129,128,130,157,50,44
195,130,131,126,129,138,49,43
105,128,119,126,132,151,51,47
83,120,111,118,125,155,46,44
64,105,100,113,106,161,43,45
56,114,120,140,114,183,49,45
50,116,124,141,114,189,57,55
44,114,127,146,109,180,60,53
42,111,127,168,107,182,62,51
45,126,149,187,127,180,69,63
49,129,145,173,126,159,67,71
53,122,147,178,132,151,75,67
56,162,157,183,136,157,82,71
67,169,150,158,133,163,88,78
67,172,143,138,130,164,106,68
68,162,132,136,122,158,109,62
71,157,125,126,118,178,101,60
84,119,104,115,116,175,96,69
80,107,90,104,107,164,97,64
92,96,51,84,85,155,72,64
92,106,67,84,94,151,71,69
91,391,72,89,90,135,68,70
80,470,75,79,94,128,68,57
78,489,79,82,99,123,60,54
62,492,82,109,107,124,58,59
62,493,94,131,117,123,57,55
53,330,96,132,117,117,67,61
55,203,98,137,110,118,66,65
55,210,97,146,117,135,67,66
66,403,113,150,119,150,75,64
61,454,95,129,100,167,73,61
63,452,95,130,97,182,66,59
61,454,91,132,99,175,65,60
62,434,93,123,92,166,67,62
55,260,70,94,86,178,59,65
59,143,64,91,96,157,57,68
59,131,67,107,118,144,63,63
56,137,74,109,116,147,62,58
52,117,72,108,127,147,59,58
45,111,68,107,123,114,60,54
36,117,71,106,123,118,60,50
35,117,65,79,110,108,51,49
34,111,56,61,115,100,52,54
35,113,57,68,93,97,51,48
37,114,57,69,98,104,63,49
38,112,53,66,92,102,66,51
35,106,43,59,82,100,70,50
35,92,39,51,71,114,68,42
32,89,32,36,74,116,66,39
30,87,31,30,77,138,58,39
36,84,31,30,78,135,52,42
40,85,31,28,81,134,50,45
41,98,33,32,93,142,57,47
45,104,30,29,99,168,58,50
48,108,33,37,112,159,65,49
45,120,35,36,123,161,71,48
78,130,38,37,120,184,70,44
111,123,37,34,113,178,73,50
145,119,37,37,111,152,77,54
146,117,35,37,102,144,67,57
150,110,36,47,93,148,60,59
135,102,33,47,94,147,59,63
111,109,37,47,104,159,53,61
56,121,42,57,101,165,45,57
61,133,56,61,104,173,61,54
48,261,74,80,105,182,63,50
50,272,90,87,109,164,63,48
49,301,99,107,109,160,65,49
54,368,103,105,114,154,68,49
45,472,100,105,114,145,58,52
45,445,91,89,113,143,58,50
41,441,76,83,105,174,59,50
42,422,62,56,100,161,65,48
36,364,58,56,100,157,64,48
36,217,54,61,98,177,68,45
36,152,46,59,96,178,72,48
35,144,46,60,96,165,71,44
39,136,48,60,91,173,61,46
39,128,37,53,86,185,61,45
39,104,37,38,78,182,58,43
41,89,38,40,75,173,55,44
43,355,36,44,74,163,56,52
37,626,38,47,77,164,64,53
38,713,39,45,73,151,62,54
38,723,37,45,66,123,60,57
40,728,39,45,70,115,56,56
42,643,39,44,83,138,53,57
44,387,39,41,87,142,49,54
50,216,40,42,103,175,52,57
50,199,39,42,107,182,50,62
47,230,48,49,117,206,55,59
44,231,54,50,110,191,60,54
43,227,74,62,109,210,63,53
39,245,82,67,99,185,66,50
45,248,83,69,94,177,78,48
52,205,81,84,92,162,82,50
51,201,78,84,93,183,81,48
50,201,55,76,94,148,78,49
49,136,43,74,95,141,74,45
42,103,43,74,102,145,63,40
36,91,34,48,89,127,53,36
37,84,32,44,83,78,47,36
37,110,37,44,78,87,43,32
39,115,37,40,81,120,70,33
42,122,42,43,74,118,70,34
43,117,42,42,93,166,70,33
43,146,41,42,95,164,73,36
43,349,35,37,96,166,75,37
40,470,34,36,88,152,56,40
40,497,26,23,90,160,59,42
41,500,30,27,94,140,67,45
41,494,33,26,92,147,73,44
46,370,33,25,88,141,98,45
45,199,32,26,99,144,98,42
41,435,34,29,109,144,95,39
40,566,34,42,95,130,93,41
43,575,34,53,106,146,88,47
38,576,34,56,113,144,57,47
36,579,35,62,109,138,51,47
40,401,32,62,101,137,55,49
41,164,32,57,105,130,46,47
40,127,34,51,102,115,47,45
41,129,37,55,121,132,49,45
41,110,37,51,118,129,44,45
44,99,35,53,121,121,41,46
42,103,35,57,123,128,42,46
41,105,31,56,124,122,38,43
42,121,30,51,101,111,35,43
43,134,30,52,104,116,39,43
40,137,40,65,106,138,41,46
43,150,42,67,110,164,49,50
43,150,73,120,115,163,51,50
47,139,81,125,118,164,53,51
50,138,81,125,124,171,54,61
47,155,91,128,143,157,57,57
45,140,96,135,146,134,51,53
43,140,76,96,148,133,51,54
40,141,68,88,147,124,56,57
36,172,70,100,142,123,66,48
38,169,65,93,122,133,66,50
35,169,59,86,109,117,70,52
41,164,58,80,93,134,69,53
40,171,58,84,92,132,65,54
38,135,56,73,86,129,61,59
40,117,41,67,74,114,57,59
40,118,35,54,80,133,51,57
33,124,42,64,83,130,53,55
36,108,48,71,82,142,52,53
36,107,46,66,89,142,44,53
33,112,46,67,92,142,43,53
33,110,49,67,95,149,46,58
35,106,52,79,99,162,51,59
37,112,49,71,107,161,50,61
37,116,51,77,119,156,52,55
42,120,57,86,130,159,55,54
44,124,57,88,120,139,54,54
45,134,54,75,119,117,53,53
41,127,52,73,118,112,55,50
49,155,53,71,143,131,61,58
50,177,54,76,151,131,63,61
52,188,68,91,165,133,66,59
51,186,79,109,170,132,65,57
51,187,80,109,170,156,67,53
43,156,85,113,137,145,62,42
39,122,90,117,128,161,58,37
47,123,83,114,123,173,52,31
48,128,79,112,119,189,55,34
50,130,82,116,119,179,59,47
50,129,81,112,117,180,63,53
54,135,75,114,120,176,62,53
45,124,93,116,116,176,64,52
53,116,95,110,123,168,60,54
55,107,96,108,119,155,57,44
57,109,103,120,125,156,53,38
53,99,107,118,127,142,50,38
54,97,92,108,128,151,53,38
47,93,85,100,118,147,53,43
43,100,80,99,116,162,48,43
42,109,64,81,128,164,52,44
48,165,72,69,113,166,56,47
46,173,71,81,116,151,56,49
50,173,74,82,115,145,55,45
49,169,77,81,116,129,55,45
47,169,82,88,107,150,58,46
45,130,70,84,110,154,58,43
46,115,85,95,100,147,56,48
40,116,82,97,108,146,59,45
42,127,77,96,120,154,64,48
46,135,70,88,112,127,58,46
42,126,68,92,112,118,57,45
39,129,54,81,110,118,68,37
39,128,62,81,100,143,65,39
39,119,65,82,83,147,61,34
42,102,70,91,82,146,62,50
42,97,72,85,82,165,63,52
44,89,65,71,102,190,54,54
43,88,55,68,114,201,71,55
42,107,65,90,123,202,69,55
39,100,66,93,128,199,66,41
45,106,61,92,130,191,67,42
60,116,64,101,123,198,75,52
64,126,89,120,126,186,76,55
64,113,87,110,130,183,92,57
68,128,101,114,134,193,95,61
64,126,111,120,131,204,95,63
49,137,126,124,138,189,89,54
46,137,128,119,139,183,80,50
55,140,133,145,137,171,64,53
46,139,129,136,138,164,60,48
47,146,134,149,141,177,63,49
47,133,138,165,135,172,59,51
45,132,132,163,127,167,52,53
33,140,121,137,120,175,52,49
37,132,113,137,119,179,55,48
47,130,107,136,121,152,53,43
57,128,82,121,123,140,50,40
61,120,63,108,126,133,56,48
61,124,68,109,128,129,58,47
61,132,92,127,126,133,58,53
55,127,86,125,117,122,52,56
68,125,89,115,106,123,56,57
74,121,91,116,102,118,56,52
86,108,90,122,98,118,56,54
89,102,71,114,103,113,68,51
89,97,79,100,110,110,71,53
74,98,74,97,114,122,69,53
66,103,71,96,109,124,65,50
94,225,69,84,103,120,63,52
126,469,66,70,86,116,55,52
129,574,95,138,130,139,61,46
130,581,109,140,128,128,62,45
130,584,119,146,133,136,61,48
104,551,118,146,141,137,67,42
54,381,119,151,142,144,75,41
50,255,90,103,108,135,68,52
47,280,87,102,111,149,73,54
47,278,75,111,125,165,82,53
48,282,78,112,118,166,77,55
47,269,73,105,119,161,74,56
40,214,76,100,114,171,74,44
37,155,77,107,117,165,76,40
42,152,77,94,94,139,66,43
38,141,82,97,101,138,71,49
41,126,87,99,106,160,68,52
47,120,85,97,122,162,69,51
52,147,89,90,121,168,60,62
48,150,97,93,119,171,58,61
48,157,98,127,133,203,59,58
46,170,97,128,134,197,55,58
50,186,108,134,137,196,64,63
49,173,99,138,137,188,70,55
53,164,98,140,141,196,74,54
52,170,114,134,143,174,69,51
54,593,131,151,147,169,80,47
44,686,131,151,142,182,75,50
43,692,129,144,136,178,75,51
40,698,133,149,152,169,80,50
51,702,127,139,144,156,84,55
49,407,119,135,147,149,71,54
54,214,113,130,134,161,72,55
51,191,111,129,142,189,74,54
53,167,111,129,141,192,70,54
49,136,118,155,155,207,68,50
48,133,109,148,143,202,68,51
42,122,113,144,142,170,63,43
53,154,149,168,152,148,60,48
54,161,150,164,149,157,56,51
49,157,150,132,129,141,57,54
55,153,157,133,145,173,55,62
55,166,162,148,153,183,57,62
47,137,133,124,139,179,56,58
49,138,126,128,141,191,63,64
54,139,112,137,145,193,59,60
51,159,114,150,152,173,65,56
59,139,103,142,148,162,65,54
62,134,102,156,160,162,62,56
60,131,99,148,148,150,57,47
59,125,97,135,144,155,55,47
60,113,111,124,134,152,49,44
61,128,123,150,146,154,62,53
57,132,122,141,151,155,65,52
57,130,122,140,151,145,64,52
58,142,138,164,163,137,65,57
70,138,128,170,163,152,72,57
66,124,117,141,147,140,59,49
68,122,115,129,130,147,64,53
65,126,115,139,124,157,66,49
65,115,99,126,107,160,70,51
49,138,78,105,91,140,61,49
54,215,65,98,94,148,61,49
56,233,61,98,91,138,53,45
59,242,67,88,91,117,55,48
56,243,51,66,95,144,63,40
57,236,73,113,98,163,80,39
48,171,95,129,113,155,83,36
48,143,99,136,120,162,85,37
47,120,96,140,130,167,88,38
49,128,127,147,133,177,101,43
47,114,124,125,137,163,93,48
52,110,126,146,137,172,93,50
53,436,139,164,143,190,99,64
59,638,216,196,186,269,101,82
56,892,208,199,190,254,88,87
57,961,212,199,193,253,84,86
57,1132,203,178,185,252,84,89
53,1097,195,170,173,241,78,78
43,994,114,136,124,149,68,61
48,778,113,147,136,133,62,55
48,711,118,154,134,130,70,59
47,393,127,171,152,142,75,55
46,722,134,157,151,163,72,66
51,865,138,150,155,181,76,70
46,1119,129,132,131,185,74,73
47,1156,116,121,136,196,67,71
41,1158,106,87,119,201,57,70
43,944,94,91,129,184,56,60
40,818,73,101,122,167,52,53
42,399,80,110,143,199,60,49
39,228,72,105,133,193,61,47
47,215,73,109,135,173,66,49
48,175,71,111,130,171,66,45
49,163,78,119,146,167,68,48
49,158,77,110,128,129,63,48
48,147,77,110,122,128,59,47
45,137,100,120,117,130,60,51
48,136,112,154,127,131,73,53
48,137,117,147,124,131,71,51
45,132,129,151,127,130,65,52
47,138,132,158,128,122,68,54
49,138,120,159,127,116,76,47
42,134,117,124,112,121,71,50
37,131,119,132,113,146,69,48
42,149,110,141,106,173,78,49
42,140,120,144,119,188,74,51
39,140,121,142,123,192,70,53
40,165,113,142,128,207,62,50
40,167,97,122,103,191,63,50
36,150,88,109,119,171,54,45
36,158,65,89,103,165,62,43
35,158,73,88,103,165,56,43
33,134,72,88,100,140,57,42
34,130,72,87,99,131,57,44
37,130,66,77,80,113,55,43
38,135,69,87,99,112,47,39
38,134,67,97,97,117,44,42
42,144,79,103,99,113,44,44
41,147,80,104,111,127,41,41
37,147,80,101,110,133,48,44
36,137,84,99,109,131,58,54
33,128,73,75,112,133,64,53
30,120,67,78,109,131,68,56
36,128,102,99,124,132,71,60
45,132,108,103,125,128,69,66
45,136,101,96,116,128,67,61
47,146,111,108,117,150,78,63
47,152,120,119,129,178,78,63
46,149,103,108,114,187,77,60
41,147,103,125,116,197,79,53
44,150,108,138,127,200,76,67
42,145,98,129,123,186,62,66
42,135,89,125,119,168,60,62
40,128,83,122,122,151,63,63
37,132,84,112,132,155,64,62
36,123,84,103,121,145,62,44
37,148,88,126,132,133,59,44
37,173,96,115,145,127,63,45
37,179,93,113,131,128,73,45
47,181,88,122,122,118,70,46
47,191,93,136,120,128,70,48
50,166,88,113,103,133,70,49
51,142,85,146,77,132,65,49
54,135,94,160,85,160,59,48
49,144,139,177,79,155,58,50
52,175,147,170,112,155,65,52
48,178,159,175,118,172,68,52
45,184,165,161,125,192,68,52
43,208,179,165,138,186,64,52
51,207,170,195,157,205,66,55
56,185,184,229,168,218,65,52
55,190,182,230,185,211,63,48
58,208,179,224,186,199,63,44
57,197,161,216,183,193,69,46
55,197,141,186,184,184,70,40
46,185,114,152,155,165,63,40
49,191,118,172,152,155,62,44
47,169,103,167,142,187,60,48
50,159,101,165,135,191,61,51
41,154,148,187,139,184,57,53
42,150,152,208,164,187,61,52
41,138,160,203,166,204,60,51
41,135,165,208,171,175,60,53
41,151,164,205,174,171,56,52
40,148,135,165,170,167,60,52
42,154,139,133,159,162,68,54
46,168,157,217,172,178,74,57
50,164,162,221,177,187,74,64
51,156,164,225,182,185,67,68
54,163,166,238,184,205,77,73
54,174,170,251,199,201,74,77
53,194,139,167,189,184,68,75
52,210,147,187,193,165,68,67
50,217,147,187,199,184,70,60
48,223,129,170,190,163,59,53
44,215,106,134,165,173,53,48
41,182,99,133,145,159,58,46
44,169,68,88,130,158,58,45
44,151,68,94,110,127,59,45
44,135,66,92,109,132,62,45
44,135,67,97,109,125,62,43
50,136,88,132,154,122,63,53
47,148,104,138,165,133,78,61
45,144,99,127,162,136,75,60
43,138,98,124,152,131,70,59
49,158,124,153,160,126,71,59
43,163,121,147,125,135,66,52
44,150,107,147,119,139,47,48
43,148,109,155,125,126,46,47
48,155,119,167,131,132,50,62
42,131,89,142,133,129,45,63
44,130,71,116,123,117,49,64
42,130,77,117,119,95,58,60
48,146,75,108,117,98,58,61
43,154,59,93,115,97,66,50
46,162,57,93,105,100,67,51
46,173,73,100,107,112,66,49
43,172,74,106,111,115,63,52
38,157,78,110,117,121,72,51
38,153,90,124,121,120,68,52
41,176,97,141,121,126,68,55
35,209,87,141,121,131,69,52
37,238,84,146,122,184,68,50
53,247,90,155,141,196,72,55
58,243,86,155,142,214,74,51
61,228,88,161,162,212,82,51
70,190,102,193,169,209,78,54
76,336,103,184,172,170,78,55
66,538,97,173,151,154,77,58
64,658,103,172,146,179,75,59
69,675,119,205,149,181,74,58
62,674,106,179,144,188,78,58
54,604,107,174,138,202,73,59
57,431,111,182,145,205,81,59
57,212,117,178,147,161,83,58
43,146,111,132,121,158,83,57
50,147,124,136,130,155,87,64
55,145,128,163,137,129,98,66
51,145,126,159,131,123,93,62
50,135,112,152,129,124,90,67
50,128,93,134,123,133,91,74
42,141,84,137,108,131,95,66
36,162,81,129,112,150,86,66
42,168,82,132,116,156,76,66
42,272,77,128,117,154,73,59
42,313,73,123,122,145,69,46
44,330,63,103,119,137,56,45
44,340,49,63,98,114,55,37
38,354,37,41,88,126,56,42
41,286,37,41,89,129,56,44
42,238,37,37,80,149,52,51
38,203,35,37,82,144,53,53
35,163,35,39,76,145,48,58
36,129,38,43,75,134,48,52
35,119,35,43,65,140,58,54
34,127,34,41,72,138,59,52
38,146,62,64,91,144,58,52
38,154,67,69,99,158,63,47
36,145,65,70,99,150,65,48
38,146,65,71,104,155,59,45
42,160,74,94,107,149,60,41
41,135,55,94,103,151,82,43
53,157,56,94,115,145,82,51
54,163,56,93,128,172,89,52
52,163,62,97,132,163,91,54
50,150,53,79,133,165,90,55
46,153,53,66,127,169,73,53
35,126,52,79,125,172,75,47
38,130,66,91,121,150,72,51
41,159,64,91,121,154,67,50
42,166,64,88,115,146,67,53
44,168,61,84,114,135,63,51
50,179,59,75,113,120,57,53
49,183,44,56,113,124,53,49
44,170,41,50,107,132,65,45
47,164,44,53,129,173,75,39
49,171,50,78,131,181,82,41
45,169,50,82,126,192,88,37
45,164,66,101,119,203,87,39
61,159,75,110,133,212,85,48
57,164,73,110,116,182,82,51
61,159,70,95,123,196,77,59
66,152,65,86,121,193,76,59
67,158,51,62,116,177,74,59
55,196,36,51,96,162,66,58
56,212,41,58,102,166,63,60
54,225,47,70,95,145,73,52
47,226,51,82,103,131,75,52
49,215,51,84,105,132,78,63
51,180,51,82,108,135,86,60
52,161,66,90,112,122,84,58
52,159,67,96,109,108,75,58
76,158,68,93,117,128,72,57
85,157,91,104,124,128,75,42
87,158,116,134,162,135,67,39
91,179,130,135,158,132,72,41
92,179,138,143,179,158,627,46
72,202,141,145,172,157,882,54
66,229,132,142,176,153,936,57
61,239,111,118,152,155,956,58
58,214,84,114,147,163,1003,53
53,206,68,92,138,145,1185,48
53,184,61,84,133,142,1297,45
51,154,49,75,127,184,1288,49
48,155,51,72,132,177,1287,49
46,159,48,56,131,185,1280,52
46,163,44,53,113,181,969,56
56,182,54,72,110,187,559,53
55,189,65,81,124,158,503,49
65,171,71,84,109,147,475,55
70,172,73,89,122,159,392,63
74,168,81,94,130,185,264,60
73,152,78,89,138,195,180,62
75,158,72,84,134,208,144,66
77,211,68,77,138,221,118,63
90,236,89,116,143,207,110,62
93,269,97,142,150,196,106,62
93,274,98,148,142,176,99,65
93,276,104,151,142,159,86,69
86,249,102,153,155,144,85,69
69,233,90,128,150,158,104,64
58,210,83,101,140,156,107,65
68,204,74,83,147,166,114,61
62,193,66,73,137,168,118,55
66,175,65,69,127,240,125,66
64,174,56,61,122,229,103,65
73,156,42,46,117,230,97,71
57,160,44,59,120,231,95,74
60,161,41,62,126,231,107,77
57,161,42,63,126,171,100,70
67,369,40,64,146,196,107,83
63,487,40,65,151,201,107,76
65,493,37,54,148,199,104,75
63,494,38,53,143,195,81,73
66,504,38,53,147,184,90,74
52,385,38,47,122,152,77,61
66,213,49,68,122,134,82,62
64,185,56,91,121,126,81,58
68,176,54,87,118,137,80,58
63,164,57,88,100,143,77,53
63,137,58,96,113,168,92,58
44,137,57,106,116,165,93,61
49,173,61,102,119,161,98,63
42,171,61,103,121,159,101,63
41,167,58,102,126,174,99,63
42,199,58,97,116,163,88,59
48,214,57,83,130,172,95,56
40,189,45,63,121,176,151,55
42,195,47,62,119,170,268,58
48,188,44,62,116,142,281,56
48,160,45,60,110,137,281,59
41,135,33,42,83,138,301,56
42,131,33,42,89,155,295,53
39,121,35,44,85,150,212,46
33,109,36,42,74,157,195,44
30,127,35,43,76,180,209,42
31,147,35,39,69,205,206,45
32,154,33,37,66,198,177,46
31,162,32,33,66,196,158,44
32,171,29,32,76,189,156,46
32,152,28,34,76,162,136,42
32,133,30,45,79,120,89,49
32,126,28,45,79,97,87,48
33,118,27,43,82,105,84,50
40,108,29,44,105,130,91,55
42,111,28,42,108,149,115,67
45,124,27,34,110,170,140,63
48,133,30,41,109,181,144,62
50,139,30,45,109,191,143,63
43,148,30,45,82,203,138,64
44,146,33,49,79,195,132,50
44,143,41,57,71,183,165,48
41,144,47,57,72,180,241,49
40,253,57,71,84,173,305,49
45,255,70,98,105,139,307,44
48,262,69,100,117,134,325,50
46,269,69,99,131,142,314,54
48,271,73,105,146,149,268,57
50,172,88,108,151,174,222,56
49,167,79,85,138,179,256,54
54,160,81,83,132,181,265,50
53,141,78,80,124,185,246,46
52,146,72,69,121,173,261,43
50,151,43,48,114,140,269,44
48,153,42,58,117,139,236,43
33,153,38,57,116,130,191,38
34,152,37,54,108,138,223,38
40,135,30,52,93,140,293,39
40,127,28,51,86,143,269,37
41,118,24,39,78,138,271,38
42,122,28,38,83,146,275,39
41,120,28,37,87,117,261,44
32,121,29,37,95,116,155,44
33,143,30,38,102,115,144,45
33,143,34,38,114,120,137,48
32,147,32,35,109,118,153,49
37,170,37,37,111,115,249,52
41,174,37,38,103,123,271,50
39,156,35,37,90,126,317,50
40,162,36,38,75,142,324,49
43,154,35,39,70,142,313,54
39,132,31,39,64,150,329,48
38,127,31,37,64,139,408,51
38,129,36,38,74,136,387,51
38,136,32,35,83,121,430,47
36,137,33,36,92,142,456,42
41,138,34,36,94,143,396,40
41,142,35,37,92,159,291,36
43,146,33,45,87,162,279,39
44,145,35,53,96,169,222,42
43,149,35,53,94,154,172,40
38,149,34,55,94,150,192,44
36,149,34,55,96,150,231,45
33,142,34,50,97,141,260,42
31,130,31,43,77,135,273,44
32,131,37,48,80,131,276,47
32,127,36,46,88,139,266,47
36,133,38,47,89,132,238,51
36,142,35,43,96,132,288,51
37,149,37,40,101,123,295,50
37,143,33,32,97,123,323,49
41,150,35,33,88,121,355,49
35,142,30,31,89,114,377,44
35,129,31,28,78,113,319,47
32,136,30,33,76,115,309,52
32,141,28,38,73,115,270,50
28,131,27,34,69,94,240,48
30,138,28,35,69,114,203,46
33,141,27,40,77,118,204,43
32,130,27,37,73,121,165,34
35,121,24,31,70,117,167,35
36,123,24,33,74,121,122,37
34,149,24,35,90,138,107,35
37,189,26,30,101,149,80,40
38,201,26,30,104,167,83,40
36,203,28,32,112,172,70,41
34,212,29,33,113,170,69,39
34,188,29,29,98,140,61,42
29,150,31,33,91,136,70,41
32,132,30,35,89,114,63,42
32,128,32,36,79,101,63,39
39,120,31,35,88,116,70,45
40,137,30,37,89,125,72,45
42,130,28,34,80,118,85,43
38,209,28,31,79,133,94,41
37,280,25,32,82,139,98,43
30,285,28,31,68,132,93,35
32,283,27,31,66,126,93,38
30,291,27,33,67,130,81,35
30,242,29,35,67,114,74,35
31,162,28,32,65,114,69,35
32,161,28,34,76,111,77,36
32,154,28,32,77,113,76,34
30,146,25,30,79,118,105,37
35,157,23,29,82,151,119,39
35,174,21,33,84,147,127,41
34,169,18,29,76,148,131,47
31,202,22,33,72,153,136,47
32,204,22,32,72,149,116,49
33,199,24,31,76,111,185,47
33,198,26,27,77,109,193,47
34,190,26,32,78,106,197,41
33,151,26,32,84,107,194,39
31,146,26,33,80,99,189,35
30,212,25,36,74,137,106,36
38,736,25,39,76,149,84,38
38,1127,29,36,75,156,60,42
39,1202,30,33,72,146,65,41
41,1203,32,34,74,145,73,48
37,1198,34,33,77,124,75,48
26,1129,34,30,74,114,73,44
32,882,30,29,72,122,69,42
32,845,30,28,76,136,62,44
31,848,29,29,83,146,55,40
33,839,27,30,77,135,49,40
34,603,25,28,76,140,47,42
28,366,27,29,81,129,51,42
25,144,24,29,78,126,54,38
26,117,23,28,69,117,60,37
24,119,22,24,70,118,63,41
25,605,24,25,70,116,63,41
28,762,24,27,70,126,64,44
33,786,26,29,69,122,62,46
34,789,24,27,85,119,58,44
33,796,24,31,100,138,67,44
32,534,23,30,100,151,67,42
32,264,23,28,106,161,73,39
28,187,22,28,109,163,89,41
29,175,23,31,95,185,106,41
28,137,25,30,81,183,130,41
31,121,24,29,84,168,139,44
30,119,26,28,73,147,149,46
36,115,26,28,70,143,160,43
37,118,26,27,74,119,172,42
44,118,25,24,69,97,152,42
47,117,26,28,75,102,147,42
47,114,24,31,75,104,132,36
43,112,25,29,77,109,113,39
44,111,25,32,75,109,77,40
38,166,24,32,79,110,79,40
36,273,25,31,73,122,74,38
36,380,26,32,74,121,99,40
36,399,30,37,72,113,104,38
30,401,29,34,68,116,109,40
33,385,30,35,68,125,111,40
29,321,31,35,67,109,114,40
28,181,31,31,62,109,96,39
31,138,26,27,60,137,89,40
32,130,26,29,67,130,85,41
27,111,25,33,79,128,85,39
29,111,24,32,85,131,81,36
34,115,23,32,90,134,83,37
37,111,26,32,96,114,83,41
37,119,27,30,93,116,104,39
39,134,27,28,84,126,102,43
38,137,26,29,79,126,103,43
38,204,32,33,104,130,106,46
33,223,31,31,99,135,104,44
32,223,31,32,98,138,87,44
40,224,33,34,102,133,86,41
43,219,34,35,106,136,84,43
43,162,32,36,79,125,81,47
42,144,32,37,85,128,80,46
46,154,44,47,94,139,73,46
39,151,51,59,98,129,77,47
38,151,51,58,100,143,76,49
43,147,53,58,105,150,83,45
45,134,55,61,115,141,103,45
44,116,46,54,115,138,102,45
48,108,52,50,108,143,95,42
51,114,66,75,103,161,94,42
46,131,94,116,114,164,92,44
48,146,124,134,118,179,90,47
49,161,142,154,116,175,100,46
43,178,158,168,118,180,117,47
43,214,162,161,124,154,116,53
42,387,155,150,114,148,111,48
40,537,139,141,101,143,92,46
39,571,121,120,102,142,90,44
41,582,102,100,98,132,102,44
36,579,88,95,89,130,116,33
36,484,72,70,91,140,120,34
41,305,68,73,92,121,137,34
40,276,70,71,89,121,145,39
37,379,58,77,92,128,126,40
38,547,59,78,94,121,115,41
37,551,64,82,91,111,114,47
35,551,55,70,82,115,95,46
36,529,56,72,83,105,73,44
40,442,65,77,94,102,67,49
43,171,67,83,92,134,76,52
40,134,61,82,97,137,72,46
38,139,61,78,101,133,69,49
38,132,56,77,98,136,67,52
43,129,45,62,90,139,66,47
44,123,45,51,89,122,62,44
46,172,45,48,79,129,60,45
45,197,45,65,83,138,67,43
44,210,44,62,83,141,70,40
44,203,43,63,79,138,73,42
42,202,34,62,82,140,67,42
42,167,34,62,87,134,68,42
41,128,29,47,82,133,61,42
45,110,30,47,82,134,57,40
37,122,31,47,81,143,61,40
35,116,31,49,77,131,57,41
36,122,33,48,71,130,57,41
34,135,35,60,82,131,68,42
33,133,33,59,76,127,68,47
33,133,34,59,83,119,64,47
36,145,38,62,88,113,64,45
33,133,35,59,85,127,65,43
45,126,34,45,72,122,57,42
43,130,33,44,72,121,54,37
43,125,32,42,64,121,56,35
41,131,31,40,55,122,57,36
45,138,34,42,68,112,64,42
35,137,33,53,70,109,70,43
34,134,34,53,75,119,72,43
31,136,33,53,74,135,73,42
32,126,40,60,79,132,76,40
37,123,39,58,84,135,71,37
37,136,40,49,92,143,62,37
38,141,45,53,89,139,60,39
39,145,45,63,97,129,54,38
42,140,43,59,99,139,53,42
34,139,42,57,88,149,53,42
34,131,41,56,81,141,52,42
34,127,36,55,83,139,59,42
44,125,41,53,75,125,61,44
40,127,35,44,72,121,62,40
42,131,35,46,75,102,70,40
43,124,34,49,79,118,69,37
43,123,33,46,79,117,65,35
34,124,28,37,79,124,65,34
37,121,27,39,75,132,62,33
35,125,26,38,73,146,51,33
32,127,28,34,67,134,49,34
29,126,29,44,67,133,47,35
28,145,29,43,76,145,51,32
25,154,29,43,80,140,52,35
28,188,28,43,88,125,57,39
29,207,25,41,100,129,60,41
30,205,24,32,104,131,61,41
34,192,28,32,97,125,56,43
33,192,29,33,100,126,53,41
32,150,28,33,93,127,49,39
31,135,31,34,84,130,47,39
32,140,31,35,80,128,60,41
28,134,27,32,76,118,63,41
32,121,26,31,69,109,66,45
31,139,27,33,73,107,67,45
31,130,25,31,69,107,77,44
32,133,24,30,73,111,63,41
32,138,25,29,76,109,64,41
30,152,28,29,78,127,65,37
30,140,28,27,77,178,63,38
31,132,28,26,76,175,60,38
30,140,34,34,72,175,61,38
31,146,33,34,72,176,61,38
31,134,29,32,73,168,63,41
31,133,29,32,72,120,63,39
37,141,29,33,77,117,61,38
38,130,24,25,87,118,63,44
37,135,30,37,93,117,63,46
35,145,31,39,97,114,59,44
37,153,33,39,100,106,58,43
32,149,38,46,103,108,54,45
33,158,40,51,96,98,62,42
35,147,38,44,90,100,65,43
34,151,40,44,84,101,64,44
36,148,40,45,84,110,63,49
35,274,38,39,74,122,66,46
33,319,35,35,72,148,61,45
37,330,38,36,73,155,58,47
39,335,37,36,70,158,62,46
36,335,35,37,67,149,66,40
38,244,34,38,73,137,64,40
38,167,35,37,73,118,62,37
34,144,30,34,71,111,57,33
32,118,29,34,70,126,57,33
30,113,29,34,74,128,60,32
26,313,32,33,78,150,63,52
26,593,56,34,81,188,71,66
26,945,66,33,79,202,78,71
27,1170,70,31,77,203,80,70
30,1264,71,31,69,208,82,71
31,1235,69,32,63,198,82,60
29,1130,51,30,66,160,80,43
28,864,35,29,74,140,76,34
26,524,25,32,76,114,70,35
24,218,24,31,75,105,61,39
24,187,24,26,72,95,59,37
26,176,23,29,70,96,56,37
29,150,24,31,69,95,52,38
30,137,26,30,71,112,56,41
30,135,24,29,75,125,66,37
30,139,27,31,73,129,69,38
28,147,25,30,69,126,66,36
27,159,25,27,65,127,66,37
27,158,25,27,73,123,78,33
28,165,25,27,71,115,102,37
27,172,25,30,71,113,133,41
31,170,25,28,72,113,199,46
30,180,26,28,74,123,205,46
31,178,26,30,67,117,201,46
30,169,27,29,67,103,187,41
32,163,25,26,68,104,167,38
31,156,24,25,63,114,83,33
29,135,25,25,64,97,69,30
31,140,24,22,72,117,66,33
31,142,23,22,74,115,67,33
29,154,23,24,75,116,60,33
26,215,24,27,98,104,58,34
26,230,21,28,101,111,58,37
25,251,22,26,98,90,56,36
25,270,22,26,104,110,55,37
25,260,21,27,103,116,55,35
25,214,21,27,83,114,56,35
26,195,22,28,78,114,57,33
25,172,22,32,77,117,61,32
29,142,21,33,72,114,61,31
36,149,23,34,74,113,61,33
37,160,23,33,76,130,63,34
37,177,24,31,82,136,62,36
39,173,25,28,76,135,65,38
37,178,26,26,72,125,71,38
30,179,27,26,73,121,84,36
31,164,26,26,69,114,99,39
46,152,28,28,70,115,103,37
45,149,27,34,76,114,133,37
45,145,30,41,75,125,151,40
45,138,32,41,76,120,146,43
44,188,33,42,102,109,132,39
30,184,30,40,97,99,128,37
32,190,31,37,93,104,97,41
34,187,32,32,92,93,65,40
35,184,29,31,96,101,62,41
40,135,27,31,77,139,60,47
39,138,29,34,77,147,66,48
37,138,28,33,79,146,65,46
35,139,26,31,79,143,58,44
33,142,24,28,78,155,58,40
27,145,26,30,74,117,57,32
26,140,27,27,72,116,58,33
25,134,29,27,72,112,53,32
25,136,28,27,80,120,52,32
26,139,28,26,72,108,49,33
26,136,26,22,71,117,54,36
27,138,24,24,69,107,60,35
29,137,23,24,72,109,76,36
28,129,23,28,68,103,81,37
30,122,23,29,71,94,84,37
31,121,24,32,73,105,86,35
29,123,22,29,74,110,80,35
28,122,22,30,72,107,72,34
28,122,21,31,65,106,67,32
27,121,22,32,60,129,81,32
25,125,21,29,53,130,76,31
23,121,22,31,61,129,78,31
23,125,21,30,61,129,74,31
23,132,21,25,70,135,78,31
20,140,22,24,71,111,61,32
23,142,23,28,77,104,66,35
24,137,26,29,72,101,61,36
24,140,25,28,87,101,60,35
23,131,25,28,83,91,55,35
30,122,23,28,82,92,63,33
29,114,21,25,78,84,75,31
30,116,18,22,84,95,79,32
29,104,21,25,78,99,78,32
30,120,21,26,75,108,82,32
23,127,23,26,79,111,76,34
25,134,24,26,83,107,61,33
21,133,25,27,78,95,51,30
22,133,24,24,69,89,48,29
22,116,26,26,72,89,48,29
24,113,25,27,77,98,54,32
22,110,24,27,77,105,58,34
23,132,26,27,74,107,69,34
28,131,25,28,75,109,70,35
29,141,23,25,73,113,65,37
28,137,24,22,68,108,60,34
30,135,25,22,62,118,60,37
30,120,23,23,67,122,61,39
28,119,25,23,68,132,70,41
28,123,26,27,70,132,76,39
29,124,27,30,63,125,79,39
32,121,28,33,73,130,76,39
34,120,28,33,77,133,71,37
39,133,29,34,73,125,67,36
38,122,29,33,73,121,61,34
38,122,27,32,76,124,60,38
35,126,25,33,81,113,59,36
35,130,25,35,76,110,53,40
29,128,24,34,85,120,49,45
29,229,25,34,87,138,53,49
31,275,28,37,91,155,65,48
42,308,31,35,88,161,81,48
43,332,33,36,85,159,84,45
44,356,36,45,77,149,85,41
44,316,48,59,83,144,84,37
45,279,58,78,77,125,78,34
35,244,57,81,72,111,61,32
35,225,62,86,84,114,70,42
35,192,72,90,92,126,84,45
41,169,75,97,106,121,88,50
39,169,69,91,107,123,83,51
38,164,71,91,111,138,92,52
36,158,65,85,111,138,86,46
37,159,53,78,105,130,70,44
34,163,39,58,91,132,67,38
34,166,34,41,95,128,71,38
34,174,31,41,96,122,62,35
36,156,32,43,92,131,60,38
33,142,27,40,93,132,61,36
30,134,26,39,87,129,63,36
30,162,27,40,83,135,62,39
32,164,27,41,81,142,60,44
32,170,24,40,74,126,59,41
32,172,26,40,78,129,60,40
35,173,28,40,78,122,56,42
35,151,26,36,82,119,54,39
35,169,26,30,80,102,61,36
35,164,27,26,85,106,60,37
37,162,27,26,80,108,58,37
37,164,33,33,83,110,56,37
36,152,35,36,79,113,61,38
35,119,35,36,80,130,61,39
40,120,35,37,77,140,64,38
41,121,35,41,78,131,63,39
40,146,35,48,68,145,64,43
40,191,37,48,73,149,61,41
43,217,38,48,71,142,61,48
37,229,38,52,72,134,62,48
33,237,39,54,73,136,67,47
35,242,38,46,101,123,74,54
43,234,35,48,102,125,86,56
41,219,35,51,110,122,81,53
46,221,48,65,112,132,90,55
47,228,47,62,121,132,88,56
45,251,55,76,115,150,90,47
41,320,75,106,123,147,79,47
44,341,82,107,117,158,79,43
41,386,79,101,118,163,72,47
41,425,81,104,108,174,71,48
43,445,75,104,100,156,60,49
41,395,65,95,88,171,69,54
39,383,67,97,98,167,70,54
37,343,66,95,93,168,63,51
38,284,67,97,98,165,65,52
34,347,72,95,100,169,78,52
43,478,67,77,102,144,70,46
40,546,65,74,94,132,68,48
43,542,62,81,98,117,69,45
42,542,61,80,98,139,71,42
46,466,62,86,98,157,64,39
37,314,59,93,92,174,62,44
52,150,54,99,94,183,67,51
50,135,57,96,89,188,71,56
50,131,70,114,92,178,68,56
51,139,78,111,101,177,71,60
51,150,78,108,107,165,72,64
43,144,81,104,106,169,72,57
45,140,86,104,108,178,83,59
48,145,87,90,106,183,87,60
47,140,79,85,100,169,87,58
48,127,79,78,100,177,90,53
44,135,85,127,111,185,90,54
45,143,83,131,109,177,77,47
44,139,77,133,109,167,72,48
41,154,75,135,104,163,72,46
37,169,83,144,97,165,70,43
37,172,98,114,91,146,65,40
37,167,103,112,95,141,73,41
39,171,102,114,89,161,79,41
38,161,101,110,82,166,74,39
41,155,98,97,82,153,72,41
42,174,73,96,76,166,78,43
46,190,103,136,107,160,74,42
42,192,104,128,114,148,65,42
44,199,105,129,120,147,66,49
47,195,102,133,120,146,65,49
45,194,108,127,123,144,63,48
42,181,68,76,94,151,70,48
43,182,61,71,92,143,79,49
43,176,59,68,90,143,81,49
38,176,57,59,90,149,89,51
47,157,41,52,84,157,89,50
48,149,38,62,82,162,82,51
49,138,49,73,80,163,80,51
49,135,57,80,94,169,76,44
50,139,59,86,103,167,69,43
45,142,79,94,104,176,65,52
46,164,98,110,121,171,77,52
45,185,94,108,124,163,80,54
45,191,90,103,113,157,84,55
46,199,89,98,117,154,86,59
44,198,72,89,119,116,90,50
42,185,59,72,111,107,85,50
39,170,57,71,107,108,78,46
41,169,61,73,108,107,73,46
39,186,62,74,108,110,80,42
39,196,64,80,106,111,82,53
37,207,49,72,104,119,79,53
41,208,50,61,107,123,83,54
40,205,47,78,104,123,88,55
46,187,55,81,105,128,84,56
47,183,53,73,107,133,81,47
49,165,52,69,101,131,81,50
51,166,52,75,94,131,84,52
50,174,50,61,100,136,88,59
51,191,49,68,87,129,83,62
51,185,54,83,84,125,85,69
51,199,70,97,101,129,81,77
50,197,77,107,104,128,83,82
52,180,78,108,101,120,69,81
59,159,75,108,106,119,69,82
57,152,71,100,113,127,80,81
60,142,60,97,105,135,84,73
56,129,51,85,104,123,77,66
53,140,45,75,99,122,83,62
43,141,43,65,102,131,84,60
43,147,42,62,105,131,70,60
40,167,42,54,107,122,66,57
45,195,57,61,130,132,77,56
46,198,59,64,135,133,77,54
44,210,59,63,130,131,78,52
44,213,59,62,123,136,75,56
43,199,56,56,117,133,77,59
37,180,40,70,105,126,71,57
38,179,38,70,116,144,65,57
43,161,36,72,113,138,62,58
43,151,36,71,109,121,62,57
41,152,31,69,114,124,60,57
42,149,29,45,100,129,53,59
40,157,32,44,91,125,59,77
33,167,32,40,105,149,68,78
33,194,33,40,121,158,72,72
36,207,35,43,125,156,77,77
44,208,35,42,130,164,76,78
46,194,34,43,126,154,76,62
46,202,39,58,117,134,77,64
49,183,41,66,105,149,74,64
51,175,41,67,100,155,72,59
46,179,45,74,98,176,92,75
44,188,43,76,108,444,93,73
48,175,43,67,110,630,87,72
55,195,55,70,113,642,99,72
54,224,56,76,110,640,99,75
57,224,62,102,121,633,83,60
59,223,66,103,119,489,113,61
60,229,65,106,143,197,120,60
56,211,57,103,137,137,115,70
58,231,58,101,147,136,115,70
58,271,48,71,153,128,114,72
58,276,43,67,148,96,84,73
55,280,47,79,144,96,80,71
51,283,46,77,147,88,73,66
50,236,50,80,138,89,79,67
48,191,50,81,122,95,95,70
46,174,49,82,120,100,95,68
42,156,47,71,96,105,93,68
44,162,46,68,98,103,94,67
42,189,50,83,103,93,86,62
38,187,52,79,108,84,68,54
38,198,56,78,113,88,77,60
42,200,55,78,114,82,76,60
41,191,51,78,113,76,77,52
38,166,39,53,102,74,76,53
41,155,46,59,108,84,83,51
43,161,45,75,109,84,67,41
43,172,51,76,116,89,71,44
47,176,51,74,124,100,74,54
49,180,53,79,130,112,75,51
53,198,47,76,125,116,71,55
51,201,51,71,119,124,75,55
49,192,46,70,132,128,73,55
48,199,47,72,122,130,73,55
52,198,46,65,119,125,74,55
49,182,42,63,114,118,70,52
51,174,33,53,126,131,71,54
58,170,39,53,107,122,73,63
55,155,36,51,113,118,69,57
53,153,40,56,118,128,72,56
52,152,42,61,128,150,77,60
49,142,41,59,128,142,81,60
44,148,33,50,134,173,88,53
45,142,36,50,131,176,86,52
45,139,36,62,137,180,85,52
43,138,36,60,123,170,82,48
46,148,37,59,122,174,84,46
43,165,37,59,120,152,78,51
42,195,39,59,122,178,84,53
44,199,39,44,154,205,95,52
54,194,36,38,158,204,94,53
54,188,38,45,159,198,86,54
52,170,36,46,158,198,84,44
49,137,31,45,166,181,96,43
49,126,26,42,135,135,84,49
37,141,28,41,132,130,82,46
