120,356,239,89,78,44,124,75
99,356,269,93,79,43,131,75
109,318,252,103,80,40,115,85
106,347,252,105,70,37,105,86
108,345,268,104,73,36,110,95
107,343,271,105,78,38,106,88
114,326,243,88,74,42,137,90
100,334,251,78,75,43,137,83
90,271,261,77,74,46,169,78
83,280,272,75,70,47,158,68
83,275,265,73,64,46,166,71
81,323,266,101,72,45,141,79
91,294,264,101,64,43,138,76
84,296,259,104,65,43,101,74
106,318,250,107,69,41,125,82
110,315,234,106,69,38,113,84
107,332,241,84,72,35,113,74
104,396,234,84,93,38,112,75
102,458,238,86,93,38,114,81
91,465,212,85,99,40,95,70
106,482,207,80,105,40,95,66
109,461,210,97,108,41,85,64
105,427,195,101,101,41,94,88
110,368,183,95,102,38,114,93
102,340,204,93,97,34,122,93
81,321,222,100,93,38,121,96
83,285,219,95,96,37,127,101
80,261,236,100,92,34,119,82
69,237,232,102,90,36,99,71
74,216,213,99,85,36,87,72
93,184,246,95,82,36,102,78
91,193,243,80,62,37,125,74
96,235,246,83,63,39,126,74
100,286,248,89,68,42,127,75
102,344,260,100,81,45,125,74
90,526,221,95,106,45,142,65
97,544,201,97,120,47,123,58
95,527,201,91,122,46,134,57
98,522,216,85,120,43,167,58
94,504,278,84,116,43,167,61
87,359,327,100,92,39,142,62
86,340,351,107,72,32,144,67
89,349,360,110,61,38,169,70
84,330,351,116,67,44,137,69
83,300,300,108,66,42,141,74
90,281,251,109,71,44,148,77
84,321,238,109,80,44,148,77
101,334,220,117,95,42,142,77
106,346,221,116,110,40,146,82
115,436,230,117,112,49,142,78
116,539,220,104,118,51,138,74
111,588,289,100,118,55,147,67
108,620,327,88,115,55,123,66
106,642,358,93,97,58,116,66
98,616,355,91,100,51,115,63
97,546,365,100,92,50,134,74
111,498,311,104,90,46,125,81
110,509,276,109,100,44,117,83
106,485,241,100,98,36,117,76
102,468,231,108,97,38,126,77
102,464,226,108,101,34,131,68
89,450,248,113,108,47,140,64
103,409,243,125,96,51,146,63
112,411,243,130,108,55,144,67
119,393,246,128,110,57,147,65
114,358,283,127,113,62,135,68
111,340,321,127,108,59,127,73
89,320,340,118,106,57,119,71
95,299,454,148,99,62,143,76
101,325,459,161,108,60,135,86
109,380,470,162,105,59,141,84
117,403,457,166,104,62,176,80
125,522,466,166,109,63,184,85
118,528,435,161,120,58,170,90
123,529,430,150,112,60,172,85
117,540,403,156,113,60,177,85
111,549,426,163,114,52,144,87
94,424,431,162,111,64,179,97
98,429,361,151,106,64,179,93
88,434,369,168,107,60,186,96
91,364,363,163,123,60,171,97
87,294,293,142,121,62,165,94
90,289,308,156,129,57,122,82
154,290,316,154,127,57,125,82
157,248,315,136,123,59,162,73
156,252,310,131,102,57,157,69
158,273,347,138,106,58,162,75
172,283,298,118,90,49,188,79
118,263,346,113,77,48,223,75
104,260,354,106,74,49,192,79
116,266,371,109,73,49,201,81
117,276,346,107,68,48,198,80
105,306,337,109,85,46,172,76
114,502,269,105,136,53,139,82
117,547,282,114,150,60,151,85
107,601,293,122,153,65,142,90
133,639,301,119,156,64,171,87
139,620,304,119,152,65,170,84
134,507,357,129,121,57,151,73
134,479,358,134,101,51,137,69
133,412,333,128,105,43,152,61
119,333,325,128,98,45,131,72
106,355,364,128,98,47,134,76
113,334,316,115,91,48,136,92
114,311,328,99,95,46,148,93
114,334,326,90,90,46,160,92
122,372,326,86,90,46,146,93
132,412,295,80,83,45,153,92
124,455,291,93,76,48,165,84
121,518,255,97,94,46,149,86
123,551,261,102,95,49,159,87
107,556,279,122,98,48,167,79
101,531,293,124,99,48,161,74
94,479,304,115,103,49,151,79
100,409,306,116,90,55,165,85
101,346,296,114,88,51,127,90
116,321,283,106,97,57,165,97
112,293,252,105,99,56,163,100
125,300,224,111,94,50,162,94
126,321,209,118,98,47,150,83
123,327,257,119,103,49,157,85
113,306,254,113,89,40,111,84
122,297,271,121,93,37,123,82
109,276,318,111,93,36,114,81
104,239,332,102,85,32,112,85
126,202,309,117,84,32,124,84
125,283,363,116,85,34,137,83
124,305,369,117,83,37,129,85
126,502,401,122,113,41,131,88
132,534,402,138,117,46,132,87
109,582,422,129,117,45,111,84
138,585,386,129,127,48,92,76
135,909,377,117,125,48,100,78
130,853,319,115,95,47,109,93
134,903,318,98,93,43,118,102
162,907,341,109,105,48,117,104
134,885,352,115,109,57,116,105
130,542,374,122,111,60,104,101
132,501,363,125,115,63,113,95
134,408,379,140,117,63,106,90
100,346,336,137,103,61,110,87
98,376,347,134,95,52,115,95
94,387,336,136,93,48,150,96
112,389,397,136,98,45,133,98
112,367,373,128,94,45,130,108
115,349,371,117,90,47,130,108
123,328,332,111,81,44,132,100
128,301,323,104,74,44,97,101
126,319,236,105,69,44,95,87
143,340,268,97,74,43,101,66
146,372,273,117,95,43,91,72
140,376,324,115,97,49,83,85
137,454,334,138,111,50,85,94
143,459,341,136,140,50,118,104
119,459,306,130,139,49,133,107
119,460,295,115,139,48,136,104
118,468,237,131,144,41,134,91
135,413,225,110,140,40,147,77
127,426,230,107,122,40,134,61
125,430,310,115,127,39,138,76
117,411,329,114,119,45,142,83
132,401,353,111,114,48,145,88
120,407,338,115,114,57,131,90
108,383,337,110,103,59,138,95
130,373,276,104,92,65,146,84
137,396,272,103,93,64,143,77
121,405,252,89,94,64,151,75
123,401,286,96,103,55,160,92
134,378,274,110,101,55,177,91
115,357,296,115,110,48,165,89
118,325,347,129,119,45,164,105
128,314,362,137,123,40,157,106
120,293,339,126,109,41,179,91
110,278,345,117,109,36,161,95
122,285,345,124,113,34,165,95
118,328,274,118,97,37,186,78
113,318,263,113,87,37,196,75
125,314,270,117,91,39,167,80
127,333,277,119,96,41,167,71
117,307,256,105,83,46,160,76
128,297,278,99,91,46,139,82
123,286,296,103,106,49,151,88
125,289,305,97,104,53,150,89
132,323,362,111,104,54,132,96
130,363,359,122,109,53,139,92
115,340,345,127,104,52,155,85
124,356,326,120,93,47,133,78
111,419,312,145,104,56,159,84
95,436,256,141,98,57,161,79
103,446,297,139,100,57,147,79
132,480,320,132,102,56,125,80
142,567,343,150,124,61,114,88
141,542,382,142,124,47,66,86
146,533,369,136,122,45,60,83
143,508,397,133,125,41,48,95
127,514,393,136,125,48,62,93
113,437,404,131,115,49,68,86
116,432,380,124,116,51,68,75
118,452,398,143,120,56,86,78
128,471,370,136,113,60,112,69
123,464,347,135,109,58,112,71
130,478,341,123,97,54,108,65
132,504,359,123,96,55,112,76
141,551,354,112,100,51,102,82
141,582,372,129,117,49,72,73
139,577,376,134,128,47,117,76
149,550,338,135,134,49,118,80
148,555,310,128,128,44,116,67
132,481,342,126,134,44,115,86
134,468,299,114,124,44,136,91
145,544,315,119,169,42,92,91
127,547,316,114,163,41,104,96
127,503,317,118,167,39,104,105
145,490,302,114,160,37,123,96
131,445,288,108,154,35,110,95
140,313,269,87,87,34,114,93
138,321,292,85,84,36,104,85
151,342,306,87,85,40,123,86
170,364,298,91,85,51,107,78
285,427,299,96,89,51,102,82
284,509,304,110,128,53,113,84
333,538,278,116,142,49,135,86
331,541,264,111,135,50,136,85
317,513,233,100,133,37,135,92
236,469,246,125,140,48,144,85
259,386,275,119,108,47,132,80
213,322,271,128,96,48,112,84
221,316,280,136,104,48,89,76
242,324,270,139,105,49,89,63
241,331,293,123,95,42,103,67
214,318,306,134,102,42,112,82
244,329,349,133,104,42,107,84
251,291,324,122,102,43,112,82
229,296,331,141,104,42,112,86
231,283,323,139,99,37,93,89
233,319,321,156,110,50,113,80
200,295,280,150,100,50,119,72
188,344,318,153,96,50,128,79
240,359,370,150,107,56,134,88
227,341,352,143,106,58,125,81
220,348,353,123,89,50,129,84
228,366,356,127,102,54,127,85
223,334,353,125,100,52,130,84
175,332,292,110,82,47,136,76
220,335,285,111,84,45,140,77
238,319,237,104,79,44,123,70
221,293,258,101,75,45,142,75
219,312,248,96,75,43,143,84
224,371,258,131,86,43,137,100
192,387,270,146,88,51,156,100
183,364,281,146,90,49,165,102
190,403,287,148,81,48,156,120
211,415,265,152,96,49,151,121
212,374,254,125,96,51,154,120
210,377,246,116,103,45,139,125
202,387,226,114,103,47,122,126
194,413,211,124,106,43,111,107
169,387,211,122,92,42,107,98
149,357,196,122,84,39,110,81
147,367,278,122,83,41,103,87
161,395,303,135,88,43,95,85
153,357,313,140,102,47,100,97
156,373,317,145,105,53,118,95
175,406,389,169,118,52,111,104
194,436,348,169,113,51,109,93
179,406,365,160,115,50,111,99
178,444,378,153,102,48,110,87
165,418,382,150,100,43,124,98
146,392,319,132,85,46,147,107
136,425,342,125,85,43,150,112
165,415,306,122,74,39,151,108
167,348,269,111,71,36,168,141
181,394,276,116,78,40,155,167
189,481,283,103,75,43,145,160
176,433,245,131,87,48,149,168
150,461,246,140,89,49,147,173
141,457,234,137,87,50,138,151
146,460,234,144,87,50,127,140
172,405,335,154,98,49,110,151
162,429,330,137,89,51,109,156
159,394,322,134,91,55,146,151
184,429,322,153,99,59,141,170
175,428,319,144,98,56,136,151
145,414,209,137,86,50,132,139
144,375,207,135,85,45,133,126
148,376,214,127,85,41,98,135
120,344,217,118,78,35,120,113
125,335,235,124,73,36,120,113
136,347,259,120,77,39,125,117
136,317,284,115,79,38,116,111
141,375,384,131,87,39,109,107
140,364,384,117,86,37,63,99
130,351,419,126,100,38,64,109
111,314,411,134,100,38,99,123
116,366,428,132,96,39,98,126
122,342,345,117,86,39,101,122
128,355,350,124,86,39,99,121
128,344,294,103,69,43,126,116
126,341,271,93,70,46,97,100
128,308,229,100,73,44,96,101
120,285,220,100,73,44,94,100
108,278,207,93,70,44,93,98
109,267,191,95,69,37,61,95
111,251,197,91,67,31,103,83
108,286,201,91,68,36,105,106
125,321,248,108,84,40,125,114
136,328,248,105,82,40,127,112
139,329,248,106,88,42,128,109
149,361,273,105,89,42,116,110
147,344,264,104,86,42,140,81
123,315,225,86,75,36,128,74
115,317,228,88,75,36,134,84
111,316,246,85,70,34,136,106
110,307,253,86,65,36,139,107
118,303,249,78,57,34,116,106
120,302,272,78,48,34,122,98
121,323,278,79,49,35,115,90
115,325,260,74,42,36,139,133
132,327,231,79,43,37,122,136
126,309,230,76,50,38,135,144
134,350,199,77,54,39,134,148
137,343,186,76,53,40,150,178
153,360,186,76,56,40,130,155
135,356,177,80,63,46,131,164
128,365,181,91,66,47,127,171
118,346,234,102,68,46,118,185
137,347,250,104,68,45,123,166
117,337,254,112,69,44,129,169
109,331,273,105,62,37,128,158
109,336,275,104,56,37,136,152
111,295,243,96,53,42,145,132
85,334,250,111,54,42,136,123
85,315,244,107,66,44,122,86
85,348,229,110,70,45,119,86
100,329,212,109,68,42,106,67
104,367,215,110,68,39,105,81
107,321,205,94,69,41,88,78
123,364,236,99,59,39,87,88
127,354,252,109,60,39,91,90
113,355,257,106,64,45,80,117
114,312,253,100,62,42,77,110
139,303,272,101,58,43,99,112
141,316,263,110,60,46,102,108
137,305,257,99,57,41,98,112
170,306,257,100,54,33,97,103
167,337,283,101,55,36,100,113
151,408,252,127,84,38,100,114
144,484,312,154,100,39,100,120
156,559,336,157,102,44,104,117
134,563,336,156,104,46,105,112
138,554,343,165,112,47,96,107
131,560,423,160,107,49,70,112
123,490,419,128,105,47,64,104
110,386,400,131,111,52,70,101
119,383,407,135,117,58,88,91
115,402,399,125,111,57,86,94
111,334,335,106,100,54,86,90
122,355,313,129,99,54,86,89
118,398,318,140,102,47,75,92
106,413,347,145,107,41,48,95
108,422,346,149,112,42,50,85
108,470,364,153,112,45,48,82
100,442,346,138,111,45,63,99
149,442,346,125,106,47,68,98
144,438,330,120,95,45,74,94
144,447,333,120,92,44,78,90
144,421,380,121,93,39,77,90
158,441,382,115,86,38,66,65
131,421,380,115,85,37,59,69
129,442,392,132,86,39,51,70
134,430,397,132,85,40,41,74
142,487,347,145,98,42,38,81
139,515,344,169,124,55,49,92
128,552,365,170,125,55,53,87
131,543,354,164,124,56,53,82
153,568,337,168,126,57,53,82
146,511,319,158,119,57,53,74
134,478,355,137,94,47,43,69
132,453,332,136,89,46,37,78
143,459,342,137,102,43,36,84
108,427,338,130,99,41,34,82
108,438,333,125,97,40,35,79
104,404,281,116,92,38,37,73
100,378,285,107,94,39,38,65
93,352,271,86,86,44,39,59
105,339,262,107,86,44,42,65
109,369,296,128,91,47,41,77
111,370,317,129,92,43,38,75
119,427,366,138,94,46,42,78
125,447,403,163,108,48,41,82
125,447,409,161,120,50,37,80
132,402,378,155,119,51,36,73
142,401,356,156,123,53,39,72
147,386,307,155,119,51,37,72
133,376,264,126,99,43,35,65
135,416,341,114,88,40,37,59
132,454,360,98,83,37,37,59
119,454,365,90,75,36,34,61
117,409,417,88,89,38,32,72
144,477,456,131,108,45,39,98
132,425,405,130,109,46,38,96
121,376,402,141,113,46,36,99
137,375,431,149,112,46,37,99
157,388,391,160,109,46,36,93
134,294,412,146,109,47,33,69
136,345,427,144,113,47,36,75
135,350,412,130,109,50,41,65
125,354,377,129,109,48,40,65
129,332,374,114,112,51,44,61
137,322,268,105,100,48,41,58
141,311,242,106,88,46,38,55
149,342,264,114,97,47,36,58
147,341,261,110,97,49,35,55
123,342,236,108,88,45,31,55
112,394,264,102,89,43,37,52
118,366,268,108,105,49,40,56
121,332,271,101,96,45,40,56
129,356,294,115,107,47,39,64
118,375,313,124,122,50,72,67
130,316,328,125,128,56,85,72
116,310,303,113,115,51,85,66
130,288,303,112,116,56,85,65
141,277,308,102,107,54,86,67
148,319,316,122,101,62,65,61
135,312,284,122,88,55,86,56
136,316,291,130,90,56,90,60
125,365,301,146,98,50,91,64
129,350,286,144,100,51,91,53
139,375,256,134,85,39,90,63
138,368,240,131,80,36,51,68
141,376,232,127,88,46,42,64
139,338,192,112,83,46,55,62
150,356,195,121,85,45,74,65
137,275,220,126,100,46,73,70
143,282,219,126,107,48,76,64
156,279,267,122,106,39,92,87
154,276,270,119,103,38,85,89
119,263,273,112,96,39,67,94
120,276,256,103,91,39,66,87
116,296,306,105,88,36,63,89
94,287,269,111,83,36,62,73
120,288,262,113,95,42,74,71
133,298,280,105,96,42,118,66
135,292,297,88,86,43,131,60
135,280,249,94,94,49,142,62
139,278,261,96,95,54,133,57
112,277,265,92,83,54,127,55
99,322,243,107,105,55,101,57
99,320,225,108,102,57,90,59
98,333,235,103,95,52,85,60
93,320,220,91,90,50,86,60
142,360,220,150,128,56,122,84
138,355,228,151,115,54,129,82
136,363,270,158,125,52,129,89
142,356,258,158,122,53,124,85
145,383,283,175,148,54,151,121
122,351,276,150,134,49,128,111
136,309,346,168,152,63,114,123
134,294,303,165,150,65,117,121
131,278,318,163,150,64,133,124
145,258,316,156,137,62,102,89
124,249,355,143,129,59,99,88
107,231,272,111,108,49,99,69
111,235,274,107,101,44,93,61
118,238,256,107,102,44,84,57
108,254,230,106,96,41,84,56
107,253,176,99,87,41,104,57
121,330,218,98,84,37,102,66
123,313,229,97,88,40,103,66
133,315,227,100,94,40,114,68
121,292,231,100,83,40,114,67
123,301,228,98,81,41,108,62
116,225,186,94,77,43,120,50
127,235,181,93,82,44,135,57
119,319,190,114,88,45,136,70
130,345,186,108,92,49,155,72
131,343,187,112,90,47,147,69
137,357,189,119,92,45,140,69
126,356,198,125,87,44,122,66
123,319,213,113,72,45,121,65
112,336,288,108,76,44,123,70
124,346,286,103,89,46,122,71
132,360,283,102,88,47,120,72
127,360,270,94,83,47,129,74
116,339,275,86,85,46,118,65
130,352,202,96,93,47,101,61
124,348,204,98,88,46,106,61
105,303,249,104,94,49,119,62
106,335,265,104,98,51,130,58
105,317,252,102,97,52,133,59
117,301,250,105,90,49,129,61
115,306,298,104,87,48,126,71
121,331,256,94,86,49,132,77
117,292,239,95,91,48,117,78
120,301,250,97,92,48,104,72
91,264,259,89,88,48,97,67
85,244,202,91,91,46,93,56
89,219,216,90,86,43,63,41
93,239,229,87,75,40,49,40
96,223,217,87,74,38,45,58
95,221,209,82,77,49,42,70
151,221,207,79,71,47,38,74
145,219,194,89,69,47,36,77
155,218,195,92,71,48,60,91
156,257,210,99,83,50,63,87
158,271,291,116,81,40,79,85
128,272,299,122,81,41,81,82
136,281,301,118,88,40,84,87
120,269,309,117,97,40,72,82
120,242,340,140,116,49,76,91
135,284,288,142,138,55,74,90
126,334,329,164,153,63,100,94
114,353,344,166,153,66,104,96
113,381,338,166,149,65,104,97
157,396,315,147,130,62,185,96
150,363,313,162,126,62,187,99
140,372,339,156,112,55,177,98
140,343,393,158,115,54,176,101
140,318,399,161,114,56,185,94
106,324,387,171,118,50,112,93
95,319,410,141,100,45,105,95
104,269,368,125,106,49,103,98
101,314,328,127,102,45,103,87
105,343,312,131,107,46,85,88
85,356,315,119,98,45,66,74
95,400,275,117,91,42,54,61
93,420,323,112,82,42,48,57
99,415,333,101,81,41,39,73
101,386,328,93,75,38,36,72
129,394,322,86,74,45,37,80
126,426,411,97,76,45,44,84
138,439,374,106,81,44,41,82
142,421,353,110,81,47,76,73
165,454,376,113,87,46,80,83
153,464,418,116,90,44,82,81
151,431,395,118,93,43,79,75
142,393,385,108,89,47,83,79
147,402,404,119,100,48,86,78
126,391,419,117,100,49,88,75
123,365,401,113,98,46,86,73
149,411,370,124,105,49,92,89
152,434,393,123,110,48,93,92
146,439,369,115,98,44,73,96
162,424,341,113,99,44,82,92
167,439,323,120,101,54,85,96
156,466,321,126,94,54,79,101
151,449,284,124,83,53,78,97
148,475,263,122,97,57,105,93
146,504,271,136,97,57,106,92
136,485,299,143,102,49,106,90
124,436,278,134,101,46,107,73
139,486,285,137,105,47,108,75
165,455,286,139,94,48,152,78
152,436,273,132,91,47,165,80
149,508,325,129,86,46,185,76
148,471,319,118,86,46,188,76
157,426,321,116,81,42,195,70
135,431,323,115,82,38,176,67
147,414,338,119,98,43,167,73
171,342,253,110,100,47,145,74
172,323,228,105,96,46,144,73
148,316,245,101,93,46,133,71
154,337,255,101,92,48,89,79
140,340,226,87,71,48,69,73
109,306,214,79,66,45,65,75
101,321,246,95,75,49,77,70
108,316,219,102,80,48,77,80
102,280,242,116,81,45,71,74
105,272,238,112,78,39,69,68
103,266,245,122,92,47,71,71
109,236,213,111,88,44,46,90
124,261,253,125,88,48,43,87
117,289,217,111,86,51,43,81
116,315,218,120,92,54,43,90
137,305,202,109,83,46,40,86
141,309,231,119,87,45,39,80
137,308,224,103,88,44,39,85
144,307,259,100,87,40,38,87
148,310,309,96,88,40,37,94
135,315,314,99,80,43,51,93
142,339,303,99,77,44,60,84
137,334,281,102,72,44,63,73
131,328,293,108,73,42,64,74
144,395,256,117,80,48,69,56
155,414,251,116,81,47,75,56
157,456,257,111,80,46,75,54
159,502,251,115,86,50,97,60
154,490,202,129,93,60,157,60
147,453,245,122,79,54,163,56
130,452,265,127,78,53,162,72
119,435,260,134,84,52,162,73
130,360,261,124,79,48,149,71
156,379,272,107,78,38,90,68
145,356,245,105,79,39,75,72
156,356,226,105,81,41,66,62
159,300,219,85,72,38,56,73
146,328,247,96,72,40,57,75
134,308,247,102,66,43,65,79
136,291,250,105,85,43,60,76
127,268,248,103,86,43,60,73
142,276,259,110,93,46,59,67
138,265,228,137,99,47,63,72
121,257,217,126,97,43,46,75
123,285,193,142,90,45,47,78
135,292,191,145,89,44,65,80
113,281,177,147,92,46,67,73
125,285,255,145,116,57,67,76
151,285,257,147,121,57,68,73
159,296,253,138,116,55,68,73
168,280,250,129,113,58,52,69
189,302,251,127,105,53,47,71
191,327,252,115,89,46,48,64
173,375,311,121,88,44,46,62
171,359,328,120,96,54,51,62
149,370,343,122,95,50,50,61
138,359,339,118,94,53,71,58
136,343,295,95,76,45,65,65
138,319,247,91,70,47,67,67
127,312,249,81,62,36,65,63
129,329,229,82,63,38,66,66
121,332,242,94,63,36,46,67
109,356,245,109,70,39,49,65
102,358,247,109,69,38,70,66
106,352,235,105,61,34,69,68
114,337,270,105,66,32,70,66
100,335,266,94,64,32,71,79
99,296,282,86,57,29,71,69
123,252,301,82,63,30,47,73
148,253,319,81,66,34,47,74
148,272,296,78,59,34,44,73
162,294,293,80,64,33,40,64
166,296,274,79,62,33,54,72
157,306,238,81,57,33,64,66
156,310,190,82,59,31,65,66
173,290,185,81,65,33,64,71
160,274,220,83,63,36,67,71
168,274,242,81,69,38,99,65
184,283,272,84,70,40,94,70
174,303,291,92,73,39,96,66
157,311,314,101,70,37,98,65
184,364,312,119,74,37,97,64
197,373,294,122,76,35,54,65
214,383,276,125,81,32,64,74
207,383,302,129,74,35,63,76
223,416,303,134,78,39,63,77
223,371,302,118,75,38,63,85
220,340,290,110,65,40,67,93
198,318,306,103,55,41,63,84
203,291,277,105,68,40,61,84
186,301,266,104,68,38,60,85
204,296,260,123,81,36,59,78
191,319,268,125,80,35,54,63
177,329,250,128,79,33,46,61
173,350,242,119,69,31,42,63
197,318,241,124,75,32,61,74
155,314,228,106,66,36,67,68
148,318,241,103,70,36,77,75
154,300,245,96,73,38,80,80
191,323,238,99,77,37,85,84
181,291,264,84,74,36,91,71
181,318,296,93,69,38,87,76
193,305,276,96,69,40,79,76
234,326,267,102,65,39,75,73
215,292,271,100,63,43,72,68
212,301,254,94,65,46,45,68
222,303,225,87,59,43,50,69
234,312,236,91,58,42,61,69
195,306,257,90,62,41,63,71
217,293,253,90,68,41,61,73
222,298,242,94,63,37,62,74
230,296,258,99,77,43,65,73
231,273,252,91,74,43,62,75
253,301,238,87,73,47,75,74
226,327,262,87,66,47,77,70
214,313,260,81,65,46,76,69
236,297,240,80,52,43,74,69
251,310,235,79,59,44,78,58
232,272,215,85,62,41,66,59
267,279,201,83,62,40,78,67
266,286,189,87,62,41,78,67
246,302,185,84,66,39,75,65
210,308,184,88,70,37,63,76
221,357,221,96,77,39,62,84
175,336,217,93,77,38,62,79
181,341,225,94,79,37,70,79
161,356,230,95,83,38,71,81
166,347,232,96,77,38,73,83
142,346,221,92,69,38,72,72
159,390,239,102,77,43,60,83
147,399,241,109,74,43,52,93
177,378,238,100,65,43,46,97
171,374,252,103,68,42,42,88
173,322,239,104,75,47,63,88
180,257,202,96,67,43,62,76
179,255,189,86,64,46,60,64
159,248,186,89,67,47,65,57
152,238,167,90,67,50,66,56
188,244,168,87,59,45,44,61
173,272,192,89,64,46,48,61
177,306,240,97,68,43,77,61
165,312,237,97,65,53,182,54
215,373,277,97,65,64,254,64
238,381,285,93,65,65,276,77
293,446,293,106,66,69,294,86
306,444,273,98,66,71,299,95
311,440,296,99,71,73,308,100
290,417,260,101,69,65,262,94
256,469,270,115,72,64,253,85
189,505,290,136,77,66,236,81
184,486,287,147,84,64,238,79
177,513,303,156,80,54,182,78
161,516,335,154,80,52,174,78
145,471,375,146,78,50,158,72
134,376,387,126,74,44,170,72
111,367,384,113,64,46,171,73
123,323,361,98,67,50,147,75
120,333,343,103,66,53,155,76
119,355,301,112,68,55,153,89
190,382,299,118,70,54,131,86
185,410,303,131,70,52,113,78
178,404,307,137,71,44,159,73
181,391,326,136,71,41,152,79
185,379,318,134,77,44,161,74
139,347,272,131,72,43,163,74
132,294,260,116,69,42,154,73
129,299,258,111,65,43,143,81
131,358,261,111,79,47,163,89
120,341,286,102,76,42,154,79
97,328,291,85,78,41,154,82
93,337,287,89,78,44,163,83
92,331,282,82,78,44,147,76
79,286,260,88,66,57,157,64
104,298,227,91,64,61,183,69
114,267,208,92,67,62,204,69
137,271,267,104,79,69,209,75
136,286,301,113,80,72,198,80
150,315,344,114,81,59,169,81
137,311,335,111,76,58,156,75
128,318,348,115,68,58,127,74
104,340,349,105,54,48,104,72
105,380,342,111,61,45,99,74
87,319,283,100,57,45,139,67
95,325,287,105,59,41,131,72
98,326,282,112,67,69,162,68
105,307,235,109,71,70,198,75
116,247,210,96,64,68,207,77
114,249,217,93,66,68,195,79
106,252,247,86,69,69,191,80
116,249,248,64,64,53,185,80
114,236,247,65,62,53,168,85
118,277,238,66,65,52,173,87
122,282,234,84,72,55,158,84
129,262,216,88,73,54,162,86
112,250,194,93,75,41,166,91
114,269,216,95,74,37,150,78
112,263,224,100,69,40,145,67
127,251,223,88,59,36,148,69
124,253,202,83,54,42,151,71
121,281,222,87,50,40,126,66
125,264,217,92,53,42,134,70
117,223,212,87,54,40,131,72
100,272,242,99,64,43,144,75
94,274,265,101,63,36,141,70
106,258,281,105,68,39,150,72
116,292,314,111,75,42,158,73
118,346,339,125,86,47,161,84
116,323,314,120,85,50,157,106
120,310,300,119,87,53,170,106
114,319,275,121,88,51,186,112
105,327,231,127,97,53,181,107
100,306,225,117,90,54,185,113
109,301,238,119,98,61,227,93
109,312,261,118,97,60,225,97
135,334,280,126,99,63,210,103
130,309,272,110,83,58,202,105
142,282,270,108,86,54,195,91
135,272,284,101,70,47,194,88
140,266,287,103,70,49,187,103
122,211,272,74,59,49,184,96
131,201,276,72,57,53,187,97
121,202,277,91,69,51,180,97
120,201,268,98,74,44,112,104
109,227,250,107,75,39,109,82
113,253,260,110,75,37,139,73
104,253,254,110,79,37,149,83
97,236,217,88,59,40,153,84
103,276,221,92,61,43,149,80
107,270,207,82,62,47,149,80
88,268,183,88,71,51,140,82
106,261,178,91,72,49,141,80
110,259,169,95,73,46,135,82
105,221,128,87,68,45,147,77
105,201,158,91,68,40,150,77
126,184,164,86,63,34,125,74
169,239,177,83,58,31,113,65
174,274,190,80,60,33,113,64
175,264,204,72,57,33,101,63
175,296,197,77,60,40,99,85
161,290,193,79,60,39,109,93
121,266,204,80,59,43,109,94
119,283,219,99,67,42,109,103
118,282,203,101,70,45,132,103
119,261,196,94,61,43,130,95
155,291,208,95,65,43,121,88
140,273,181,89,61,39,115,87
133,268,156,75,61,40,119,74
129,273,156,76,59,33,91,73
136,265,137,80,63,30,82,63
103,233,123,72,56,35,119,64
104,258,145,81,63,34,122,61
109,262,174,82,55,32,117,63
109,267,185,82,55,35,116,64
97,273,189,81,55,36,109,59
90,277,202,97,68,31,58,58
91,260,206,98,77,36,43,57
83,197,185,92,77,36,43,51
92,187,191,95,80,35,71,54
91,211,211,96,79,38,91,57
86,223,214,84,68,37,94,60
117,223,216,81,58,36,95,71
119,229,243,83,61,36,95,75
119,229,247,83,55,41,106,73
120,211,236,86,64,42,100,82
143,193,220,85,65,41,108,86
110,206,233,83,60,44,123,76
111,244,196,82,61,48,134,72
108,253,239,77,63,44,137,70
118,249,237,73,56,43,136,66
100,275,250,75,55,44,128,59
98,256,221,70,53,40,132,65
98,274,237,77,52,40,132,65
111,276,223,82,50,40,108,66
100,299,247,81,47,37,101,57
105,301,252,77,45,41,142,55
115,318,251,74,43,40,136,52
121,295,236,78,45,43,135,63
107,297,218,84,53,43,135,66
107,270,203,83,57,49,146,72
90,247,184,87,58,48,113,70
126,247,198,93,60,48,114,65
130,254,194,83,56,42,114,62
131,254,171,70,48,45,121,60
129,250,145,69,42,45,149,64
134,265,152,62,39,43,149,66
114,291,144,65,44,47,142,87
106,283,151,73,55,49,144,81
105,276,164,84,64,50,142,82
108,296,159,88,72,46,105,75
101,291,157,89,72,46,106,85
92,257,140,82,70,45,115,66
92,260,158,87,70,48,111,68
90,250,147,77,61,43,101,64
129,321,182,81,55,45,102,67
130,324,176,82,56,46,95,51
121,330,208,98,68,45,87,50
120,356,207,99,71,51,104,57
125,357,212,102,74,53,107,58
90,320,205,110,83,54,121,54
87,305,209,115,86,52,123,57
95,328,180,106,82,52,120,56
89,303,167,110,81,42,119,62
84,312,167,108,82,48,140,78
74,282,165,99,74,47,129,79
85,290,166,91,70,45,128,80
107,257,164,86,63,43,134,81
110,251,162,72,57,46,140,71
114,244,169,74,62,41,119,62
116,238,156,76,63,37,115,71
109,230,155,83,66,41,138,70
75,223,162,89,67,41,150,70
74,210,155,84,66,39,131,68
81,259,157,96,66,40,129,61
84,272,165,96,63,46,132,49
102,278,169,93,59,44,137,49
103,278,167,86,57,43,119,53
104,283,170,89,53,41,118,60
101,252,168,80,53,41,134,58
97,236,168,72,53,36,137,66
78,223,170,75,55,37,113,66
81,212,167,75,59,36,108,63
102,220,164,73,62,38,123,66
94,207,157,68,53,33,115,71
91,189,172,73,54,37,103,67
105,247,162,72,58,38,117,67
105,253,164,71,55,38,117,64
83,236,175,74,53,35,123,58
80,236,183,71,53,35,129,52
82,235,179,70,51,30,129,50
66,182,183,69,50,30,112,48
54,177,184,71,55,30,111,49
49,168,172,77,60,37,103,54
63,249,180,83,62,39,95,63
67,277,196,79,65,40,103,62
83,290,196,78,62,37,104,64
83,306,197,79,59,40,104,64
85,331,221,86,59,35,84,71
76,291,212,83,60,32,65,65
80,289,205,86,58,35,86,70
63,294,203,87,59,38,102,73
66,272,197,84,56,37,119,73
74,243,176,67,47,37,119,67
77,228,170,69,51,38,122,67
69,215,162,68,52,38,134,64
72,195,166,66,51,35,128,66
76,213,166,70,54,34,126,71
64,207,156,70,56,31,125,61
61,199,138,65,50,28,127,64
58,215,129,60,47,26,104,60
50,203,130,59,44,30,97,51
64,217,140,62,44,28,79,51
70,219,145,61,43,31,98,55
78,238,181,69,45,37,95,52
79,209,167,64,47,38,81,48
81,237,171,65,45,35,83,63
64,224,169,65,48,38,101,62
70,249,183,71,57,43,127,66
75,271,184,74,59,44,130,64
78,304,186,76,56,43,132,77
76,291,178,78,59,44,140,70
76,290,174,73,59,41,131,70
78,305,164,81,56,38,117,70
67,266,139,72,56,36,121,72
67,235,163,76,58,36,118,71
70,240,161,73,59,35,120,66
70,247,164,83,60,40,134,64
81,287,180,88,67,39,123,68
83,339,209,93,62,40,124,85
90,357,203,97,62,44,149,78
91,360,215,105,66,46,148,83
101,366,220,101,60,46,136,88
96,329,220,87,50,46,150,81
92,294,204,85,56,45,153,63
84,271,215,89,64,46,152,68
89,288,221,89,63,44,144,71
77,284,216,89,64,41,145,62
62,256,207,90,69,42,121,65
62,243,190,91,69,36,108,61
68,236,151,78,59,29,73,72
61,202,121,71,55,29,86,71
63,173,120,77,63,28,88,75
61,182,115,75,59,27,84,73
66,205,172,78,63,29,91,75
66,212,192,81,70,34,94,56
71,220,203,86,73,40,88,50
73,235,200,79,67,42,113,49
74,237,201,80,63,39,113,56
69,213,160,75,58,38,109,62
64,235,138,80,55,35,116,63
60,222,133,72,49,29,106,62
63,259,147,74,54,35,90,62
61,261,146,70,55,38,101,57
71,255,137,67,52,37,104,51
72,241,129,60,49,38,92,53
66,252,151,66,51,37,105,51
59,204,143,60,46,31,91,68
69,198,151,62,48,31,84,69
60,194,149,63,49,35,138,70
58,188,160,64,50,35,138,68
58,168,130,54,48,34,133,68
66,160,122,53,47,34,131,52
68,182,148,60,41,35,138,51
75,207,162,64,44,35,85,46
75,233,162,75,49,33,83,64
76,250,165,79,51,36,98,66
70,251,165,80,50,36,99,62
56,232,127,72,51,35,90,63
47,230,128,69,54,32,82,64
44,197,126,61,53,34,82,56
61,203,148,70,56,30,86,57
62,228,154,76,62,35,140,64
62,217,149,76,62,32,140,60
63,204,132,75,57,36,145,66
84,212,154,78,66,44,150,64
72,215,137,67,61,45,144,72
75,188,131,58,56,42,97,67
78,198,130,60,57,42,95,71
78,194,136,58,58,40,89,69
56,208,114,46,58,35,83,66
58,200,125,58,67,36,69,60
58,209,125,60,70,34,58,61
57,203,125,58,70,33,55,58
59,216,115,60,69,33,68,58
60,206,130,66,60,31,118,61
68,200,126,59,50,29,117,56
66,204,149,60,48,31,125,54
65,213,151,64,50,36,126,55
61,211,152,68,50,36,119,53
57,206,131,60,45,32,68,43
50,225,152,60,45,31,70,47
44,239,137,59,47,35,73,51
63,236,137,64,58,34,69,51
67,229,145,68,61,41,101,51
66,235,151,73,65,40,102,54
66,221,140,76,65,41,104,53
66,221,146,80,62,38,93,49
62,237,153,77,50,36,110,50
59,241,160,71,45,30,88,50
60,227,181,74,46,30,100,53
60,222,170,78,57,31,96,51
60,219,174,78,62,32,102,57
74,197,169,75,62,32,89,55
76,192,179,84,71,36,101,62
75,226,156,83,75,38,102,63
74,228,157,76,69,40,109,66
75,219,160,79,68,38,109,63
48,230,167,80,70,41,115,66
44,239,140,78,67,38,112,63
44,211,151,78,59,37,116,64
54,196,155,82,57,35,113,62
67,215,149,81,54,36,116,90
73,251,156,85,51,37,140,90
72,241,166,80,46,36,146,90
73,246,179,81,56,38,133,86
67,258,192,80,57,39,148,92
51,245,201,82,59,37,151,65
41,199,197,85,60,34,138,69
42,214,197,83,57,34,125,73
38,227,181,86,54,33,127,74
39,271,179,91,59,39,149,92
37,276,176,88,62,43,156,93
38,278,164,82,64,41,151,92
41,265,164,85,64,43,158,89
57,256,169,90,61,43,156,93
61,248,171,88,59,40,122,67
65,241,157,83,51,40,111,62
68,263,184,85,47,41,110,63
66,271,183,83,46,38,106,61
52,294,180,77,44,36,106,52
44,253,168,75,43,30,103,49
38,253,178,77,47,27,92,49
39,224,165,71,48,28,92,44
45,247,187,74,53,31,95,44
44,219,187,68,55,31,98,46
51,261,201,61,48,31,93,48
53,253,193,63,50,35,90,47
48,269,199,65,47,33,84,43
44,249,172,61,42,31,81,42
51,252,188,76,56,39,123,50
43,206,165,81,58,39,127,47
57,217,179,83,58,39,129,50
57,217,167,84,60,40,135,51
58,214,179,84,64,40,130,48
50,193,150,71,49,34,106,43
51,194,156,67,51,34,105,47
39,225,147,64,50,34,107,46
37,213,142,60,50,36,95,44
35,222,140,62,47,35,110,52
35,222,148,60,50,34,102,51
62,283,156,64,56,35,109,58
60,250,143,62,55,37,104,58
64,253,151,67,54,37,107,58
63,237,137,58,52,35,94,54
65,244,131,59,53,35,119,55
46,185,127,69,47,35,131,46
43,177,130,69,47,31,135,51
62,169,145,70,52,34,134,50
70,181,154,73,50,34,127,53
73,187,156,72,46,34,100,55
72,168,135,53,41,32,107,56
74,190,164,62,46,41,117,52
62,253,212,63,42,39,123,62
59,249,213,66,47,42,132,62
57,239,223,71,52,44,142,70
68,255,225,77,54,45,125,69
72,284,246,82,50,44,151,81
104,247,206,81,52,45,147,77
105,269,220,83,53,43,160,75
107,271,208,80,49,45,182,65
102,284,251,77,48,44,186,68
103,263,233,87,55,38,160,66
82,262,229,88,54,40,191,72
78,269,230,87,52,48,204,76
96,288,263,96,62,51,180,86
102,284,224,98,63,50,180,85
106,267,207,78,57,51,191,79
98,248,206,79,58,53,173,78
99,212,193,77,59,45,142,75
88,224,178,81,64,42,144,65
89,252,206,84,65,43,137,66
87,252,199,90,67,43,136,73
102,278,187,87,65,41,159,67
104,286,210,88,64,40,157,68
104,281,191,78,54,37,150,66
104,256,177,75,52,36,145,69
102,260,177,66,47,35,138,60
88,273,199,64,45,30,102,59
87,274,173,66,48,32,109,63
95,294,172,69,48,37,109,69
92,281,159,64,48,34,116,67
93,281,173,66,52,34,118,65
113,255,175,71,54,38,121,65
114,247,205,66,55,38,113,59
106,228,204,66,58,35,113,51
101,212,206,77,59,37,114,63
96,197,207,76,58,42,130,64
93,182,196,81,60,39,124,65
91,181,155,82,61,42,127,65
86,165,147,78,62,41,143,67
86,178,141,72,60,41,136,52
90,198,192,83,64,36,114,59
80,210,183,72,60,34,103,58
82,230,189,71,56,32,108,66
79,216,195,67,45,32,99,67
112,217,202,67,44,32,107,74
111,210,138,53,38,33,103,66
104,246,165,67,44,37,114,66
109,219,158,66,44,37,117,59
120,241,167,72,45,43,114,56
90,273,186,71,46,42,114,51
105,286,186,85,52,44,136,62
105,252,161,83,53,44,134,61
101,276,167,87,59,45,128,61
94,246,149,81,59,40,121,71
95,211,112,87,63,43,131,74
77,204,123,74,57,39,115,77
84,209,124,66,52,36,119,77
94,196,119,68,55,40,116,80
112,235,160,88,65,40,119,77
111,231,176,87,65,37,103,70
120,226,168,89,66,40,103,55
132,226,181,90,67,40,104,58
125,249,195,91,62,38,104,59
104,238,168,74,56,36,101,57
107,241,156,68,52,37,98,59
99,232,156,60,50,35,86,59
92,235,152,64,53,36,62,56
91,223,136,61,50,32,71,53
94,213,153,66,66,35,129,46
95,220,155,66,69,35,141,42
93,229,150,69,70,34,141,44
65,226,138,65,66,31,144,45
62,236,142,70,68,30,137,37
58,239,117,64,54,26,91,43
58,240,100,72,55,24,79,45
81,245,113,76,59,32,101,48
83,237,123,75,58,32,95,47
87,207,140,74,64,35,102,55
103,225,182,79,66,39,102,51
100,214,193,75,66,40,120,55
83,228,210,71,72,40,111,51
83,244,218,80,78,42,115,56
121,242,220,74,71,41,109,58
112,233,196,71,66,40,105,64
116,226,194,72,66,40,98,61
120,238,209,90,67,39,93,65
132,231,220,84,62,38,100,65
105,258,213,93,67,36,131,61
114,258,205,93,69,36,134,56
112,269,209,93,73,35,129,58
109,256,187,82,70,33,127,57
97,272,165,82,79,41,122,54
91,303,201,93,77,42,89,52
88,287,207,97,78,43,90,54
87,316,212,106,77,46,101,56
114,315,203,107,75,46,104,60
111,307,215,112,71,40,104,65
120,271,178,93,75,42,102,66
116,285,190,89,72,39,92,71
117,281,222,81,64,41,118,71
109,264,219,74,58,39,120,68
125,277,212,72,53,48,129,69
125,250,210,72,49,47,129,67
120,242,203,79,49,48,130,59
120,248,177,76,53,47,167,56
104,264,185,84,65,50,174,60
92,244,186,82,69,47,173,67
99,261,192,81,66,52,177,71
99,270,205,79,65,53,178,73
103,250,195,75,64,51,105,76
106,274,218,67,55,49,121,73
102,279,229,67,50,47,119,63
86,288,246,67,62,44,127,64
102,287,262,76,67,44,133,68
103,281,268,78,66,48,133,71
106,263,250,78,66,47,120,75
108,252,233,77,64,43,127,72
103,255,230,85,73,43,115,67
86,262,245,92,87,45,108,63
89,257,250,93,92,40,105,55
100,249,249,92,92,38,95,49
101,273,272,91,93,41,100,54
107,297,259,101,89,41,101,57
108,304,211,97,72,37,110,59
121,306,203,96,67,37,112,59
113,318,219,98,66,40,108,61
115,343,194,101,65,42,103,58
117,324,234,85,62,38,102,53
116,317,239,71,63,43,91,50
95,314,233,71,67,44,98,50
107,319,241,70,66,45,109,63
101,283,261,74,72,48,117,62
86,268,215,71,62,47,120,63
102,286,219,78,66,50,123,63
100,289,222,76,64,52,126,64
90,266,190,78,67,49,111,48
88,255,167,76,68,44,85,49
91,245,177,83,69,45,86,53
85,212,162,80,67,39,96,52
91,228,155,84,74,39,87,57
78,232,187,83,77,38,93,55
106,234,175,76,72,37,91,63
116,234,167,73,72,34,90,63
107,229,183,73,70,36,82,63
107,224,189,95,66,34,88,57
111,213,172,98,68,38,81,58
98,220,169,99,67,42,89,53
87,218,169,96,69,43,94,49
108,228,163,98,67,42,107,51
119,259,205,88,71,50,128,70
146,279,241,97,65,48,134,69
143,316,247,103,73,49,135,67
144,313,258,103,71,53,133,67
130,322,284,109,75,55,117,66
125,304,271,100,75,50,99,49
94,283,236,91,80,50,95,53
91,234,241,87,76,46,90,52
90,277,253,91,82,47,81,51
92,292,229,81,80,51,108,54
79,309,226,80,71,51,104,57
78,320,218,78,66,50,111,71
75,323,219,78,63,52,112,77
104,298,222,74,54,50,114,77
102,272,205,71,52,42,93,77
107,239,175,72,52,39,82,71
110,218,171,65,50,38,65,55
119,256,196,78,71,40,79,47
91,247,169,85,76,41,89,46
88,265,195,92,76,41,92,54
89,298,201,97,78,45,123,71
96,327,232,104,82,48,122,70
88,307,199,95,66,50,116,74
89,321,202,99,69,49,109,76
89,305,216,98,67,49,116,74
85,311,232,92,66,50,92,60
78,285,215,89,66,50,98,57
76,292,228,92,64,44,117,50
97,403,257,104,60,43,113,61
98,414,244,99,61,47,125,55
101,401,239,105,66,45,139,63
96,404,237,103,67,45,137,65
97,431,318,99,66,44,125,68
85,351,309,81,65,45,125,58
100,339,322,83,63,40,100,56
96,322,319,71,55,35,77,48
95,350,323,73,51,38,86,50
94,316,234,76,64,43,105,53
90,281,218,73,62,41,114,54
73,283,208,78,64,45,115,58
72,277,212,84,69,44,114,56
75,370,267,99,73,43,130,55
88,375,272,100,74,38,109,54
93,389,266,103,77,39,106,62
95,383,251,98,76,36,139,59
97,389,266,96,78,38,138,69
89,269,204,79,77,36,120,65
79,274,222,81,65,35,121,64
78,253,236,72,60,34,141,66
74,252,226,67,57,34,108,68
73,238,195,79,56,33,109,61
82,229,217,87,63,31,113,68
78,213,211,87,66,32,115,67
73,210,193,93,67,35,95,59
93,222,198,98,69,34,96,59
92,253,210,88,65,37,100,58
82,254,201,78,59,37,89,51
86,227,183,73,57,40,92,52
82,228,199,68,56,37,95,46
59,212,222,60,56,40,104,51
57,218,253,68,57,38,100,53
59,273,254,70,50,38,102,54
53,278,259,70,50,33,95,59
63,308,249,76,54,37,79,71
61,310,226,77,52,34,62,69
68,282,182,69,47,32,53,66
68,225,169,80,57,30,70,67
74,249,169,94,62,33,90,62
75,220,171,90,59,27,101,54
76,207,169,89,61,27,105,50
72,198,160,89,59,27,106,55
70,236,163,82,56,29,96,53
58,234,180,68,50,26,90,52
46,234,174,75,56,27,81,58
49,255,186,83,57,32,120,60
56,273,190,97,64,36,135,57
56,254,197,97,69,38,134,65
58,237,171,99,69,40,131,66
58,230,170,94,64,40,138,57
60,229,164,90,62,39,113,64
58,218,160,88,61,37,97,74
58,243,148,82,52,32,100,67
68,249,153,92,65,33,98,65
68,251,151,95,65,36,85,67
63,238,141,92,62,37,103,61
63,240,139,83,69,38,106,52
61,215,124,90,69,38,103,51
64,271,114,83,66,37,98,54
66,282,120,82,65,34,109,50
67,292,128,83,68,42,128,50
61,297,131,78,55,40,126,51
62,297,148,80,56,40,136,57
46,230,158,71,45,41,136,54
56,224,162,77,59,41,128,60
56,212,185,79,59,31,82,56
56,201,184,77,61,30,78,60
57,202,173,68,59,33,81,56
62,238,187,75,64,36,110,68
64,223,181,73,59,36,116,64
64,221,169,73,56,38,115,65
74,204,163,77,59,40,118,69
82,195,172,83,64,40,107,73
82,148,154,74,61,37,97,64
75,156,155,66,54,35,98,72
74,161,148,63,52,41,101,77
66,179,148,64,46,39,98,68
52,181,134,60,40,37,96,66
52,222,126,69,40,39,78,66
64,226,132,72,44,39,75,57
67,233,163,71,48,31,84,48
64,223,168,67,52,35,109,48
68,243,167,77,59,34,115,41
64,221,165,72,57,32,111,43
50,227,157,71,57,37,105,42
49,248,123,75,59,36,92,45
52,267,154,86,64,34,77,46
56,257,182,78,57,34,118,53
60,250,200,82,58,34,127,53
59,238,210,83,57,31,131,60
59,227,210,82,51,29,133,58
57,233,201,73,41,28,131,56
51,229,170,70,42,29,86,49
44,218,175,64,37,28,77,51
49,281,179,70,40,26,79,44
56,281,182,68,44,28,87,46
56,263,171,69,50,27,85,49
58,272,179,81,57,27,93,54
63,285,148,78,61,31,106,54
59,232,126,74,61,31,105,56
52,217,111,76,61,34,96,55
56,218,129,80,63,37,97,57
60,196,128,69,61,37,90,53
55,183,139,70,60,36,80,55
54,177,146,73,66,36,72,57
53,178,167,71,64,34,77,64
50,208,147,67,59,33,99,63
42,240,160,79,55,35,100,69
43,247,168,83,56,38,142,66
43,254,163,84,51,37,141,63
41,253,152,89,52,37,138,59
40,221,151,90,53,36,117,57
37,208,167,83,55,34,115,56
40,201,163,82,56,31,43,58
43,189,160,76,54,32,49,55
42,179,153,64,50,31,57,57
49,216,166,66,57,31,64,69
52,214,179,69,64,33,101,75
49,205,172,69,65,31,121,82
46,206,172,72,66,31,121,82
48,218,168,74,68,30,115,79
39,176,155,69,60,29,111,68
45,193,142,70,57,36,88,65
46,224,162,80,65,38,87,54
46,231,167,81,68,42,117,62
44,219,165,79,66,43,121,61
45,221,165,83,71,45,122,65
35,205,181,82,67,39,126,58
31,180,169,72,55,39,116,56
29,186,166,70,49,34,91,49
29,188,166,71,49,34,90,50
28,194,178,67,43,34,99,51
36,199,135,69,44,35,109,63
37,211,176,68,41,34,122,63
41,215,190,69,49,36,121,72
44,232,203,74,52,38,129,72
47,238,196,80,53,36,125,68
45,239,199,80,50,34,106,57
46,232,163,77,53,37,107,60
43,223,152,77,51,39,118,56
39,201,135,71,49,38,121,56
41,213,136,67,49,39,118,58
43,226,187,61,58,39,128,56
44,233,196,74,64,38,123,55
47,234,198,75,63,34,118,52
53,266,207,79,63,32,108,57
49,268,214,76,64,32,105,56
48,266,167,81,59,31,101,56
61,271,170,77,58,31,100,57
60,269,189,76,55,33,90,59
56,252,186,80,59,36,93,63
60,265,220,82,57,35,107,70
60,271,219,78,56,43,119,70
48,283,207,72,51,52,162,75
45,277,184,70,53,51,173,72
45,269,197,75,57,52,181,75
65,262,160,81,65,52,187,75
71,281,165,91,68,46,187,75
83,315,194,100,69,38,153,79
84,323,210,111,74,43,158,85
87,335,205,110,76,47,152,84
74,328,204,108,71,51,137,78
72,324,200,102,68,50,145,78
57,268,183,96,64,50,155,73
64,301,185,88,58,50,150,75
71,315,240,86,60,46,171,82
69,306,236,84,63,44,202,82
65,293,258,88,63,46,195,87
73,290,264,88,64,49,188,83
67,247,275,91,71,50,200,73
60,243,244,92,63,48,181,57
64,262,280,97,62,52,165,63
63,254,269,94,63,49,158,65
57,257,265,89,63,45,157,69
55,273,249,91,55,41,134,69
51,258,249,85,52,40,130,73
45,251,222,79,49,40,138,68
42,229,209,79,46,43,135,58
39,237,200,82,47,44,131,48
41,237,200,72,47,41,130,45
43,245,173,85,51,42,153,39
44,228,153,87,51,39,125,38
51,235,143,82,56,41,129,51
52,246,155,84,55,43,146,49
50,219,140,81,53,41,139,53
49,191,127,77,63,45,121,55
48,192,127,67,61,44,119,62
48,249,153,72,65,45,125,53
45,223,152,67,63,43,112,59
45,234,165,79,67,43,116,59
44,244,174,82,70,41,117,62
46,241,182,84,69,42,137,54
43,214,188,91,62,44,176,55
53,230,170,92,63,43,169,51
54,223,169,86,62,42,169,50
52,214,168,72,46,41,164,45
61,256,178,82,48,43,183,50
58,221,162,69,46,39,157,47
54,244,160,80,53,38,155,46
63,332,226,95,71,40,155,49
71,373,249,98,77,39,173,58
64,361,245,97,80,36,165,52
65,362,239,99,81,35,154,55
78,342,247,93,77,39,151,69
75,268,220,92,69,44,161,72
68,219,217,91,63,44,156,68
69,205,208,101,69,42,128,72
68,209,207,98,68,43,138,77
52,227,201,98,70,45,152,74
46,217,181,88,65,45,141,69
46,225,166,83,62,46,124,67
45,222,165,64,54,47,120,65
60,224,170,74,63,50,108,63
57,225,187,88,68,46,84,54
59,229,173,91,68,39,86,53
56,210,157,95,69,35,105,51
54,200,160,95,75,36,106,50
39,207,155,97,73,29,97,46
38,199,142,87,70,33,99,47
38,206,152,76,66,35,92,47
51,210,156,71,65,37,121,46
53,227,157,69,55,35,120,45
53,227,162,68,58,36,117,44
55,214,156,61,52,34,127,70
53,221,167,66,56,31,132,75
46,222,162,70,61,31,86,79
46,214,171,92,62,33,85,79
44,205,182,84,53,33,93,83
57,196,189,85,54,38,99,69
61,201,157,83,49,38,103,64
61,184,167,84,45,39,113,66
65,201,163,67,48,40,113,70
65,202,181,76,53,39,124,67
52,206,170,76,55,33,109,57
46,188,171,73,53,33,111,60
45,193,165,71,53,34,103,62
41,216,162,69,48,33,135,66
49,228,144,78,52,41,166,66
48,248,167,77,49,44,173,71
49,241,181,79,51,44,175,70
50,254,200,89,56,45,179,66
55,243,209,89,58,46,161,68
52,250,209,75,55,43,121,64
54,233,196,74,57,38,113,60
57,251,196,73,60,37,119,61
58,283,229,71,61,40,136,68
58,265,233,87,72,43,136,65
60,267,225,106,83,41,129,66
58,258,221,110,87,44,130,65
55,259,212,115,89,44,117,63
74,219,165,107,88,40,101,53
73,243,147,100,80,38,106,55
72,224,146,86,73,39,118,56
72,243,145,87,70,38,175,64
70,240,159,80,63,36,176,68
50,254,162,93,68,39,171,71
45,231,183,86,68,40,170,70
48,219,183,82,62,38,166,67
50,231,197,89,65,43,114,70
51,229,191,94,67,45,123,65
51,220,195,82,59,44,145,60
54,245,194,84,58,42,138,57
54,273,203,83,57,50,141,63
57,261,191,77,51,45,130,54
58,251,199,78,59,47,129,58
57,239,182,78,58,44,102,57
62,232,164,74,58,45,124,70
61,227,162,81,65,38,131,71
58,250,158,86,66,38,137,72
58,251,142,81,60,37,134,74
87,257,150,84,65,41,151,77
83,255,167,86,64,39,135,60
90,246,165,86,65,42,129,61
98,263,207,93,77,45,131,61
104,273,226,96,76,49,184,63
92,278,228,94,72,47,171,59
90,269,212,90,70,48,172,60
90,285,229,94,67,49,167,58
92,263,224,81,57,45,157,54
91,277,216,78,59,47,79,44
85,278,207,79,57,47,75,44
91,274,213,77,56,47,77,48
85,276,244,65,50,42,70,43
76,253,216,57,44,44,73,46
76,233,224,57,42,44,117,57
80,239,241,59,47,44,122,62
86,253,254,63,55,43,126,62
90,243,222,65,59,43,128,66
93,269,225,78,65,46,129,73
86,266,212,73,61,38,116,70
78,256,197,70,61,36,113,64
63,239,174,68,59,39,104,60
87,299,156,88,65,45,108,65
84,292,169,80,59,40,110,74
90,290,178,83,61,42,136,75
89,279,186,88,66,41,150,76
95,278,198,92,63,43,149,78
79,210,197,76,57,38,154,78
79,216,187,94,66,42,158,73
82,230,188,107,76,63,128,69
90,258,217,105,74,98,129,72
88,310,232,117,83,100,139,75
94,404,282,113,80,109,147,67
97,400,289,100,75,115,171,56
91,398,277,87,65,114,165,56
93,405,262,87,63,94,151,54
98,395,289,77,52,93,158,56
88,297,277,96,60,89,152,65
82,293,297,97,58,86,132,76
80,279,311,96,58,86,150,77
74,276,309,94,56,79,156,76
72,336,295,112,67,79,145,72
69,358,258,111,61,75,136,64
72,349,225,113,60,66,122,48
72,358,208,117,65,45,89,45
66,362,196,119,63,45,74,47
59,325,208,98,52,40,59,49
65,291,234,81,56,37,67,53
62,300,245,79,55,40,94,52
63,288,248,70,50,44,102,60
66,278,253,71,56,43,103,62
64,214,220,74,59,44,105,62
58,247,222,77,62,46,101,62
65,245,211,71,62,44,100,69
65,254,221,72,64,43,108,73
66,247,220,82,71,41,113,69
67,306,234,83,71,46,111,70
69,273,238,83,75,44,115,75
68,273,240,88,78,45,122,76
69,274,243,100,77,49,115,64
66,265,236,90,66,55,109,63
66,206,220,94,70,50,108,57
58,263,251,96,59,49,104,47
77,277,262,98,54,56,179,49
78,284,259,88,50,52,191,63
80,281,268,95,54,48,194,65
79,286,259,101,58,48,199,68
83,247,227,97,60,50,200,74
65,265,223,107,65,41,113,67
69,250,222,113,69,55,159,65
68,285,224,116,73,55,177,65
75,324,235,110,69,62,183,68
76,389,250,121,73,64,203,83
82,394,240,112,76,65,209,103
85,433,283,109,77,64,203,116
109,486,288,112,79,69,215,126
107,466,284,113,72,68,220,126
132,449,296,117,68,69,204,115
131,454,323,121,63,69,205,100
131,451,338,126,62,69,198,85
112,381,361,118,68,66,179,85
110,395,397,127,70,59,166,93
100,376,387,118,75,56,168,103
97,369,399,119,76,55,180,103
116,445,377,142,80,46,150,102
121,447,367,146,72,42,159,100
130,422,327,134,74,53,186,96
116,482,320,136,72,58,196,94
116,483,311,139,80,57,181,102
106,432,314,113,78,57,191,100
103,426,285,111,79,59,177,91
96,431,277,109,77,51,143,89
91,373,255,108,73,49,121,79
114,344,226,108,66,51,163,79
110,271,187,103,62,50,164,75
108,281,294,97,57,49,170,79
108,279,299,100,55,50,182,79
118,279,322,112,67,50,188,99
101,335,349,110,65,51,170,117
103,355,343,115,74,55,172,141
107,342,285,125,78,51,159,142
108,341,310,124,79,48,153,151
105,353,285,114,79,51,165,141
100,334,286,107,77,52,194,127
89,327,299,104,70,51,177,104
90,384,307,97,74,53,201,104
98,401,307,100,87,60,213,103
103,445,475,110,90,62,207,107
106,427,460,116,95,59,184,121
111,418,457,116,104,71,208,134
110,386,439,126,105,93,250,147
101,384,429,159,115,94,246,147
121,330,252,172,126,92,239,144
122,365,281,175,122,95,252,140
117,374,272,184,124,89,257,124
115,353,301,180,126,68,215,106
118,366,310,152,106,62,212,92
80,336,293,141,85,68,225,112
71,290,255,133,90,68,202,112
77,299,279,122,81,63,187,121
79,302,242,127,76,63,173,129
87,274,267,139,106,72,180,135
89,260,276,134,110,71,174,118
94,247,281,133,112,74,186,102
92,226,271,133,114,78,198,94
101,237,278,132,120,80,209,87
96,215,226,117,96,75,206,80
102,232,230,111,93,68,213,77
98,226,220,107,82,64,209,94
101,218,212,100,74,55,212,96
89,263,235,98,60,49,203,93
97,283,236,92,58,44,194,92
88,273,230,80,58,56,203,97
93,292,221,92,70,60,199,114
86,312,237,92,74,62,185,130
86,275,229,93,78,62,181,143
84,258,240,95,76,63,176,154
89,256,262,94,73,55,170,153
92,251,268,100,75,51,157,141
101,289,330,123,81,56,138,133
100,299,343,117,78,58,157,127
96,330,348,126,86,67,172,115
110,329,333,136,90,66,163,121
127,345,339,134,89,61,160,118
123,303,266,124,89,61,176,130
121,297,273,125,85,65,182,130
135,310,273,120,77,58,179,141
126,331,277,118,80,58,167,150
113,320,260,114,83,67,234,153
116,376,295,118,81,65,225,142
134,381,292,118,84,59,201,142
115,354,294,115,88,59,222,141
114,365,341,113,88,61,244,124
121,389,368,124,95,64,190,132
124,349,377,117,96,71,201,131
106,350,354,118,94,74,225,149
101,355,358,119,93,74,217,139
122,411,335,127,96,81,212,157
133,453,373,130,88,80,226,147
127,466,389,130,86,74,218,139
131,474,429,138,95,109,227,120
145,540,461,149,96,117,222,129
137,490,457,143,93,113,217,117
131,481,468,149,103,119,276,152
135,460,467,151,108,119,288,168
137,466,450,155,112,96,268,173
126,412,507,156,123,109,292,188
153,565,550,181,130,113,291,191
150,541,564,176,122,102,234,161
153,551,584,177,131,110,288,160
159,613,593,185,133,117,301,173
165,654,600,191,137,105,268,192
144,518,569,186,158,104,294,190
152,563,565,215,179,117,331,233
153,603,553,224,178,123,290,241
150,527,585,215,176,110,278,226
148,461,523,209,167,105,301,199
152,550,547,217,145,107,281,202
155,565,571,238,156,122,278,183
176,570,564,265,171,128,328,225
172,595,572,286,188,148,365,247
175,617,644,297,208,151,359,266
184,647,666,312,224,160,385,275
176,698,644,284,208,164,377,268
154,714,695,257,192,165,335,226
162,701,653,235,174,173,340,217
180,754,593,255,171,173,340,206
163,693,575,233,175,164,322,207
158,646,604,251,171,166,369,202
162,605,525,242,172,154,366,203
163,666,602,263,190,134,325,187
163,629,573,286,200,130,329,180
186,632,548,298,192,142,316,175
190,574,454,281,191,117,261,171
182,553,488,292,195,149,300,172
214,523,499,327,232,146,306,220
201,484,520,291,224,145,295,221
178,479,498,270,213,132,316,218
169,499,505,261,210,137,293,223
175,538,487,267,215,108,280,233
153,520,435,219,162,112,317,196
148,506,441,193,137,112,319,187
169,477,477,187,137,117,333,205
209,683,614,239,151,132,347,199
162,605,525,242,172,154,366,203
163,666,602,263,190,134,325,187
163,629,573,286,200,130,329,180
205,696,642,224,136,123,338,183
188,694,632,205,134,124,334,174
192,697,640,219,139,169,347,235
193,776,772,260,184,169,324,238
182,661,769,243,194,150,309,298
193,662,736,253,201,160,313,316
196,633,707,250,202,220,439,341
197,628,680,241,202,200,465,327
181,636,698,221,189,201,467,332
155,567,612,217,186,203,466,284
168,608,633,233,193,267,622,283
213,640,716,250,209,230,542,266
221,650,758,254,212,229,515,252
222,535,591,230,192,241,509,228
222,582,605,213,191,242,529,235
217,566,683,195,183,181,371,226
195,552,603,183,173,162,348,240
185,579,579,183,169,161,336,228
194,594,567,194,162,138,349,211
184,535,539,184,142,141,330,197
188,477,437,166,125,125,278,199
173,535,472,165,106,127,258,189
176,503,494,170,126,114,280,201
180,511,495,161,122,118,259,217
185,497,474,151,114,110,259,214
169,462,449,150,113,103,235,199
155,386,534,138,127,108,307,170
147,397,504,130,109,106,301,142
133,374,497,132,113,98,304,127
125,382,502,142,115,115,338,140
120,392,504,139,116,112,347,125
144,411,400,162,133,110,293,147
172,410,378,156,125,111,293,155
164,448,417,151,122,134,317,159
166,459,412,152,125,124,270,148
174,480,400,164,129,122,337,156
154,451,453,143,101,123,356,136
117,432,444,140,112,135,390,133
117,427,508,153,119,127,378,124
129,541,533,190,133,118,369,138
133,574,598,192,137,122,326,141
142,562,573,190,147,158,405,158
136,556,614,211,159,156,393,164
135,553,574,210,162,161,456,168
136,415,563,172,148,166,485,156
119,358,496,157,146,169,480,153
123,414,491,169,148,136,429,137
141,412,462,143,135,124,401,133
149,394,409,128,124,99,308,127
153,426,408,133,128,122,298,121
161,446,418,141,144,116,305,142
164,417,372,140,152,115,271,158
149,417,359,145,144,124,274,160
143,399,362,151,150,129,287,160
138,405,395,162,163,100,244,161
125,360,407,157,144,109,244,145
104,360,434,154,133,113,235,141
121,378,451,154,139,108,236,136
123,393,467,147,135,107,247,144
105,392,436,129,129,112,248,158
102,397,423,131,133,108,246,147
107,396,380,117,115,111,272,131
93,397,334,117,103,124,276,143
104,400,331,154,142,125,259,147
120,399,319,163,139,156,374,162
123,391,292,159,137,160,364,170
139,394,285,153,134,152,356,174
159,405,342,157,141,142,348,162
161,408,344,137,113,139,357,163
152,393,358,134,111,104,241,138
154,437,361,132,110,88,245,126
148,419,365,138,113,90,267,131
129,394,313,137,108,91,292,150
118,367,291,115,96,97,288,134
113,361,294,110,88,91,304,131
121,324,304,120,93,100,305,147
113,329,305,116,98,100,282,136
109,361,311,110,108,99,272,123
104,357,300,116,109,88,270,119
107,352,301,111,108,86,240,119
106,392,289,104,106,76,234,106
102,396,276,103,104,78,214,102
98,387,334,98,92,72,203,105
99,391,356,94,84,79,206,109
109,380,326,92,82,75,210,108
110,418,349,145,112,89,208,109
113,420,372,148,109,83,204,109
120,475,425,158,109,89,189,110
121,484,409,160,113,83,175,111
117,511,414,165,110,89,223,118
106,433,393,118,73,70,211,109
108,441,426,136,104,82,207,120
100,367,338,131,107,82,204,112
100,348,378,125,105,90,206,109
103,298,376,116,106,96,186,98
105,297,392,112,103,97,180,95
110,317,343,99,82,94,193,90
111,327,348,95,75,86,206,108
128,376,361,122,69,80,258,115
122,389,351,122,72,71,225,120
127,398,330,125,74,69,231,130
127,405,376,121,68,58,229,145
123,379,350,123,76,74,255,131
117,340,287,108,85,89,203,135
129,344,319,110,85,87,206,132
127,375,353,112,86,87,192,129
116,368,335,108,80,88,203,108
116,361,330,101,79,93,162,99
114,395,376,98,75,83,155,93
120,454,388,137,91,85,167,99
113,463,397,150,96,86,171,103
110,447,373,152,97,86,142,110
110,448,367,151,90,66,137,119
97,407,320,146,91,63,132,124
73,366,349,121,76,57,101,115
92,389,334,133,76,71,143,112
99,391,333,131,75,89,144,110
105,405,339,140,82,101,147,130
114,443,336,142,83,102,150,123
116,434,290,139,79,105,166,130
101,369,261,110,79,96,140,137
91,332,247,111,82,80,144,131
80,314,240,99,79,66,134,100
66,263,233,101,74,66,136,88
55,253,238,111,81,69,116,120
49,264,224,112,77,65,111,114
56,286,246,104,72,91,117,128
57,310,270,108,68,95,130,152
54,309,329,101,71,91,148,162
54,289,304,97,77,88,154,134
59,273,351,114,87,91,172,130
52,249,366,115,87,69,174,127
51,218,349,119,94,63,168,108
48,201,307,119,90,62,149,91
46,264,319,107,76,56,153,87
40,254,283,89,66,48,119,82
38,260,236,84,78,50,105,61
50,294,239,78,73,55,127,62
55,296,222,96,90,58,146,102
55,225,179,92,91,57,138,105
52,227,161,92,92,61,140,107
53,212,153,100,85,55,131,108
42,170,150,97,86,48,100,99
39,175,164,85,77,48,100,72
39,193,204,89,78,53,112,84
39,208,202,84,71,46,112,83
38,214,214,75,64,48,115,83
37,222,227,75,57,43,117,81
39,214,230,67,48,42,87,114
40,196,235,61,49,35,65,107
42,191,231,70,50,38,57,110
44,192,223,75,55,37,70,116
45,219,264,83,71,40,113,117
41,232,286,89,69,37,134,95
41,238,262,93,68,38,140,114
39,225,285,92,70,36,146,112
42,239,288,100,72,34,138,113
42,205,270,98,73,50,119,116
41,186,232,92,74,49,101,102
42,181,230,89,77,54,103,75
48,214,217,85,76,55,99,95
53,219,231,80,73,61,119,98
56,276,213,76,62,51,106,106
58,284,210,73,60,52,112,109
57,288,227,77,58,54,104,110
58,270,246,84,66,57,105,117
61,264,266,77,75,54,90,145
56,198,253,75,78,62,170,151
56,186,255,77,80,61,173,152
63,257,248,76,77,58,176,151
60,263,222,80,75,60,183,136
50,258,186,82,62,56,182,94
48,259,183,77,55,44,112,75
55,295,204,83,56,50,131,83
56,249,195,90,70,48,155,106
53,249,188,86,70,49,157,108
56,251,175,86,71,48,159,110
59,251,202,97,83,54,161,112
61,283,197,98,89,55,137,103
56,279,195,91,78,58,160,118
54,264,183,86,72,51,151,117
55,306,210,111,85,57,164,119
58,320,188,113,80,55,162,115
50,266,166,111,78,49,160,113
46,252,154,120,78,46,113,94
53,280,181,144,91,55,144,96
52,238,167,126,82,51,132,93
52,229,175,123,76,59,154,95
50,235,179,120,74,57,155,92
56,253,202,133,86,64,166,78
51,258,228,113,77,59,153,73
46,245,226,109,71,62,160,83
56,282,231,130,86,67,139,113
56,276,246,132,82,72,153,123
61,274,241,120,73,77,143,139
76,246,218,123,76,109,177,149
78,243,219,125,79,114,205,144
71,203,210,103,61,112,206,117
75,332,295,115,78,110,208,155
78,383,381,140,102,141,236,170
76,428,510,141,121,127,278,186
87,444,528,141,131,124,265,197
96,453,551,135,132,126,267,199
96,373,516,124,131,125,258,165
89,318,461,88,121,86,227,134
86,276,350,97,112,74,119,96
78,260,332,94,99,71,110,71
65,232,316,105,123,74,138,72
71,224,297,112,117,75,162,81
90,232,288,114,111,73,163,88
96,227,246,99,118,76,170,118
101,238,250,100,123,76,174,127
101,234,214,88,100,63,170,133
96,224,223,85,98,60,146,129
78,224,229,87,99,59,165,128
75,202,227,82,73,62,180,123
66,171,203,82,64,64,178,120
77,199,212,85,68,65,161,111
80,233,219,93,76,80,166,127
85,225,244,94,80,81,207,136
97,295,258,111,92,111,203,146
102,313,271,115,98,114,198,157
101,329,321,119,99,115,203,161
98,324,336,121,97,109,219,149
102,342,324,121,92,107,178,138
86,317,322,108,81,139,192,114
99,380,341,145,99,158,212,139
100,382,310,155,101,164,216,155
99,393,285,149,110,169,202,155
91,380,292,143,106,171,188,154
89,372,295,141,115,133,169,147
71,318,370,104,103,113,180,119
71,324,360,99,107,104,180,103
78,301,363,95,94,105,182,100
77,287,349,90,94,102,201,102
86,284,323,91,88,89,192,98
97,304,199,98,92,79,149,83
93,263,181,98,90,77,151,74
91,259,184,102,92,74,172,93
91,283,217,108,95,73,162,119
86,267,222,108,90,71,164,121
70,225,228,97,75,74,160,115
73,251,233,86,72,76,153,112
74,282,221,90,76,65,145,124
75,294,209,86,76,60,139,122
73,297,230,89,85,61,137,121
82,314,237,98,96,60,140,121
75,319,258,99,91,59,140,121
71,292,259,91,90,68,135,112
68,273,260,106,97,83,126,87
69,275,246,100,87,86,128,97
57,280,246,92,74,84,147,100
62,286,238,88,76,83,168,100
60,292,243,91,72,75,164,96
61,315,293,78,67,63,174,98
69,334,348,89,69,58,169,98
73,312,339,89,78,56,160,118
70,294,352,91,78,61,136,120
71,301,366,92,80,82,141,110
72,283,342,92,79,82,130,134
69,285,294,97,78,82,143,134
89,339,300,103,90,86,154,119
95,334,270,105,97,84,156,120
99,345,253,106,96,123,190,126
100,355,230,106,95,126,203,106
99,332,228,107,96,126,196,111
81,296,289,107,84,137,226,109
77,307,332,113,97,163,261,128
72,343,379,120,101,126,268,121
92,366,408,127,102,129,270,128
110,461,464,152,115,141,279,157
124,473,462,164,126,135,250,160
130,486,451,167,114,106,295,152
131,445,414,164,115,107,272,153
136,428,377,159,123,102,273,166
124,393,328,140,117,92,271,141
108,391,320,138,100,83,264,136
103,428,393,140,95,82,168,127
106,435,386,135,91,77,179,137
91,441,394,132,78,72,170,135
91,396,394,148,78,62,190,133
90,382,365,134,88,62,189,132
86,316,260,118,88,55,207,131
84,320,292,124,82,57,195,116
83,287,297,129,81,54,186,79
71,274,300,94,70,57,156,118
78,332,293,121,65,56,171,120
81,377,323,127,73,66,163,145
85,394,294,121,76,68,165,147
86,395,279,113,76,74,173,155
104,403,259,120,83,72,167,123
104,392,310,100,82,70,184,124
109,351,299,96,74,61,172,100
107,335,319,95,76,64,174,127
102,343,336,103,76,61,169,125
91,364,387,110,67,67,182,126
92,363,378,121,64,72,168,131
82,355,359,121,64,76,165,127
90,343,362,126,70,86,180,98
113,375,354,130,75,88,189,104
114,344,322,132,83,89,191,97
125,386,273,120,85,88,202,91
128,387,278,122,87,94,220,93
124,398,252,120,79,90,188,99
103,370,284,113,75,89,205,91
103,360,258,90,66,84,194,92
85,268,260,80,61,80,188,87
97,260,257,76,60,64,159,86
93,283,285,80,62,51,171,86
104,285,232,80,60,53,144,92
98,296,204,82,60,58,145,105
99,304,235,82,59,57,118,112
86,321,292,93,61,68,127,115
85,289,285,86,58,64,126,109
89,264,284,85,58,59,119,102
97,255,286,92,58,52,126,130
108,293,284,101,53,74,166,131
108,290,246,88,48,69,159,134
109,328,255,92,51,71,149,138
98,341,259,92,53,72,147,134
89,341,273,93,58,75,143,102
70,281,241,94,74,54,89,93
74,303,233,102,75,51,91,90
91,253,211,98,73,49,105,110
86,246,208,101,71,54,115,114
97,240,194,92,64,53,108,112
103,280,198,84,49,60,124,131
98,239,176,79,49,56,135,131
87,274,198,90,54,59,134,125
86,264,193,90,60,65,131,124
91,314,211,92,73,73,150,145
96,332,227,98,74,69,144,136
99,332,236,98,76,70,130,134
99,311,210,98,82,67,126,130
104,317,220,91,85,62,132,130
91,280,283,94,75,57,163,111
82,254,285,87,73,54,155,111
82,256,279,88,74,52,157,108
82,245,276,71,66,54,152,97
79,265,274,76,73,53,154,114
85,261,194,70,69,51,130,107
83,232,166,71,74,53,140,121
105,256,174,75,78,54,142,126
102,254,175,76,74,54,142,126
103,231,172,76,62,49,129,121
94,223,160,91,78,47,116,119
94,248,205,94,73,49,109,94
72,234,192,88,68,48,118,94
92,268,199,95,73,51,129,107
94,276,224,110,78,60,144,120
95,284,250,99,66,64,130,125
101,297,234,101,70,61,134,127
97,334,275,103,72,67,160,129
86,367,291,112,75,80,185,118
80,368,273,96,67,76,183,92
83,373,252,101,69,71,182,79
72,346,246,94,68,73,189,72
70,301,209,96,73,71,159,78
106,242,172,77,68,58,139,92
106,259,193,75,75,56,140,93
108,249,187,66,71,61,169,94
113,250,179,70,72,61,159,95
118,288,195,83,81,60,159,82
83,278,227,93,93,60,143,65
94,288,209,101,93,63,142,70
88,278,207,103,94,60,117,83
95,273,226,101,94,67,140,105
95,229,216,89,81,65,139,107
98,249,208,92,78,66,147,110
106,195,202,88,75,69,158,157
110,206,206,93,81,78,149,163
100,222,174,93,75,82,123,157
98,290,212,102,71,85,123,158
92,278,198,98,63,81,107,159
68,294,221,92,76,79,80,104
82,309,224,87,73,87,114,83
87,293,226,94,79,80,137,89
88,265,224,84,81,76,137,83
87,280,259,88,80,78,144,74
92,272,255,94,68,74,152,78
80,281,290,99,67,54,146,111
96,281,294,88,67,48,125,109
95,244,257,81,62,48,129,125
100,236,220,83,62,54,133,128
96,301,227,84,61,52,133,144
95,310,208,81,55,48,111,120
88,317,215,83,50,47,113,120
94,340,234,87,55,47,116,121
109,343,251,88,60,49,149,154
109,283,240,90,64,52,145,155
109,237,210,84,65,55,149,154
117,336,226,89,71,58,147,146
112,321,241,92,69,60,143,139
93,321,228,86,64,57,130,122
100,328,218,80,70,59,122,112
108,373,252,107,76,60,125,120
104,291,248,105,76,58,138,122
105,323,236,110,80,55,160,125
105,331,237,106,83,59,136,111
115,338,247,110,73,56,139,101
118,297,215,95,69,54,155,100
110,328,208,96,66,57,161,112
111,303,193,93,65,57,145,105
109,280,184,97,61,52,151,101
92,267,175,96,64,52,158,106
84,312,192,94,66,50,157,106
82,291,195,102,66,55,183,101
80,269,188,98,64,63,189,104
83,261,189,92,66,71,195,106
98,342,223,105,67,75,189,115
107,312,242,99,60,76,193,125
104,355,247,93,57,71,161,119
102,382,275,98,58,66,158,121
99,387,272,96,51,52,154,116
88,317,242,73,45,51,193,100
98,313,215,77,49,49,177,92
102,302,198,69,49,49,173,91
103,279,178,77,49,46,212,92
115,299,189,84,55,47,215,111
115,352,236,94,60,43,177,122
99,342,242,91,61,43,175,111
92,293,232,98,66,43,173,109
92,300,234,86,64,40,105,98
77,283,254,82,60,40,75,70
81,267,225,71,59,34,73,50
95,280,213,77,66,51,70,70
94,286,252,87,79,61,149,99
100,295,256,92,85,64,173,103
120,306,250,95,84,67,177,110
123,318,253,95,94,68,180,116
110,311,251,92,88,59,181,111
114,302,224,80,75,53,137,108
110,303,207,77,69,50,111,122
105,302,177,83,76,50,122,119
101,287,181,86,68,52,137,117
100,295,190,89,69,64,142,118
97,308,197,87,66,65,133,129
100,310,242,92,74,65,132,117
102,302,253,83,69,65,121,120
95,291,240,88,65,64,103,123
89,283,238,90,74,52,98,118
88,266,243,89,75,53,91,85
103,245,196,94,78,57,118,77
97,280,192,99,77,56,137,70
96,255,208,95,76,53,140,110
97,258,211,93,65,49,145,115
103,324,214,97,66,48,152,115
98,326,221,85,50,43,130,120
89,295,230,85,54,42,106,120
91,297,227,84,54,46,96,98
94,324,278,86,55,55,110,95
93,253,254,86,66,51,103,96
88,255,270,87,68,53,101,92
83,279,293,84,72,54,99,89
82,283,298,90,74,53,98,58
80,260,254,83,76,56,149,73
75,283,263,74,63,60,160,81
70,307,303,84,67,58,169,82
70,275,275,83,65,56,170,85
68,298,272,78,64,60,178,93
96,317,317,82,60,50,158,110
104,302,313,84,62,51,148,110
103,295,260,76,64,51,147,113
110,310,262,79,67,54,148,115
114,294,268,77,69,50,137,108
96,285,214,84,69,61,100,83
91,299,233,88,68,59,95,76
97,267,222,85,59,59,84,80
101,267,267,83,65,65,85,105
98,273,269,84,63,73,98,125
95,251,288,71,66,61,86,129
95,261,277,69,69,61,86,132
87,271,280,81,87,65,78,125
80,262,254,77,76,56,71,106
82,264,266,87,74,45,71,92
90,263,238,87,76,59,101,106
91,259,276,86,76,64,109,108
95,272,308,76,65,60,122,111
92,306,298,82,66,60,123,119
91,328,301,76,74,62,129,115
87,370,311,89,73,52,111,98
87,372,290,94,82,54,108,103
87,409,285,105,79,54,97,105
115,382,272,101,80,62,104,90
122,354,266,96,75,84,79,87
117,326,260,89,77,94,79,80
117,320,259,102,69,95,78,79
113,284,287,93,73,97,77,72
123,336,304,103,84,100,76,89
118,329,289,109,92,92,79,107
122,313,304,106,91,84,77,109
121,293,286,88,89,79,70,100
121,279,236,83,85,77,73,99
81,204,247,75,74,68,59,83
73,194,246,68,66,57,61,59
73,221,234,78,68,56,66,68
93,277,267,79,79,58,68,82
92,279,276,94,82,59,66,85
94,291,272,91,79,60,68,87
100,314,289,92,76,56,66,89
93,289,273,85,77,62,61,81
70,243,239,91,71,71,60,65
83,269,270,115,85,78,60,62
84,289,259,127,91,80,64,74
97,300,242,134,94,84,63,82
97,318,273,137,96,80,60,99
101,321,272,135,93,79,63,106
90,296,231,112,79,73,61,113
90,297,222,102,73,74,58,107
80,280,225,96,72,75,61,100
96,271,210,90,66,79,58,84
98,259,216,84,63,83,65,77
107,270,221,76,60,82,68,77
110,259,224,77,66,82,82,97
107,268,251,78,71,87,94,105
104,288,235,75,66,89,97,104
112,319,237,76,65,79,108,121
103,302,222,78,69,82,114,121
109,304,226,69,59,79,117,116
108,289,176,61,57,69,113,115
99,301,195,68,69,66,110,119
95,275,184,75,77,62,95,103
100,272,191,77,75,56,88,96
89,265,177,82,79,58,71,79
88,255,175,85,89,58,84,75
96,207,164,93,88,50,129,69
89,216,165,90,82,48,131,59
90,259,200,110,90,49,132,63
89,242,196,110,95,47,134,63
104,256,195,108,85,45,122,53
97,249,189,100,79,46,80,58
95,245,201,111,84,49,76,76
91,197,160,87,71,45,71,87
91,232,184,88,66,44,66,89
69,257,188,89,59,42,69,91
62,266,183,95,60,113,72,85
57,284,191,80,50,117,71,78
71,338,227,88,65,133,77,75
71,331,250,83,68,133,76,87
86,319,251,78,70,135,71,86
88,321,264,78,71,95,66,109
88,307,258,82,72,97,70,109
72,263,236,75,63,78,61,109
83,273,247,82,55,78,60,113
71,267,261,95,56,79,58,114
70,280,263,96,53,70,56,98
69,271,256,96,49,60,60,100
75,264,275,93,43,60,115,106
101,295,263,103,57,62,118,95
100,281,264,98,57,55,123,93
104,263,279,89,60,51,121,94
108,280,301,99,66,57,119,89
107,277,278,97,67,54,71,73
73,215,257,88,58,50,70,74
97,226,245,88,61,50,62,81
95,243,223,88,61,49,64,80
100,267,199,72,55,49,71,81
102,330,251,80,55,47,113,92
107,333,254,75,53,47,119,94
85,324,262,70,46,47,120,90
84,306,277,67,40,45,120,83
73,269,303,71,42,38,114,79
62,185,283,63,47,36,67,57
51,196,285,70,45,34,51,41
46,210,286,71,45,39,60,40
43,237,283,80,52,43,56,48
48,252,264,88,58,47,96,60
54,261,254,99,68,53,100,65
53,241,253,96,75,57,103,73
90,308,323,99,76,57,107,83
104,298,309,103,83,61,144,81
105,312,303,96,80,58,149,77
122,309,316,97,73,54,148,82
126,317,330,92,69,50,147,75
120,256,256,100,87,50,143,75
120,270,260,97,83,53,157,83
120,261,281,106,85,60,143,87
126,267,273,99,85,61,149,102
141,317,253,107,86,63,153,105
133,347,296,97,65,62,209,103
128,366,336,102,59,53,196,97
127,356,313,93,55,46,194,90
113,366,295,93,55,42,192,76
94,324,290,89,57,40,220,69
102,308,252,101,69,40,172,66
95,263,187,89,68,45,153,68
94,258,194,92,70,56,171,88
125,244,200,91,69,60,205,79
128,285,203,99,74,59,172,82
124,247,183,90,69,57,167,83
123,255,183,93,73,57,164,81
145,293,188,94,76,63,192,65
114,283,177,94,75,60,157,66
111,234,188,90,71,62,161,73
123,243,201,85,69,62,176,70
142,238,201,83,67,63,207,88
128,188,211,84,65,49,182,89
135,176,214,76,63,49,178,92
147,251,277,85,55,51,173,91
139,254,289,89,58,50,167,91
123,270,300,89,53,50,163,85
116,275,295,89,50,46,144,90
117,297,308,93,56,46,150,90
112,252,277,88,60,46,158,84
107,251,264,92,59,49,191,86
107,241,298,92,59,45,161,79
135,244,293,90,59,49,173,78
127,237,285,87,58,48,169,77
125,227,243,69,55,48,168,79
130,221,258,62,57,45,141,80
134,223,221,65,59,43,153,76
132,237,218,66,59,46,134,71
130,218,217,65,56,47,160,82
136,252,243,71,54,48,157,83
137,252,222,66,51,47,146,79
135,254,215,69,53,48,129,77
114,238,216,75,55,41,138,69
114,245,217,74,53,40,122,59
111,217,216,74,57,40,139,82
110,212,222,78,57,42,141,83
105,197,217,70,52,42,149,86
112,190,209,60,51,44,156,91
119,193,213,67,54,42,147,85
107,178,187,88,66,46,222,68
104,205,164,96,74,46,221,66
128,232,199,99,79,49,232,65
120,231,196,99,77,45,233,64
112,236,183,98,75,48,246,75
119,235,174,79,64,40,177,70
117,223,174,68,52,47,191,87
100,235,144,77,54,53,187,93
100,230,171,88,57,55,186,97
102,218,171,89,61,57,200,105
118,246,207,95,69,58,211,113
119,247,217,97,74,58,210,115
134,206,210,89,77,57,208,117
129,207,197,89,79,62,217,125
140,229,207,87,74,58,195,121
129,233,199,76,66,59,193,121
129,231,210,81,66,58,190,114
129,253,209,83,59,52,179,110
164,288,231,74,56,46,166,104
157,285,219,78,81,50,157,110
159,268,201,82,85,53,149,104
189,279,245,82,87,57,133,105
202,292,277,101,88,56,129,108
198,263,265,105,86,55,135,132
223,324,291,130,82,61,148,121
230,323,288,128,84,63,135,135
228,311,239,125,83,56,139,164
208,293,254,113,82,60,150,171
213,302,259,120,87,63,158,150
196,212,246,95,75,59,148,158
189,214,252,105,76,60,174,148
168,246,253,103,73,75,180,144
189,252,227,100,74,92,189,142
187,297,242,105,74,93,168,142
180,300,236,98,74,93,166,136
242,322,236,91,72,89,152,144
291,300,241,92,73,78,147,127
291,319,214,95,71,53,146,116
291,265,173,72,64,61,155,114
341,301,186,78,60,59,153,114
307,280,177,79,55,56,138,111
258,269,166,81,53,55,137,90
242,242,155,71,48,57,126,88
229,272,242,82,54,46,118,101
166,301,268,97,67,46,115,122
145,290,285,96,67,47,146,121
144,292,296,93,66,48,139,125
145,283,297,95,67,46,144,125
144,261,285,89,67,39,148,123
248,261,256,72,56,45,154,104
254,273,241,73,61,76,184,115
253,272,233,72,57,77,214,125
264,268,238,73,62,78,214,125
288,266,193,79,68,78,208,118
184,201,175,72,71,77,234,112
175,178,173,72,67,51,203,107
196,255,180,78,72,51,170,102
194,320,206,88,74,56,217,118
154,314,199,85,70,61,236,118
155,315,204,86,68,64,242,131
163,321,213,88,74,68,235,126
177,289,200,94,81,70,250,129
164,269,219,117,88,63,200,115
169,271,227,116,86,66,196,114
168,270,230,123,89,73,202,140
208,278,232,122,84,67,244,135
187,293,269,125,89,66,240,132
191,253,258,95,79,65,240,132
199,252,241,98,81,77,251,132
207,244,237,90,76,68,230,106
240,240,227,97,83,75,236,114
245,247,197,78,66,75,230,116
259,240,150,75,70,77,234,114
260,240,146,70,66,65,230,121
257,251,140,70,68,64,235,127
251,254,151,60,59,52,182,142
237,209,145,61,59,51,178,134
218,204,142,61,53,50,186,136
211,206,145,56,50,41,180,137
242,220,164,57,55,44,161,127
176,221,166,56,57,46,157,105
186,228,160,57,63,48,168,100
187,237,169,70,64,51,177,113
192,243,177,79,68,49,160,107
163,244,172,80,65,43,159,103
167,271,160,81,66,43,165,110
157,264,152,81,61,43,167,115
149,273,171,73,61,45,165,106
130,276,161,70,60,56,165,106
116,265,168,64,54,58,153,114
124,248,158,66,55,59,181,105
129,358,214,95,65,63,182,107
168,375,200,98,63,60,192,107
170,385,214,99,64,51,190,114
163,376,216,100,65,51,192,104
144,382,294,114,66,49,158,101
135,317,297,100,57,46,154,103
110,319,320,101,61,44,129,109
103,338,335,104,57,43,127,104
121,405,370,111,65,43,124,99
164,547,482,120,90,48,123,108
166,562,529,124,93,45,131,96
151,544,528,120,90,66,141,112
154,539,520,117,93,70,139,109
140,507,503,113,89,71,140,110
106,354,399,90,67,69,140,105
100,300,307,79,77,67,112,106
99,310,302,81,78,46,69,72
91,295,302,83,78,42,79,65
86,338,361,93,78,45,94,58
65,346,319,91,82,44,95,46
66,341,338,87,73,43,96,43
81,341,329,97,74,43,93,47
97,328,335,93,74,45,77,50
123,264,259,86,73,39,44,53
128,225,287,83,61,37,43,54
130,262,337,89,55,37,43,54
127,257,338,86,58,39,43,56
122,261,337,92,58,38,44,54
97,271,394,100,78,40,45,59
104,306,415,101,82,42,68,64
109,326,444,109,97,43,66,77
100,375,504,102,93,44,80,82
99,403,513,100,100,46,84,82
98,400,478,88,86,43,83,77
79,377,453,86,85,44,66,73
94,368,409,91,79,43,63,65
116,442,439,121,92,44,47,56
112,420,423,118,81,40,43,53
138,428,479,129,87,47,46,56
137,425,500,133,102,51,42,63
120,435,493,126,98,51,40,56
104,317,402,105,90,46,39,57
109,330,425,109,92,45,42,59
97,356,367,97,90,42,39,58
101,356,353,100,73,36,39,49
123,309,327,111,94,36,41,72
137,368,370,107,91,42,42,70
138,383,370,110,96,44,33,72
125,350,368,116,95,41,36,71
149,424,352,120,94,43,40,80
150,437,373,110,79,43,39,68
152,484,379,131,87,43,41,73
159,481,381,125,89,46,45,72
178,528,400,152,111,53,49,85
163,498,449,150,121,54,51,82
148,492,435,150,124,53,51,82
128,395,396,134,119,50,46,76
127,493,496,207,127,51,49,82
111,557,580,216,124,46,50,93
116,586,577,243,136,54,51,100
111,579,568,242,138,56,50,95
112,584,615,250,139,54,51,97
106,528,564,200,132,49,47,95
96,478,576,190,126,54,45,80
78,413,531,159,107,44,38,72
83,415,536,158,96,44,40,71
85,409,509,154,106,47,40,73
77,369,472,165,111,49,42,75
74,275,364,148,110,47,41,68
72,262,356,139,104,48,41,59
73,266,378,138,103,47,40,59
87,305,363,137,92,44,42,59
84,322,356,123,89,46,39,51
85,329,302,116,85,42,36,44
87,367,345,119,84,42,35,47
86,385,353,124,89,43,37,61
77,377,346,114,87,43,35,55
86,357,361,108,79,40,34,59
93,357,391,98,77,41,39,62
94,345,386,91,80,40,40,62
94,358,389,92,80,40,40,53
97,390,433,134,94,48,39,59
93,453,429,143,106,50,38,61
88,449,432,146,104,50,34,63
89,446,414,150,110,51,33,61
96,430,382,160,117,52,32,67
90,392,340,132,109,51,31,70
91,335,354,127,103,48,30,66
83,328,333,129,103,52,30,61
77,328,327,126,95,53,35,63
75,363,366,114,96,56,35,58
76,393,425,129,103,51,39,61
76,384,399,128,98,52,41,59
76,380,399,121,94,48,39,60
74,381,446,126,101,49,40,58
72,342,422,116,85,44,41,55
74,296,349,92,72,45,37,39
75,276,359,90,75,44,34,50
78,311,405,106,83,46,38,55
78,281,362,98,85,47,108,61
72,317,383,116,92,46,109,61
63,307,378,118,90,44,111,61
54,299,371,119,100,45,113,57
50,257,320,105,94,48,112,53
50,263,308,112,97,48,74,54
71,229,285,101,106,51,87,56
69,221,282,93,107,49,96,55
77,223,278,88,100,47,95,57
77,211,250,86,97,42,95,55
93,349,334,98,93,39,77,59
74,336,324,99,78,36,59,55
74,333,322,102,84,38,38,58
74,358,335,111,84,40,36,57
74,361,326,112,89,39,34,57
56,257,286,103,87,38,31,46
59,276,276,97,85,37,29,47
61,288,324,103,84,36,32,45
50,254,313,99,89,38,31,39
49,254,317,103,87,42,33,40
46,241,296,118,89,44,65,42
43,213,336,126,96,43,67,41
46,281,392,161,97,49,70,47
45,283,391,159,88,49,70,46
48,286,408,158,88,47,70,44
47,276,391,142,75,45,42,40
62,283,368,137,71,47,41,40
65,237,267,87,76,45,35,33
94,255,301,90,72,45,34,36
97,256,289,91,70,46,34,38
100,253,304,95,75,46,33,39
96,260,293,98,79,48,33,39
92,244,285,96,70,44,33,37
68,226,240,87,74,44,40,42
91,234,261,84,73,43,39,41
89,249,258,77,78,40,38,42
89,243,261,68,72,35,35,41
88,248,258,66,69,36,34,40
86,249,262,71,68,32,23,40
65,240,228,74,82,33,24,42
64,250,224,77,74,32,25,40
71,273,245,102,75,32,25,44
80,272,234,106,85,33,27,46
78,283,242,113,91,36,27,47
74,319,277,125,89,41,33,51
78,312,273,126,91,41,33,52
75,301,290,114,92,50,39,50
76,288,294,110,84,53,39,48
76,284,296,101,74,50,40,42
77,246,264,104,66,52,38,45
79,230,275,103,72,53,42,49
75,241,253,96,71,48,36,49
68,294,295,96,71,46,73,50
70,324,297,101,73,47,88,52
89,334,307,94,76,47,103,48
103,353,291,102,67,46,108,54
109,351,294,101,68,45,109,53
115,315,270,101,73,43,90,53
134,330,263,92,74,43,78,51
122,322,279,91,78,41,60,52
108,314,289,77,85,44,51,41
100,311,289,84,86,42,48,39
95,321,276,92,85,45,43,44
69,274,277,102,99,53,41,44
67,262,257,98,93,49,40,40
73,245,233,100,91,46,38,41
96,314,348,118,99,53,97,52
97,309,355,119,105,53,106,47
93,308,347,112,90,46,108,47
108,316,337,107,89,46,107,46
108,317,344,109,87,47,145,50
92,237,214,86,83,45,143,44
105,316,209,83,80,45,142,48
118,322,205,81,84,48,167,51
111,329,258,92,88,48,189,54
106,330,256,89,89,51,203,52
103,337,245,88,85,48,193,54
87,249,235,90,80,49,191,52
71,253,244,90,86,48,173,53
92,269,248,85,80,48,164,50
94,271,248,80,75,43,173,53
94,262,244,82,82,50,188,53
98,265,246,77,79,49,193,56
113,256,268,80,78,50,192,53
113,240,225,80,90,49,202,58
115,293,247,88,95,54,172,60
120,284,270,81,86,51,178,71
131,331,296,93,91,50,181,76
125,360,278,95,93,49,220,81
106,348,292,92,81,51,208,78
102,300,274,89,74,43,193,80
98,294,262,94,77,39,170,69
81,238,237,77,78,42,170,63
84,219,227,77,67,40,137,62
119,296,213,78,77,46,177,64
118,296,214,77,79,48,178,56
119,324,227,75,77,51,183,56
120,359,253,86,67,49,181,51
143,340,255,84,68,48,172,48
123,299,264,94,64,43,122,47
129,306,264,101,73,44,128,51
129,272,251,104,69,41,120,52
127,226,215,102,78,39,127,52
108,210,214,102,75,39,114,58
99,175,189,88,71,36,108,56
94,162,176,83,63,35,111,53
92,164,172,75,65,40,114,49
95,199,185,80,57,40,125,57
70,236,165,78,71,43,135,51
81,297,214,81,70,43,144,58
79,294,221,84,74,43,155,62
89,310,224,86,74,40,150,62
99,288,232,82,78,40,129,55
98,303,273,92,72,42,126,55
129,294,261,97,73,45,128,58
141,337,281,101,71,44,106,55
137,323,270,98,71,42,112,56
131,341,282,100,67,43,109,57
133,334,246,98,69,44,110,58
133,330,224,95,64,48,119,57
125,319,195,89,63,55,136,55
125,329,200,90,61,55,143,60
128,338,198,85,58,54,148,59
132,360,219,83,51,51,142,61
106,337,214,85,54,44,137,55
100,320,216,78,45,35,118,55
109,322,217,79,47,36,119,54
112,318,185,79,48,38,114,54
109,281,186,84,46,41,127,51
98,265,194,77,41,40,135,50
101,266,210,79,43,39,131,53
93,300,237,84,45,39,126,52
99,279,236,86,52,42,137,52
98,274,226,76,55,39,131,55
97,273,236,89,67,46,132,61
92,266,216,86,70,47,132,60
82,223,199,90,73,49,121,56
87,233,205,92,69,46,117,54
84,215,196,96,68,46,114,47
85,211,170,81,57,40,82,38
92,278,195,93,67,38,119,39
109,328,270,99,68,34,131,47
86,332,269,92,67,36,127,47
99,349,267,89,71,40,131,49
98,353,281,92,77,40,136,50
96,330,342,96,81,42,140,55
80,292,302,84,78,43,135,50
92,292,296,85,78,47,136,52
87,265,297,84,72,43,131,49
88,291,302,85,67,42,129,49
86,269,262,82,55,41,113,44
88,261,254,89,74,44,121,54
78,258,256,93,75,44,127,55
78,273,252,101,83,44,127,57
83,319,251,108,85,45,131,59
84,334,210,104,85,48,118,57
94,325,206,96,71,46,101,47
91,315,193,93,72,39,114,48
82,306,210,86,65,42,113,56
75,236,201,84,65,41,109,58
124,216,185,75,64,36,106,58
115,210,169,78,64,33,105,61
121,196,175,77,62,35,72,58
121,192,157,80,65,33,69,48
120,197,171,74,71,35,144,43
70,197,179,76,69,35,144,39
69,202,166,75,66,36,151,40
70,246,199,80,66,35,152,45
73,251,225,79,67,37,158,53
82,263,242,81,59,35,90,51
82,242,244,83,62,35,84,50
91,346,335,97,63,34,86,52
84,338,334,95,67,37,116,49
96,339,320,92,64,38,121,42
97,323,311,91,62,39,125,45
92,325,305,92,64,38,126,45
86,253,220,81,66,41,116,42
93,271,220,87,64,39,94,47
80,265,220,86,59,33,92,49
98,264,193,83,60,32,87,52
97,278,202,78,53,31,88,53
98,275,228,73,58,31,85,52
93,227,197,59,61,34,86,47
90,233,201,55,61,37,70,46
84,229,201,56,60,38,112,38
84,216,197,54,60,38,115,39
91,201,160,65,58,40,126,43
97,239,222,74,51,41,119,48
97,231,211,75,55,40,118,47
98,236,214,79,56,40,77,48
101,241,224,83,58,42,77,47
102,229,225,79,53,40,129,47
97,210,187,83,58,35,133,40
102,227,221,87,65,40,140,43
83,223,225,85,66,39,141,42
119,204,205,87,66,37,146,44
111,183,188,82,67,34,92,44
108,173,220,75,64,35,84,45
105,184,197,71,56,31,72,42
104,181,190,73,67,40,69,43
61,202,198,74,79,43,47,42
65,196,202,69,75,45,91,35
63,201,159,70,76,45,94,35
73,194,170,76,76,44,95,34
72,212,210,73,67,37,94,37
74,216,216,67,51,34,94,38
69,216,220,74,52,35,53,44
84,215,222,72,51,33,67,43
87,263,237,73,46,36,117,52
89,277,225,76,52,35,121,49
105,285,229,81,52,35,124,49
107,308,233,77,55,35,122,47
96,297,220,75,56,35,114,46
108,276,208,78,69,37,62,40
107,246,205,75,64,37,54,39
94,229,201,72,62,35,44,40
95,203,186,76,60,34,44,44
99,215,205,80,60,35,39,44
77,170,184,70,49,30,60,46
77,183,157,68,49,33,61,46
73,192,165,65,48,34,62,44
78,258,264,90,58,35,62,41
70,261,264,91,60,34,61,39
64,253,270,89,59,33,38,39
59,260,300,93,57,28,37,40
49,249,293,94,58,29,36,42
40,206,224,77,51,27,35,43
35,190,209,70,48,27,32,44
38,217,206,75,47,29,32,50
40,209,164,68,45,28,29,52
53,223,179,66,42,28,32,56
62,235,183,73,39,31,35,57
67,247,179,79,42,32,36,59
69,255,176,79,45,32,39,54
69,253,185,82,45,34,40,55
69,345,229,113,49,39,41,53
58,342,232,107,49,35,38,48
61,338,258,103,50,34,45,44
65,353,295,106,48,34,85,43
66,383,324,116,50,32,88,42
63,308,297,91,49,27,92,53
64,297,287,83,49,31,111,56
67,326,278,90,54,46,141,65
70,320,289,97,59,51,126,65
81,349,294,114,78,55,125,82
79,332,280,118,83,58,126,79
82,340,320,128,98,64,131,80
77,330,319,126,100,57,114,76
95,332,327,128,104,53,121,82
116,294,288,106,94,51,122,66
118,311,297,104,96,47,119,68
122,301,270,91,78,36,96,66
122,279,265,87,73,31,82,64
108,244,193,69,64,30,71,57
89,243,249,76,63,31,71,58
88,223,274,74,58,33,100,50
77,240,267,73,60,33,100,49
77,260,286,81,58,34,94,47
74,268,290,86,63,36,87,46
55,232,257,75,61,33,83,43
54,234,224,69,62,32,57,50
62,288,272,87,65,33,65,56
66,312,261,80,64,32,65,64
64,326,273,85,62,33,72,67
69,341,280,88,60,37,80,65
69,343,286,86,54,35,71,58
63,287,238,69,49,35,63,52
54,241,229,72,55,34,60,46
55,230,265,89,62,32,52,43
44,203,244,88,62,25,41,42
51,211,239,91,62,28,40,40
53,197,229,93,69,27,37,40
60,218,264,95,68,27,39,38
58,198,208,74,60,28,34,32
66,201,208,72,57,28,35,45
66,183,194,70,57,26,33,46
69,208,213,70,47,26,34,45
89,216,207,67,44,27,33,46
92,236,238,68,38,24,33,47
92,235,235,69,41,28,31,50
94,235,236,70,40,30,36,49
94,223,226,69,42,29,37,53
80,214,198,65,37,30,41,51
89,187,156,53,38,31,37,50
91,239,165,64,40,30,39,40
85,265,174,63,40,26,36,41
84,265,189,61,39,27,48,51
88,267,196,61,41,27,95,56
87,270,192,62,43,31,103,58
98,229,198,54,42,28,105,57
98,200,186,53,48,33,110,56
97,192,177,61,50,32,105,46
86,165,148,64,52,31,68,38
76,156,167,63,52,30,58,35
56,150,192,64,51,29,52,42
74,166,210,70,47,24,40,45
81,238,248,70,45,26,37,48
85,243,261,68,45,26,37,63
91,256,263,74,52,27,35,66
91,251,232,70,55,28,37,63
79,282,225,75,56,29,39,79
74,232,172,72,56,27,40,76
78,278,172,91,57,34,35,69
91,270,151,85,46,33,35,67
90,274,157,87,41,32,34,68
94,228,139,77,46,38,32,56
93,248,156,83,52,42,31,56
94,230,156,65,53,38,31,53
73,227,157,66,53,38,30,52
92,229,164,70,53,38,31,49
85,236,172,68,49,31,33,41
92,227,158,57,47,27,34,46
86,212,167,54,41,24,31,41
90,243,176,67,50,28,34,41
79,242,168,64,53,30,31,42
86,237,163,65,50,32,32,45
89,217,165,66,49,31,33,38
91,200,175,74,57,32,35,39
89,174,173,62,49,29,36,44
85,208,180,60,44,26,38,44
77,205,181,65,57,25,34,38
100,211,176,64,57,29,32,37
109,219,160,55,49,28,30,41
112,207,151,59,51,28,31,40
110,172,143,60,52,30,32,47
113,173,138,56,43,32,35,46
89,164,136,57,40,32,35,47
95,133,106,63,42,33,34,44
89,147,112,59,45,32,33,44
88,149,112,54,47,31,33,35
86,158,112,56,43,33,32,34
92,210,152,66,44,30,37,42
81,253,147,66,46,32,40,42
82,255,162,71,44,32,38,39
122,261,191,73,44,33,41,44
128,294,243,79,44,31,40,59
119,276,236,71,46,34,40,69
116,235,248,66,46,35,35,71
118,245,251,66,50,53,49,74
108,236,230,65,48,66,58,81
107,211,216,60,52,67,83,71
106,190,238,61,57,67,85,65
105,198,235,67,57,68,91,65
104,178,220,62,56,54,85,61
72,187,233,62,60,35,80,62
79,190,205,60,58,33,54,61
77,226,172,59,51,30,47,55
77,243,204,64,55,26,36,54
77,247,228,67,56,28,39,58
97,253,213,69,57,30,35,42
86,258,224,73,57,30,36,45
89,225,236,71,59,31,38,52
92,240,212,66,52,29,39,52
97,258,192,67,48,28,38,46
80,254,229,65,41,28,38,47
87,226,218,60,39,28,39,51
90,224,194,59,38,28,39,48
85,191,204,57,41,28,38,48
78,188,219,61,46,30,35,49
75,204,210,70,49,29,34,52
68,207,213,76,53,30,27,46
58,206,217,77,51,31,32,41
59,197,198,74,53,31,32,40
70,176,185,66,49,31,33,43
76,185,169,60,50,31,38,42
73,205,182,64,45,28,39,44
74,206,181,63,44,27,35,46
73,214,197,65,43,30,37,45
61,213,195,66,41,30,38,44
74,177,180,63,38,30,34,48
75,152,166,58,42,31,34,47
74,159,166,62,45,33,35,51
91,161,146,63,41,31,32,51
92,150,136,60,43,30,31,48
79,163,150,64,44,29,31,47
83,181,156,63,42,33,35,49
85,185,171,68,43,31,33,50
66,174,168,65,44,34,32,52
62,175,174,66,44,34,31,55
74,209,170,64,42,35,29,51
67,209,196,63,39,33,25,48
66,212,187,62,40,34,28,45
67,217,190,60,38,30,29,45
97,218,196,60,38,29,30,43
86,194,206,58,41,28,37,49
86,183,175,54,44,26,35,52
86,172,179,40,38,25,33,50
86,170,180,43,39,27,35,55
61,177,170,46,41,28,33,55
78,174,189,50,38,27,27,48
77,192,199,57,38,27,31,46
76,186,188,58,40,26,31,43
76,200,201,59,40,23,31,32
83,224,239,60,40,25,32,33
67,221,222,55,41,27,33,35
70,201,208,50,36,27,32,37
71,202,209,55,35,29,31,36
71,215,211,55,35,30,32,38
93,227,192,52,30,26,30,36
95,215,185,54,35,27,30,39
97,212,182,58,41,25,29,34
97,223,181,53,45,27,32,40
98,220,190,60,45,27,31,40
71,181,184,65,48,32,35,41
71,188,186,65,43,30,34,36
73,270,240,78,44,29,33,42
72,264,237,81,41,29,35,46
78,268,217,74,41,31,35,46
78,289,229,74,39,29,32,48
73,285,227,72,41,29,36,48
64,221,167,56,38,31,37,44
64,222,172,55,40,30,34,35
55,212,192,57,39,30,34,32
45,189,182,57,42,29,35,36
49,208,177,63,50,30,37,39
50,207,203,62,48,30,40,43
51,211,212,61,48,29,41,44
53,199,231,64,50,30,42,51
66,213,241,69,47,30,43,46
68,201,246,65,48,30,36,49
65,192,237,68,52,30,33,47
65,183,229,75,63,32,31,52
81,213,234,82,68,31,29,46
88,207,224,82,75,32,30,49
90,206,226,81,70,31,35,44
97,210,236,83,73,31,34,48
107,233,246,84,63,31,36,43
99,212,212,75,60,32,35,45
86,204,217,71,50,30,32,41
80,196,218,71,47,28,26,43
76,202,194,65,37,27,27,41
64,169,203,54,36,23,23,39
62,164,198,56,37,21,26,40
57,172,177,55,47,24,28,40
58,209,171,61,51,27,30,36
55,203,196,62,54,28,31,35
60,207,172,62,54,29,33,34
54,205,166,58,51,30,32,33
53,182,161,56,41,28,32,33
57,156,184,48,36,25,30,35
54,149,163,53,48,28,32,35
45,155,161,55,52,30,35,37
44,167,180,59,52,30,33,33
43,179,184,63,56,31,31,39
34,189,157,63,56,31,31,38
46,206,204,54,43,30,28,39
44,199,200,51,37,29,23,35
53,180,190,44,36,27,24,35
51,175,177,50,39,25,25,29
57,202,199,61,44,28,26,30
52,187,146,64,51,29,26,24
53,194,156,68,52,26,27,28
44,194,148,67,52,27,27,35
51,197,155,58,46,26,30,37
51,166,144,54,46,26,33,39
49,162,152,53,46,26,34,44
68,151,156,54,50,28,36,45
73,176,162,56,53,29,35,40
74,163,157,56,54,30,33,38
71,133,132,53,52,30,31,34
71,177,143,71,51,30,36,29
54,187,177,78,51,30,36,34
50,178,184,81,49,30,38,43
41,190,191,82,49,30,38,45
39,208,197,82,47,27,39,45
39,195,210,75,45,25,33,46
46,213,191,70,43,23,34,43
51,213,183,68,42,21,32,34
53,201,185,68,40,22,33,34
56,200,186,66,38,24,33,38
56,187,156,56,33,24,32,38
48,156,141,51,32,26,28,37
43,138,139,46,36,29,28,37
40,192,147,57,38,28,29,35
46,210,152,63,46,29,27,36
49,216,156,64,49,28,31,37
50,219,155,65,48,27,31,37
76,245,164,70,48,25,32,39
95,248,153,63,48,26,32,40
96,251,169,58,39,24,33,34
96,272,212,60,39,25,33,42
102,287,236,62,46,25,33,44
94,284,239,61,45,26,38,55
104,251,232,60,44,24,39,68
112,238,224,59,45,25,40,70
116,215,210,58,44,25,37,67
113,205,187,51,38,24,38,67
105,231,192,56,40,24,33,60
84,239,203,54,41,24,33,52
71,227,210,63,38,26,33,53
64,227,195,64,37,25,35,52
62,216,200,69,42,26,36,57
61,171,187,60,39,25,39,56
55,174,198,71,41,25,38,57
76,182,187,70,46,24,36,57
78,162,197,68,48,26,33,54
81,178,199,64,43,25,33,50
92,195,233,73,46,26,37,47
112,211,254,64,42,27,43,41
117,208,262,56,38,24,44,42
116,225,251,58,39,24,47,45
114,215,242,62,45,26,49,45
106,203,207,53,42,25,46,43
85,199,175,51,43,22,37,43
52,191,166,51,44,23,37,42
55,178,154,46,41,23,34,40
65,197,155,46,37,20,30,43
65,184,158,50,40,23,29,45
63,167,167,60,52,26,31,52
63,161,150,58,52,24,29,48
56,222,160,68,56,27,28,48
42,203,156,65,56,27,27,43
41,215,156,66,56,28,24,43
36,207,123,58,42,26,23,30
35,213,164,65,46,27,24,32
31,154,159,52,41,23,22,30
36,165,182,57,40,23,25,32
35,169,193,56,39,20,24,30
44,186,205,58,41,21,24,32
44,186,173,53,38,21,24,28
43,176,175,55,40,23,22,30
47,186,170,60,47,22,21,32
49,181,169,57,46,24,21,32
43,175,173,61,49,23,21,32
44,172,187,65,53,26,22,33
47,189,194,66,51,25,24,34
39,165,195,60,42,25,23,30
36,150,191,59,41,25,24,29
35,161,195,56,37,25,24,28
35,171,183,48,29,21,22,28
32,152,199,51,32,21,23,27
32,165,191,51,32,25,25,27
35,173,189,51,33,22,23,26
33,151,183,49,33,25,22,26
35,152,189,54,38,25,23,26
33,160,169,50,40,26,24,24
35,194,197,57,42,24,23,26
32,191,188,54,42,25,25,27
30,187,179,52,41,23,26,27
27,184,183,51,36,23,27,26
28,203,189,54,38,24,26,27
34,229,179,58,38,24,26,29
35,230,185,60,40,27,25,31
37,233,186,61,41,27,27,32
38,230,181,64,46,30,35,34
40,228,178,61,42,28,37,35
40,205,186,62,40,27,39,43
43,208,204,77,46,28,45,45
54,217,225,80,49,32,60,48
63,223,238,75,45,32,96,53
82,213,245,77,50,35,98,55
81,181,232,73,57,35,100,49
87,186,216,65,59,35,100,45
83,186,223,73,57,35,107,47
80,180,226,78,61,33,103,57
82,171,230,79,60,33,123,63
82,179,219,73,54,36,135,69
88,182,260,71,48,35,136,70
88,183,268,60,51,33,128,71
90,185,285,58,54,33,120,65
78,196,282,58,56,30,112,59
77,220,301,70,63,30,103,55
61,220,305,73,61,31,104,55
61,234,286,73,59,30,101,52
54,242,264,78,57,33,104,53
40,233,254,77,52,32,89,55
42,221,249,76,46,29,98,57
43,222,198,76,46,29,105,59
36,190,177,74,47,27,104,55
34,168,161,65,45,23,87,45
38,188,189,70,48,25,86,41
37,185,169,58,44,23,64,33
37,166,186,56,45,23,44,32
39,176,207,61,46,24,42,33
40,189,215,64,48,26,37,36
52,198,192,65,48,25,37,38
61,196,195,74,56,27,34,44
63,243,187,75,56,27,33,43
63,248,171,72,53,27,33,42
62,241,172,70,47,26,48,38
52,218,157,68,45,26,52,39
49,202,161,64,41,24,54,35
48,145,165,68,39,25,53,36
48,156,163,69,39,24,53,38
48,165,172,80,51,27,41,41
46,171,191,84,53,27,34,36
39,171,174,86,56,29,32,41
36,184,171,79,54,26,35,40
53,197,187,82,56,27,36,39
55,231,196,81,49,24,35,37
58,227,184,73,45,24,35,39
55,222,187,69,40,22,34,32
55,214,188,76,48,27,30,29
40,189,187,78,53,29,27,28
37,142,162,72,54,28,24,25
32,138,150,69,53,28,23,23
34,157,166,70,57,29,25,23
34,171,178,67,51,27,26,25
32,164,157,56,43,23,26,24
32,157,155,54,42,24,30,25
41,202,168,65,51,26,31,25
45,203,154,66,49,26,33,26
45,189,141,64,50,27,33,25
46,195,148,66,53,27,33,27
46,218,175,68,52,27,30,30
39,186,185,71,48,25,31,30
41,198,190,67,46,25,25,30
47,228,206,76,52,24,27,35
48,229,205,74,54,27,40,35
47,216,192,71,54,25,40,31
55,216,180,60,50,23,39,31
59,197,178,60,52,23,40,32
61,159,165,54,43,23,39,29
62,147,156,56,39,20,25,29
61,130,144,55,37,24,25,31
54,131,147,58,37,24,23,30
44,120,140,56,35,27,24,29
42,132,138,59,44,28,24,35
46,132,137,62,43,28,26,35
48,135,146,68,43,26,26,34
49,122,133,64,42,26,27,33
51,130,130,64,41,25,26,35
45,141,109,55,33,24,26,26
44,145,126,53,33,24,24,27
41,142,112,46,34,26,22,27
44,142,108,50,35,27,21,29
45,146,111,49,35,25,21,27
43,120,144,53,36,25,22,28
39,152,140,54,41,26,22,32
40,158,150,57,43,26,27,33
35,158,149,60,45,25,27,34
47,148,149,62,43,25,27,32
48,158,118,64,46,28,28,32
49,142,114,75,52,31,28,29
55,138,117,72,52,31,22,30
67,133,117,66,50,30,25,31
75,132,113,62,52,30,64,33
88,137,110,57,48,27,77,62
89,127,109,42,42,27,128,67
86,137,110,52,45,27,137,68
80,164,133,57,47,27,140,68
76,177,155,59,48,27,129,69
72,175,162,60,48,29,131,46
75,180,170,61,43,26,93,39
78,172,160,58,42,27,92,39
86,156,142,55,39,27,98,37
77,147,120,56,36,28,98,35
67,184,145,60,42,29,89,31
62,181,141,58,43,28,89,29
66,193,141,55,42,27,76,30
60,188,148,58,48,26,65,32
67,192,146,59,52,25,60,30
69,150,116,53,45,21,57,31
70,147,116,50,45,19,36,33
68,145,113,49,43,22,37,30
63,153,114,43,35,21,33,32
58,155,117,47,35,25,31,34
64,171,115,49,37,24,29,33
62,174,109,53,39,28,27,32
56,165,115,54,42,26,28,30
54,166,127,58,44,27,27,29
50,154,129,52,43,25,27,26
38,130,134,55,49,26,26,29
51,134,148,54,50,23,28,33
61,168,165,60,53,26,28,35
64,154,160,59,52,26,32,34
67,156,156,63,55,28,33,34
67,160,157,60,50,28,51,35
55,146,137,59,48,28,52,31
57,121,123,55,47,28,52,31
58,120,128,58,50,30,51,31
54,135,148,60,47,30,64,35
54,133,152,72,56,33,83,33
55,139,169,75,59,38,118,34
46,136,168,75,55,37,122,33
40,136,155,73,52,35,123,31
52,124,148,71,50,34,135,28
52,120,135,61,42,32,136,26
55,121,116,53,38,24,111,27
63,119,103,54,42,29,120,28
64,123,108,52,43,28,120,31
58,141,106,56,48,28,101,31
59,146,121,55,48,29,111,34
60,155,143,59,50,30,116,41
51,164,144,60,47,29,110,43
49,165,151,58,45,28,113,44
44,166,152,68,51,31,114,44
48,191,168,69,52,32,84,42
55,188,151,68,50,33,74,31
58,177,150,65,50,31,63,31
57,189,144,68,53,31,57,28
58,168,132,50,43,28,58,32
56,142,102,47,45,26,51,41
57,134,102,44,46,24,46,44
53,132,107,45,45,26,44,42
53,107,105,45,45,26,42,43
55,111,123,50,47,27,30,47
52,95,121,56,48,25,30,40
40,93,121,55,46,25,34,37
58,109,130,56,47,24,39,42
61,122,143,56,51,23,41,41
61,126,141,70,56,27,39,40
62,132,144,74,59,28,39,43
63,132,152,75,59,28,36,42
53,132,156,76,62,28,31,42
60,154,159,76,60,32,29,48
60,152,146,59,54,31,29,45
60,151,144,46,44,36,32,44
64,156,141,47,52,37,34,45
69,173,133,60,63,39,36,45
68,198,152,67,64,37,38,50
75,204,183,68,63,36,59,51
75,199,182,73,65,31,59,55
75,193,177,71,60,31,59,54
70,248,220,69,53,32,62,52
66,221,203,66,52,32,67,62
65,246,209,80,69,47,85,62
68,260,224,81,72,71,147,60
67,281,235,85,74,74,162,64
79,248,242,90,84,75,165,70
90,253,238,89,84,75,168,55
88,240,231,80,76,68,165,59
96,247,220,85,82,49,164,79
93,222,210,81,80,46,154,85
87,190,164,72,67,47,169,84
81,180,192,72,69,47,172,85
94,161,168,69,65,46,201,82
90,144,174,65,58,40,170,67
92,178,173,66,60,38,172,54
84,230,212,62,57,33,163,53
78,246,192,75,61,35,164,50
92,257,210,93,77,34,129,60
89,251,208,89,74,36,137,60
91,235,211,95,74,36,138,64
105,183,155,99,77,36,140,64
107,175,159,94,72,35,139,62
85,168,126,77,55,34,129,56
97,166,122,79,53,30,153,54
111,171,117,76,52,37,163,56
109,222,143,78,51,41,160,58
109,214,153,69,48,40,155,59
105,205,159,71,48,41,181,54
95,207,160,68,57,44,155,52
83,208,181,67,65,45,139,50
72,180,195,55,63,41,147,62
68,176,186,55,65,41,148,65
69,189,211,54,68,41,135,66
71,186,206,52,62,41,134,65
66,178,186,47,52,33,136,69
83,239,195,49,50,36,125,57
93,235,187,48,47,35,125,53
91,231,155,48,39,38,113,57
99,235,185,61,42,35,107,58
96,239,202,67,52,37,109,53
81,161,160,64,56,34,105,57
73,158,158,67,56,34,107,60
78,154,157,68,65,34,119,54
68,161,140,60,62,35,125,55
65,164,125,62,54,32,118,52
67,165,149,69,66,33,114,46
64,179,152,67,65,34,106,41
55,171,151,64,61,30,65,37
46,165,136,67,62,27,41,35
47,154,134,72,74,30,37,37
36,129,104,65,61,29,36,33
35,96,98,71,61,28,29,35
36,112,120,76,58,25,29,34
34,99,112,72,57,28,26,32
27,102,126,70,47,25,24,29
27,111,135,69,50,25,24,27
30,134,133,71,54,25,27,31
30,132,120,63,54,29,26,34
28,139,128,63,56,26,28,35
52,134,123,59,62,30,29,39
52,143,120,63,64,30,31,39
51,146,137,62,63,31,29,39
52,141,135,63,64,28,29,38
64,178,180,66,61,31,39,49
59,187,192,68,65,28,40,49
64,177,195,72,62,30,38,51
66,171,194,72,64,30,38,48
66,179,197,72,62,30,39,47
57,165,210,68,64,27,30,37
58,178,208,71,55,29,32,35
62,191,218,76,59,29,33,34
65,187,219,78,60,30,36,33
67,203,236,79,60,30,34,32
73,215,249,87,56,31,32,35
83,213,243,79,49,28,31,31
109,206,232,67,42,29,36,31
132,211,223,62,35,27,35,35
143,191,203,63,38,26,35,39
148,173,134,56,43,25,35,39
144,188,121,62,42,26,36,45
133,194,126,63,44,25,36,56
134,218,182,65,47,30,81,55
134,227,202,73,66,30,93,53
135,223,212,76,66,33,97,57
149,237,235,78,68,35,101,66
170,238,238,91,77,39,110,67
163,227,219,92,79,44,112,75
156,234,213,90,68,47,105,89
182,270,221,94,72,47,104,89
181,232,208,89,74,45,100,81
159,254,225,88,70,43,91,73
153,261,235,91,70,40,122,64
163,268,246,91,70,40,135,55
132,225,228,86,65,39,136,54
117,236,219,85,62,40,139,54
119,214,205,72,55,41,140,53
111,191,178,62,52,37,91,60
100,169,153,55,47,33,65,53
106,183,172,65,50,33,64,49
100,188,169,79,56,34,55,51
93,177,179,85,54,35,137,57
94,172,176,86,54,37,148,47
88,180,176,88,51,36,153,44
90,166,160,80,55,36,154,44
94,151,209,67,46,35,154,40
90,153,195,69,50,33,94,35
86,151,197,78,52,30,79,38
90,144,190,77,55,35,129,46
95,154,194,78,55,35,131,49
90,151,131,74,57,35,134,51
92,140,123,64,54,34,131,52
92,151,115,53,51,34,140,50
122,146,121,58,53,29,95,50
124,164,137,77,59,33,92,46
130,187,151,80,60,40,89,44
129,188,151,80,58,39,87,43
137,187,165,88,61,39,105,44
111,187,191,89,60,42,110,50
87,168,179,73,49,38,110,54
86,138,168,69,46,29,108,55
85,138,165,68,46,29,107,53
82,135,174,63,47,25,66,54
86,143,141,56,45,24,45,39
88,147,138,51,43,27,41,31
80,152,178,53,43,26,40,30
79,153,181,52,43,26,36,30
65,154,166,44,39,27,32,29
48,155,169,53,39,26,34,29
56,167,169,57,37,23,31,29
53,171,139,58,36,22,31,27
65,180,164,60,40,24,29,27
67,219,196,59,41,25,29,26
67,220,211,51,45,23,27,25
62,202,220,47,48,24,27,28
61,202,226,45,47,27,28,27
48,203,212,50,47,25,29,26
52,161,175,52,48,28,28,27
49,138,161,52,41,28,28,26
42,152,169,59,45,29,26,24
48,146,151,59,46,25,23,26
48,156,175,73,47,25,21,30
42,145,174,76,46,22,23,29
51,150,171,77,50,22,22,33
55,134,154,71,43,22,23,33
68,148,159,70,42,23,24,34
72,140,160,59,45,28,28,34
73,169,190,71,52,29,31,36
68,180,192,73,51,29,33,34
65,197,192,77,52,29,36,37
75,218,217,79,55,30,41,46
81,226,219,81,56,29,48,46
82,212,208,67,49,28,55,46
88,219,223,73,52,28,60,51
90,209,217,73,53,27,69,50
75,195,200,70,48,26,67,43
65,178,177,63,42,22,64,42
66,195,185,70,45,22,56,44
58,180,165,58,37,22,53,38
56,191,189,65,42,23,41,39
52,196,197,73,41,21,40,36
53,219,197,79,47,25,34,38
48,208,186,72,46,24,33,34
60,262,205,77,51,24,30,35
61,247,182,69,51,26,27,37
59,243,205,79,60,31,24,45
68,223,196,71,56,30,25,44
69,229,194,76,67,29,25,44
65,182,181,83,69,32,30,48
72,184,180,83,66,28,28,44
71,203,164,67,58,23,26,37
63,212,180,71,58,24,28,38
61,209,202,72,47,25,30,40
54,195,197,63,44,27,30,34
41,208,212,65,44,29,30,36
56,180,185,65,44,30,36,38
56,184,185,64,46,30,34,35
59,204,159,59,46,30,37,35
66,208,176,55,40,25,36,35
75,195,167,52,40,24,37,34
74,237,206,61,46,24,32,37
76,256,197,63,43,22,35,40
78,244,200,66,43,23,50,41
74,245,199,72,47,24,101,42
71,243,192,72,48,24,104,43
75,206,163,66,43,23,108,38
71,180,176,64,43,24,110,41
80,198,180,63,39,27,114,41
80,210,165,57,36,27,75,45
88,224,167,56,40,29,77,47
74,215,163,52,39,28,73,49
83,208,150,49,37,28,74,48
93,183,147,46,38,22,56,48
93,165,151,46,37,21,56,41
83,182,153,49,38,22,45,39
83,185,147,49,37,21,44,39
84,227,179,67,46,24,37,39
65,218,171,65,46,25,37,35
73,251,175,70,49,26,30,42
73,227,169,66,43,26,31,40
72,218,168,67,44,27,31,37
63,170,124,48,33,25,31,35
59,179,120,54,39,25,30,36
52,150,93,53,44,28,28,32
56,156,101,60,46,25,29,34
57,170,98,60,49,27,30,37
54,170,102,65,51,26,27,34
53,198,142,82,56,29,28,35
47,177,144,80,50,24,29,31
37,169,136,75,50,25,27,30
33,167,150,78,48,23,28,28
30,167,150,71,44,23,27,30
38,130,112,46,32,20,25,28
42,161,151,43,30,23,26,28
42,167,158,45,27,23,29,27
44,188,178,40,26,25,27,27
45,185,179,50,40,25,26,25
38,175,176,52,44,26,28,28
40,168,156,58,47,25,26,32
43,196,187,58,48,28,23,33
41,174,168,57,49,28,22,31
40,175,167,56,49,29,24,33
38,187,185,55,51,28,24,32
31,182,198,51,49,30,24,27
25,150,173,52,50,28,25,25
24,145,168,52,51,26,27,28
42,152,166,49,46,26,27,26
43,140,147,47,39,26,26,25
45,116,127,43,37,26,28,28
45,125,131,44,36,24,25,30
46,115,125,43,32,24,24,27
30,115,129,39,25,24,23,26
34,139,137,45,30,23,22,28
39,135,130,45,31,20,20,24
40,125,115,45,34,21,22,21
40,124,112,49,35,22,23,23
43,131,111,56,39,22,24,28
39,106,92,52,37,23,27,26
33,119,103,53,37,23,26,27
34,124,97,51,38,23,26,29
34,138,117,49,38,23,26,31
32,131,118,42,38,23,25,27
32,128,130,41,37,24,24,27
29,118,114,37,36,26,24,27
33,160,142,45,42,28,25,33
30,149,132,45,42,28,25,33
47,182,144,48,42,28,24,34
50,202,143,49,45,27,26,34
52,202,154,52,45,23,27,35
49,168,133,46,37,21,23,29
50,172,131,46,36,19,23,28
36,129,120,46,40,22,27,28
31,106,119,43,37,23,23,30
29,146,127,43,36,23,24,28
52,162,123,43,37,22,32,30
56,176,130,52,42,24,33,33
55,177,130,49,37,22,33,34
58,191,138,51,36,20,33,36
60,175,167,54,39,22,36,36
41,164,173,56,39,22,29,36
37,144,168,48,37,21,29,33
37,149,166,47,35,22,26,33
38,153,167,54,40,24,28,34
34,138,126,49,37,25,24,32
32,133,130,51,38,24,24,31
33,137,126,52,37,23,23,33
30,142,120,54,40,24,23,31
28,168,122,48,42,23,21,28
29,190,132,47,43,21,22,29
30,200,132,43,43,22,23,29
28,205,133,39,41,23,21,26
32,202,143,37,40,21,24,27
28,170,136,33,33,21,23,23
34,153,152,43,38,25,23,32
34,133,143,42,37,26,23,31
34,122,148,42,38,25,23,33
31,121,145,46,36,26,21,32
32,106,132,44,37,27,22,33
35,157,101,43,37,23,22,27
36,167,97,43,37,25,22,27
37,173,86,43,37,24,22,26
40,174,74,40,39,26,22,29
40,193,127,52,45,26,23,30
33,154,124,48,44,29,22,30
32,150,132,47,43,26,22,29
32,144,132,49,45,27,22,30
30,158,158,55,45,25,24,28
30,132,126,46,39,25,24,27
29,117,123,44,35,24,23,26
28,125,117,44,36,23,24,26
29,125,118,45,34,23,24,26
26,110,84,42,41,23,21,27
26,114,88,43,41,26,25,24
26,124,86,44,41,24,24,22
26,113,92,42,40,23,23,23
26,123,105,45,44,25,23,26
27,116,108,46,37,24,25,28
28,130,144,46,39,23,23,29
27,122,150,51,46,22,23,30
28,129,150,52,47,23,27,32
29,135,147,51,47,22,28,30
31,140,159,49,49,23,27,28
31,145,135,55,49,23,25,28
33,151,150,50,42,23,35,28
39,153,147,53,42,25,35,28
37,159,178,55,40,23,46,30
36,157,176,59,41,21,49,34
38,175,207,57,40,21,68,36
39,178,201,56,41,21,71,36
36,195,226,58,40,18,72,35
37,204,216,54,38,20,69,35
36,206,227,53,37,21,68,32
39,184,211,56,44,22,50,36
36,180,213,63,45,22,40,35
35,175,213,61,46,22,41,36
34,149,198,58,46,24,36,34
32,143,196,57,46,23,35,35
29,142,196,61,49,24,36,36
31,144,194,58,48,25,33,36
34,134,175,58,47,25,29,36
34,134,179,64,49,26,25,35
39,166,177,67,52,25,23,36
37,170,155,61,45,22,22,30
37,175,155,59,45,24,24,30
36,178,152,60,43,25,26,31
36,179,170,55,44,23,30,31
33,160,199,54,41,25,29,28
33,154,207,46,43,25,29,29
32,148,205,47,46,25,31,31
30,139,220,45,50,22,30,33
34,161,211,53,50,22,28,33
36,153,185,51,49,21,28,33
37,157,172,59,49,22,29,35
37,170,179,61,48,20,28,34
38,180,171,60,50,22,30,33
40,195,173,54,48,23,30,32
37,193,154,51,46,24,33,32
34,192,196,44,43,24,33,30
33,187,188,39,39,23,55,31
40,177,178,40,40,25,72,32
38,138,176,43,47,25,71,35
41,144,181,46,47,25,75,36
43,170,146,62,46,26,93,56
44,176,170,67,50,27,90,57
40,180,161,72,46,25,88,57
38,190,154,74,45,24,87,57
47,223,169,84,51,27,95,60
49,199,169,75,53,27,99,43
49,196,148,79,51,27,109,54
50,190,176,79,57,29,105,59
48,177,181,75,55,31,109,58
45,176,197,66,52,30,102,56
43,183,199,69,58,33,108,59
41,194,221,62,59,35,106,48
39,197,201,60,53,34,105,40
48,206,198,65,51,32,103,40
48,215,232,67,50,29,100,39
49,213,233,61,40,26,72,37
50,195,210,64,35,23,57,39
57,250,250,78,42,24,61,43
54,267,256,78,47,25,75,51
52,235,245,80,49,29,90,52
55,282,254,84,50,29,91,50
58,289,265,86,50,30,86,47
52,241,272,73,49,29,81,43
59,223,266,78,45,29,80,33
60,244,235,74,43,27,81,52
56,191,255,68,45,26,81,53
53,185,284,71,49,25,83,53
55,184,252,74,49,25,97,57
45,193,258,68,51,28,107,62
46,207,266,68,50,28,121,50
48,213,249,73,49,29,134,51
48,234,277,81,53,32,143,53
63,255,273,88,59,33,134,57
67,271,297,98,66,32,135,57
65,242,294,99,66,33,113,53
65,238,293,101,69,32,98,53
66,231,249,95,67,33,83,54
52,211,256,88,60,33,81,47
43,171,231,78,54,31,50,40
41,173,218,83,54,27,45,41
41,176,217,84,54,28,38,41
38,161,198,80,54,27,34,36
37,168,185,85,55,25,31,36
37,172,167,81,55,27,29,35
37,191,177,76,55,28,28,34
35,221,219,74,49,27,25,30
33,217,223,69,42,25,25,28
32,215,234,63,39,24,23,26
35,224,236,67,33,22,20,28
36,197,222,65,37,24,23,29
37,176,162,70,44,24,27,30
38,176,135,75,49,29,28,32
38,171,128,75,52,29,28,32
42,179,145,89,62,35,32,40
42,196,173,89,67,33,31,41
40,181,183,85,65,34,31,41
44,185,198,81,63,32,30,44
49,199,235,82,63,33,32,48
44,192,229,63,57,28,29,42
46,227,314,74,55,28,29,43
45,250,329,73,54,26,32,43
43,271,345,75,53,24,36,42
44,297,335,83,57,24,37,41
44,301,347,90,63,26,38,41
43,291,271,83,61,28,38,40
49,281,254,84,63,28,37,44
50,273,255,88,66,30,39,45
49,249,270,87,65,29,40,44
63,245,287,86,64,31,42,45
68,248,281,87,64,31,44,43
64,233,283,83,60,34,44,41
62,213,265,79,58,32,39,39
60,206,229,68,53,31,36,37
47,198,179,71,50,27,33,38
41,183,164,69,45,29,35,39
41,198,155,67,48,25,30,39
41,205,152,64,48,28,32,40
42,227,185,65,46,29,49,36
39,224,192,53,42,28,54,33
37,222,199,51,44,27,53,35
40,234,232,62,45,28,55,34
38,236,235,66,49,26,53,33
39,213,207,70,56,25,39,38
41,227,216,77,54,29,31,37
44,241,228,86,57,29,32,36
43,218,203,87,55,27,30,37
44,217,189,85,53,28,30,36
43,211,197,86,58,29,33,35
45,196,189,82,63,27,39,38
43,193,175,71,58,24,36,40
42,194,173,66,58,25,36,37
41,189,198,66,62,24,36,39
43,222,211,68,52,27,36,42
40,229,242,66,48,27,32,42
38,196,237,65,49,28,35,41
42,215,241,63,46,28,36,43
45,214,230,68,44,29,36,49
41,205,217,66,46,28,35,43
39,200,181,64,45,26,31,39
43,218,200,74,51,28,32,41
43,197,199,73,51,28,33,43
43,205,226,69,49,30,39,39
48,226,249,69,48,27,42,45
51,248,264,73,48,28,44,48
51,240,257,68,45,26,41,48
51,253,253,69,45,26,41,45
49,249,232,74,47,25,37,44
42,215,208,68,42,25,31,44
47,218,188,76,49,29,37,50
45,243,193,71,47,28,37,56
42,232,222,75,50,28,36,58
44,228,210,69,47,26,35,58
47,235,221,72,50,29,38,56
50,206,242,56,45,27,44,53
57,215,247,61,48,29,54,56
58,216,216,53,45,30,66,58
57,246,242,55,47,30,67,63
65,233,217,53,44,27,67,61
58,235,197,61,42,25,66,77
51,199,185,65,42,25,65,70
51,188,178,65,42,25,58,68
53,152,163,65,47,26,61,63
44,168,168,68,52,27,81,66
54,158,162,63,51,26,79,45
60,180,152,55,51,27,73,49
63,203,164,55,50,26,72,45
61,201,165,60,44,28,69,49
62,188,165,59,37,27,42,50
55,194,165,58,36,27,50,49
56,197,185,60,29,28,55,47
53,201,191,63,30,28,55,49
53,199,183,56,33,27,52,44
49,209,204,52,31,27,61,43
56,231,236,61,40,30,52,47
56,217,244,59,41,27,66,54
59,194,253,58,41,27,67,58
62,195,266,56,41,28,83,60
63,187,263,60,46,29,80,64
63,181,254,66,53,30,82,71
56,171,232,66,54,29,69,114
57,177,206,67,55,35,86,139
54,188,245,84,58,35,80,144
57,215,261,85,57,33,80,143
53,212,261,75,46,31,79,139
50,206,261,73,44,32,76,103
45,210,269,71,43,29,57,64
43,199,216,49,35,27,46,50
38,185,222,55,40,30,38,52
33,168,205,54,41,32,37,48
35,180,212,59,43,31,36,48
36,180,220,60,46,30,30,46
37,177,238,63,48,30,31,43
32,151,202,52,46,28,31,36
32,149,200,50,45,24,28,33
29,150,194,46,44,24,28,29
31,138,184,48,42,22,35,28
29,136,161,49,43,24,34,28
33,151,150,48,41,22,35,26
45,168,136,57,47,28,41,36
49,200,204,63,46,27,39,38
50,205,213,71,57,28,42,70
54,215,210,74,61,28,44,79
55,210,223,83,65,32,49,85
50,210,232,87,69,33,81,116
53,185,200,90,73,36,100,120
57,196,208,88,68,36,98,107
57,218,213,96,69,37,98,103
58,268,207,93,68,33,97,100
60,311,248,105,67,31,83,77
63,310,263,104,71,36,105,80
69,308,255,103,70,36,107,90
70,303,262,93,64,35,112,88
71,275,298,100,65,34,132,90
80,262,275,102,80,38,128,85
82,277,268,100,79,39,134,88
77,297,263,96,77,40,150,95
96,283,256,97,85,42,158,104
95,271,222,88,85,44,148,108
93,222,207,62,67,43,182,104
86,195,218,64,65,40,181,102
85,182,258,82,75,40,192,95
68,217,280,90,71,38,186,84
72,250,286,105,74,41,188,83
72,285,295,108,69,39,162,82
76,314,292,122,82,37,142,85
78,295,263,115,74,36,112,77
74,304,322,113,70,39,141,105
70,292,326,107,70,36,141,106
62,270,341,106,71,34,139,114
71,244,337,90,58,40,173,118
72,278,342,98,59,41,194,128
78,253,320,94,63,39,177,110
78,239,329,89,63,39,177,127
79,262,331,88,65,53,240,120
78,264,316,79,61,52,225,136
76,233,309,70,62,55,218,132
69,241,291,67,67,56,222,142
74,254,263,62,63,61,237,124
72,241,268,83,70,51,184,128
77,266,290,89,75,48,172,109
76,264,290,94,73,44,168,122
74,266,262,101,66,47,175,114
77,291,306,114,73,43,159,125
75,289,314,112,69,40,165,121
55,282,294,108,63,38,183,111
55,284,320,108,63,38,183,92
55,270,322,100,63,33,181,87
40,243,288,85,54,31,172,76
39,232,255,73,49,35,170,82
39,200,256,73,50,38,155,102
35,192,219,66,48,37,153,107
34,202,232,72,48,37,158,105
39,229,284,90,52,43,166,111
40,233,313,97,55,42,149,119
40,235,306,99,57,42,162,106
41,255,318,96,55,41,151,101
48,248,317,98,60,45,195,103
48,214,275,88,59,43,194,101
47,212,243,76,60,44,198,89
48,222,244,77,60,43,190,82
51,213,227,73,60,46,213,79
42,194,203,66,53,43,155,89
49,216,201,68,54,39,145,81
49,227,211,67,49,41,158,81
53,230,242,69,51,46,200,91
56,248,283,73,60,45,183,93
58,252,291,69,63,41,185,86
51,234,286,64,69,44,186,82
50,234,276,68,75,43,180,81
49,224,257,69,73,39,164,75
45,192,205,68,68,40,161,91
47,210,223,80,67,42,187,107
50,215,218,89,63,41,210,110
63,216,220,88,57,39,199,109
65,233,227,89,58,42,172,125
77,280,227,93,67,46,207,131
77,266,211,90,73,50,201,127
80,282,232,78,69,54,178,127
72,279,230,77,70,54,235,135
68,278,234,72,66,51,237,121
54,255,254,79,57,47,213,103
58,281,267,80,48,57,227,109
53,279,256,85,54,52,233,113
50,278,255,85,55,52,179,106
50,276,240,91,63,53,172,105
47,256,218,76,61,52,195,104
40,250,208,75,61,40,187,99
41,241,222,85,67,38,183,91
43,240,232,81,64,37,179,94
39,221,239,78,58,35,180,111
44,239,276,83,61,39,171,121
44,216,251,79,62,35,140,116
45,204,232,67,51,35,129,115
41,181,200,67,51,34,131,110
46,185,200,86,59,38,134,98
41,157,142,85,57,36,91,82
39,194,156,87,63,37,100,81
40,178,157,89,67,45,119,123
39,176,157,92,69,45,121,123
44,207,164,83,72,43,111,117
48,209,168,84,76,43,112,119
47,167,152,81,70,42,101,113
51,216,205,90,68,36,116,67
51,225,214,90,69,37,112,67
46,212,198,79,60,35,131,68
43,207,194,76,54,33,135,67
44,212,216,84,55,35,150,78
36,171,176,70,51,30,123,75
37,165,190,67,47,30,132,74
34,130,182,69,45,27,109,84
36,167,199,72,49,28,99,94
39,175,191,63,49,27,80,94
39,168,174,59,45,28,96,107
47,183,153,62,45,29,89,112
46,200,188,80,50,35,97,108
48,176,173,78,47,35,99,100
49,197,226,81,58,33,89,91
48,212,242,88,61,33,88,73
46,238,281,103,76,37,104,73
47,237,264,97,90,40,114,72
47,237,266,100,93,43,116,85
43,210,234,97,88,43,119,90
43,202,226,92,86,44,120,100
38,159,195,75,74,40,122,96
40,180,211,64,54,32,112,92
42,193,210,62,48,28,112,80
46,200,201,63,48,33,129,77
45,204,193,60,47,29,122,71
47,238,192,67,55,28,117,99
45,229,179,68,55,27,128,98
38,213,175,68,54,25,125,98
36,221,181,74,52,27,112,111
41,216,208,78,55,32,114,117
39,184,207,71,43,36,97,97
37,162,200,73,48,39,75,95
41,169,200,82,59,42,75,93
40,165,200,84,69,40,64,75
39,240,264,85,73,39,55,56
46,250,253,92,81,38,68,63
47,251,252,94,83,37,74,68
48,265,269,90,77,36,79,72
48,261,261,92,69,32,80,69
44,187,184,94,67,33,78,71
36,159,174,82,56,28,61,62
34,179,207,83,52,26,51,58
32,176,187,80,52,26,44,54
36,199,190,78,54,31,39,55
34,201,166,70,45,28,38,50
38,217,185,75,46,30,36,53
39,210,147,65,42,30,40,51
41,208,146,59,36,29,39,52
35,181,138,54,40,23,36,61
36,178,143,62,48,24,37,63
36,168,149,72,57,26,37,65
39,169,177,79,58,27,33,64
40,177,206,81,64,28,31,68
39,176,199,80,60,28,27,59
40,179,197,75,55,29,29,55
38,184,201,65,54,29,29,55
38,177,190,61,56,27,35,60
36,193,197,67,50,26,36,54
36,188,195,64,48,25,37,56
40,186,197,65,49,27,35,63
39,170,179,72,49,26,46,62
38,188,209,80,53,28,41,62
37,145,187,72,52,31,40,60
37,166,199,73,52,33,45,59
33,195,211,73,51,31,47,53
32,195,209,67,45,30,44,49
30,173,167,57,41,33,98,61
33,184,162,64,50,30,103,68
30,175,169,66,55,30,105,71
35,159,166,68,56,33,107,73
36,153,167,64,55,31,115,73
36,152,173,65,52,29,98,63
32,144,167,62,47,31,95,56
33,147,170,59,42,28,94,49
31,159,206,59,44,27,92,46
31,163,202,68,45,28,81,50
30,167,203,72,46,28,51,54
30,172,204,68,41,27,47,52
35,173,192,79,59,32,43,54
41,185,152,80,59,33,43,53
43,193,160,69,58,31,41,50
49,193,164,65,59,30,40,51
60,240,174,75,65,30,41,56
58,241,178,65,49,28,44,57
53,222,181,67,50,26,45,73
54,219,181,74,53,27,44,80
50,223,166,72,53,28,44,77
40,197,166,66,49,35,68,80
41,192,153,73,52,33,88,84
42,209,172,66,47,32,89,70
41,218,192,64,45,32,91,62
39,210,195,62,40,31,92,56
36,189,196,63,40,25,79,57
39,206,206,65,48,25,55,59
39,188,209,69,47,25,51,61
45,183,190,66,47,24,49,75
48,191,189,69,49,26,64,95
51,205,197,68,50,23,63,99
51,189,188,68,48,24,61,94
57,185,173,68,49,24,63,92
51,186,182,69,54,26,60,84
66,207,253,73,60,29,41,61
95,191,253,71,59,30,48,50
128,219,267,70,62,31,81,60
136,215,256,78,66,34,84,62
138,215,253,86,65,36,90,64
139,210,197,94,63,35,93,68
123,220,224,97,61,36,99,74
94,232,237,95,57,35,128,68
80,236,242,84,57,36,133,78
81,284,251,81,54,33,132,79
69,283,245,72,53,31,132,79
84,276,211,73,58,31,139,73
86,243,183,69,54,30,96,71
92,262,192,76,49,28,88,65
92,213,190,73,52,27,84,58
91,198,199,82,54,30,100,58
83,216,206,77,49,29,121,62
72,209,204,75,52,29,121,63
68,180,193,72,54,30,126,57
75,171,184,71,53,30,126,54
78,174,169,55,49,26,112,50
72,176,163,55,47,25,64,47
70,191,160,58,45,24,55,43
78,196,162,60,46,24,71,42
69,215,209,67,48,25,81,44
66,219,218,73,50,26,83,62
75,227,234,80,53,31,84,69
87,227,263,93,57,32,86,72
77,236,277,94,57,34,64,73
82,214,254,95,61,33,47,73
91,218,250,90,59,33,44,59
82,185,227,88,62,33,63,52
68,173,206,81,63,34,67,47
84,158,192,76,61,33,69,48
81,163,205,79,61,35,84,58
77,146,209,81,66,36,85,62
80,154,215,89,77,37,90,76
84,152,217,86,80,34,87,77
68,139,212,86,81,33,87,77
66,130,191,79,78,33,75,76
63,143,207,82,79,33,75,71
63,206,233,84,78,31,50,60
61,234,255,78,71,30,48,58
63,235,266,81,71,32,49,62
67,240,262,87,76,31,65,56
64,250,268,98,79,32,64,59
60,216,256,86,72,30,62,52
63,208,272,89,81,34,63,56
89,216,265,90,82,39,67,62
86,250,278,84,78,44,51,64
95,236,281,65,74,42,65,65
94,229,302,65,68,42,68,67
97,231,270,70,62,41,72,69
77,237,295,83,75,37,75,63
73,210,297,88,82,31,75,62
61,205,286,92,82,35,75,65
66,256,294,100,81,37,102,67
96,261,294,98,81,38,105,68
106,330,299,134,111,38,99,106
109,329,282,139,113,36,99,108
111,341,276,136,110,33,90,110
109,300,237,132,111,30,57,110
87,287,244,137,115,31,70,118
99,239,230,104,91,34,79,85
97,241,237,92,81,38,91,85
97,235,230,91,81,38,93,79
103,234,234,94,86,41,98,77
117,260,263,99,85,41,93,65
108,248,275,84,71,38,96,74
115,263,291,86,72,39,165,73
121,266,295,86,72,39,167,86
122,285,293,88,83,36,172,90
128,286,265,80,82,36,172,88
126,288,254,94,93,41,172,92
153,269,250,93,94,40,118,91
150,261,248,94,96,42,136,78
145,240,235,90,86,43,129,71
124,307,266,93,82,43,122,76
128,314,319,104,77,40,122,77
91,322,315,114,85,48,181,109
88,325,329,116,87,48,170,109
122,325,340,113,82,51,176,111
128,248,329,112,96,49,184,117
116,219,262,95,91,46,180,108
110,206,269,89,83,38,117,75
114,203,253,87,78,42,164,77
85,218,248,96,78,38,163,80
90,219,248,90,60,41,162,79
91,239,259,85,55,42,163,77
93,235,262,79,55,41,171,76
93,235,265,79,52,37,123,79
98,227,272,69,54,38,117,73
91,216,277,68,57,37,114,67
91,206,263,67,57,36,126,80
98,240,246,66,54,34,110,87
96,235,240,67,60,30,117,84
82,229,229,68,59,30,124,87
92,214,192,61,51,25,117,77
89,191,190,63,52,24,103,73
82,157,220,61,51,27,100,72
87,155,224,61,44,28,104,72
88,160,248,59,39,27,101,70
86,183,256,63,44,30,104,75
92,177,249,62,40,31,109,69
100,187,216,61,42,31,99,65
104,191,215,64,48,28,89,63
101,179,205,65,48,29,85,60
87,174,222,63,47,27,90,52
93,180,235,62,48,27,82,44
98,198,240,69,63,28,81,52
90,205,254,68,63,28,93,59
92,207,247,63,66,28,83,58
90,189,217,61,66,29,73,58
78,201,216,68,67,29,71,59
120,183,218,75,69,30,73,54
120,173,193,71,68,29,47,46
119,176,192,78,69,29,40,47
119,191,189,84,72,28,40,53
118,176,207,83,77,31,44,61
64,205,263,80,63,26,36,65
63,204,264,89,72,28,37,64
86,211,256,88,72,31,43,74
85,212,257,82,66,31,59,70
86,210,236,78,61,27,57,64
80,161,158,73,61,28,63,56
82,179,192,71,52,28,66,59
62,176,199,66,47,25,64,47
65,162,194,69,51,24,49,49
66,181,197,73,52,25,47,58
62,180,201,70,54,28,40,69
75,191,165,66,53,25,34,72
73,211,147,70,53,25,30,70
72,212,145,69,52,28,30,68
69,202,135,65,53,26,30,60
70,216,148,70,55,25,32,45
51,200,164,74,55,28,35,45
54,182,169,68,52,29,34,53
63,183,172,68,54,27,35,55
64,191,209,73,60,27,36,54
61,189,191,68,58,26,34,58
64,183,194,63,56,25,31,52
59,168,186,61,57,23,32,48
50,172,201,62,53,25,33,45
74,170,197,67,48,27,40,63
76,193,231,75,50,31,50,65
77,199,243,78,53,35,109,67
76,204,246,80,55,35,113,69
75,215,240,85,57,36,116,70
65,265,230,93,66,38,117,60
76,270,201,122,87,38,115,67
73,313,230,136,92,36,84,75
83,351,298,153,112,40,104,93
84,351,301,153,115,38,105,104
76,317,295,144,108,34,111,106
70,291,297,113,88,31,114,97
74,284,273,101,93,30,99,93
63,258,236,89,75,29,72,75
64,246,241,89,78,30,64,60
61,243,243,91,83,33,50,63
57,251,254,92,85,34,63,68
54,216,267,81,73,32,104,69
69,264,288,71,71,30,107,69
69,272,290,67,65,34,120,77
83,268,302,69,65,37,139,73
86,317,308,72,67,39,153,85
98,317,298,78,65,46,148,82
90,267,280,74,61,47,159,91
97,285,309,86,66,53,163,87
105,312,326,92,63,59,209,93
108,291,354,94,65,81,250,86
97,287,351,94,71,91,264,109
100,287,398,100,77,97,283,133
109,361,418,96,77,100,337,146
111,405,411,102,84,100,322,160
125,468,415,102,78,93,317,159
124,484,432,101,74,85,338,149
122,504,416,105,71,94,343,126
107,441,389,101,68,95,324,111
86,416,465,93,64,92,316,91
57,358,439,89,68,82,293,90
69,331,421,90,68,83,255,90
81,301,398,84,66,71,253,85
89,327,406,92,66,67,214,85
95,296,363,97,74,64,200,85
96,266,386,103,79,66,197,85
87,269,392,105,85,76,245,80
75,298,410,103,82,68,215,79
69,269,383,90,78,64,206,80
75,311,360,82,67,63,213,75
84,303,354,71,58,61,222,76
87,300,338,67,55,38,159,79
89,329,390,82,63,41,162,82
89,377,419,89,63,42,156,86
84,359,406,99,67,44,168,108
74,355,381,100,68,43,144,110
85,378,414,101,66,44,149,115
83,324,320,87,59,45,140,109
79,287,295,88,66,44,156,105
117,281,273,77,59,43,156,91
115,278,274,78,63,43,167,100
107,250,259,78,65,42,161,98
113,258,273,79,69,41,165,97
114,229,258,70,64,40,166,96
72,195,279,69,68,38,152,85
85,213,293,74,64,39,132,68
84,208,259,73,59,36,148,53
78,208,274,90,57,40,161,66
83,255,265,93,54,42,153,78
84,265,251,89,44,47,192,86
70,265,266,88,46,46,194,86
68,300,297,86,52,46,180,89
73,311,297,78,62,47,167,81
75,295,301,78,62,47,188,71
73,298,313,79,65,47,154,64
72,287,300,74,63,45,153,68
73,269,285,76,56,47,161,80
68,309,306,84,47,43,170,83
70,297,347,88,47,42,145,85
73,288,328,97,47,37,149,92
92,288,314,95,49,42,158,97
101,319,363,102,59,50,166,95
100,262,322,87,58,48,156,93
97,270,291,89,61,50,162,91
94,281,294,83,62,51,154,99
82,281,299,88,64,53,167,96
71,299,320,109,64,45,149,89
83,334,367,117,64,59,189,90
78,342,357,114,62,63,215,98
76,324,359,113,63,71,259,101
80,386,374,118,64,73,251,107
86,442,393,125,64,81,263,130
82,420,367,120,65,74,244,132
81,415,367,120,66,69,231,128
90,418,365,117,64,59,188,121
83,403,397,123,70,54,190,115
86,338,386,105,66,46,185,92
79,347,372,112,69,51,182,91
85,341,376,109,72,54,194,102
79,383,393,113,71,58,184,99
81,351,350,100,67,59,197,108
82,383,295,89,68,57,203,114
84,369,336,76,66,52,208,111
81,395,366,85,64,50,184,106
78,356,345,86,69,46,188,109
76,345,343,93,68,53,185,109
86,288,333,90,67,50,165,99
106,308,299,90,62,48,172,102
102,267,270,88,61,46,163,93
102,283,279,84,66,43,164,90
106,343,316,81,64,36,165,75
87,318,308,81,62,38,172,89
65,312,307,84,65,37,153,91
79,320,301,84,67,38,152,96
83,323,300,84,58,37,156,87
81,260,287,79,57,34,157,96
86,245,285,81,71,41,157,94
95,230,315,75,70,43,153,87
91,261,359,80,78,44,150,85
87,289,346,86,79,44,132,83
84,281,320,91,83,42,90,71
83,299,324,90,73,36,121,57
122,324,305,102,86,38,135,79
121,314,262,105,76,40,140,82
129,321,303,112,80,43,151,97
132,334,319,110,77,46,170,109
130,319,325,115,80,49,150,112
80,342,358,114,69,46,137,99
73,334,353,107,72,43,136,94
62,290,335,95,71,42,139,87
63,334,336,97,74,43,142,84
79,361,327,95,79,41,155,136
79,368,356,93,82,43,170,138
85,362,349,93,79,42,173,143
87,359,342,88,76,41,167,143
84,324,334,86,75,39,201,142
69,336,353,79,68,40,192,98
67,280,273,71,64,40,178,99
62,283,296,74,65,41,179,93
54,291,312,80,64,41,191,84
47,285,317,79,61,39,135,75
54,237,281,75,58,34,130,59
54,230,294,72,56,34,133,51
53,265,350,78,63,37,148,60
51,258,334,73,60,34,125,61
58,253,339,74,59,35,118,62
50,251,346,76,60,36,119,62
52,260,323,75,57,35,134,62
45,209,223,65,43,30,108,49
62,234,238,88,72,40,116,55
57,211,195,84,73,39,110,51
66,252,293,108,87,42,109,73
63,239,298,111,91,41,84,75
68,269,331,112,94,43,126,91
54,246,313,101,81,43,131,92
52,242,315,101,79,42,135,91
50,240,246,103,79,42,128,87
53,256,257,111,86,45,126,87
63,227,250,118,97,45,102,101
71,227,266,111,92,38,86,103
86,242,277,112,92,37,111,106
82,203,245,86,78,34,132,101
97,211,241,78,66,30,136,98
93,261,277,82,52,32,130,69
104,313,277,113,85,55,186,92
101,327,299,116,88,57,181,93
121,389,325,130,100,60,178,95
116,375,311,127,104,65,196,100
115,354,255,127,105,65,220,104
102,319,237,101,83,50,182,85
98,320,208,102,83,50,185,94
79,240,178,89,77,49,183,92
72,261,187,87,70,41,172,90
75,248,211,75,65,37,140,93
78,265,229,76,65,38,142,103
74,254,232,75,65,37,128,101
68,253,230,64,55,31,117,99
65,229,236,64,56,36,125,99
75,225,210,71,69,40,173,90
70,205,209,69,66,39,166,73
81,213,219,63,64,40,178,69
82,204,243,64,63,42,197,88
91,235,260,69,65,42,194,94
90,282,276,69,51,40,160,100
97,289,282,76,61,40,175,99
87,270,263,78,64,42,169,94
90,292,236,91,73,49,172,76
89,281,223,96,76,48,164,65
77,236,242,90,79,47,155,56
74,234,238,87,78,46,159,58
74,270,259,92,75,46,169,64
72,256,266,80,67,43,151,67
72,272,267,74,65,43,150,78
78,285,235,81,65,44,177,84
75,276,216,79,55,43,173,80
78,272,205,79,57,44,162,80
83,295,192,88,64,41,168,89
77,294,185,88,66,41,175,78
76,339,217,85,63,40,162,75
73,339,223,85,66,42,147,80
67,319,246,87,71,41,143,75
55,304,254,75,66,45,142,61
61,379,308,94,71,52,165,67
51,324,316,90,70,50,161,61
52,329,328,91,70,52,165,65
69,391,329,110,84,57,185,69
76,417,348,116,85,56,189,89
71,391,357,114,82,58,175,116
86,419,340,114,79,60,177,123
102,445,342,112,80,62,181,132
105,404,338,94,54,61,199,138
108,403,322,92,59,58,187,130
108,355,257,72,57,51,183,107
103,359,279,77,60,53,167,108
91,354,307,82,64,50,173,97
108,372,330,95,73,43,135,119
110,398,358,107,74,47,141,127
120,446,378,113,75,50,135,133
143,424,360,112,76,50,152,140
151,425,346,115,70,48,154,136
134,444,316,101,65,47,145,130
139,414,278,88,62,43,143,124
132,359,269,90,61,42,170,124
110,363,284,94,69,46,161,114
108,342,298,90,72,51,182,120
110,301,286,93,81,54,184,112
103,295,291,98,83,56,195,124
106,318,321,97,82,55,186,128
99,309,310,89,72,52,198,122
87,304,304,84,72,48,165,130
83,297,322,79,63,49,190,143
78,292,370,71,54,46,180,138
73,276,334,64,53,46,192,130
73,296,347,76,62,62,191,134
80,300,377,77,59,67,202,133
75,298,379,82,63,65,180,120
71,318,344,86,65,66,172,109
65,301,359,85,63,65,184,107
60,277,344,75,57,53,178,101
47,255,287,74,64,54,172,116
59,288,279,85,70,53,168,109
67,239,260,77,67,55,181,111
69,246,238,73,72,63,169,112
80,278,254,76,71,58,192,151
90,287,272,85,68,55,195,136
82,237,263,68,57,55,209,133
74,246,275,73,62,53,213,130
76,251,287,83,66,47,193,126
69,253,299,86,71,46,169,84
60,249,265,73,68,44,158,117
68,257,259,88,75,51,159,121
70,257,251,92,79,55,158,124
70,258,235,85,72,51,153,129
70,221,199,82,69,52,141,127
70,232,222,84,71,54,135,93
66,228,213,69,66,51,129,85
66,218,207,61,56,45,99,81
69,230,248,66,57,47,118,111
70,274,268,83,68,50,125,113
68,259,265,82,65,47,145,110
64,251,273,84,65,43,137,110
69,248,268,87,66,42,136,112
59,222,239,84,66,39,134,78
