166,216,422,155,101,122,65,99
164,319,535,209,111,134,68,104
169,319,515,214,114,156,66,108
178,325,569,221,114,139,69,110
153,310,543,209,118,141,71,98
159,377,609,235,132,165,80,102
147,299,497,187,126,160,81,101
134,318,540,175,119,142,82,96
126,303,499,173,117,145,83,92
124,350,553,174,108,147,85,91
154,290,477,137,90,117,79,82
149,295,481,139,97,114,76,75
151,262,470,179,127,118,72,71
160,255,453,177,126,115,66,72
164,195,387,191,137,126,65,78
129,197,397,195,140,124,62,74
141,232,433,196,146,129,61,82
143,297,468,170,125,128,68,84
161,325,450,183,132,119,67,78
161,356,488,222,186,137,78,89
167,367,515,237,203,139,79,90
158,336,502,232,193,135,80,87
156,342,560,242,208,162,79,88
184,336,580,247,218,173,83,93
203,316,565,214,179,152,76,82
199,323,563,200,165,157,77,85
201,339,605,234,185,169,84,85
222,328,529,238,178,142,83,91
173,310,549,228,170,132,80,96
149,323,596,244,172,151,80,92
161,337,614,265,175,150,78,93
191,362,550,236,175,149,79,97
195,398,634,238,180,147,80,112
209,449,636,240,173,151,94,132
239,508,640,267,159,140,108,157
231,486,591,251,152,136,113,155
212,480,664,274,143,127,113,170
190,430,550,267,143,131,119,172
178,387,556,266,150,129,108,154
156,299,529,222,155,125,99,140
166,292,537,226,157,121,100,146
172,296,507,238,179,136,117,147
170,341,530,240,169,134,109,126
167,322,477,224,154,131,107,124
166,323,518,218,158,135,110,122
166,323,506,205,159,152,109,119
152,289,456,194,144,135,86,97
141,211,413,180,144,130,86,103
149,228,500,199,145,131,95,113
149,232,415,195,141,115,84,104
141,227,428,207,137,104,81,96
152,258,518,192,106,108,82,106
153,272,520,187,97,118,80,103
161,285,496,174,130,135,81,95
150,258,493,173,130,143,79,98
146,272,502,157,126,137,77,102
150,258,414,137,132,131,77,105
159,270,482,165,143,131,77,104
166,280,435,162,114,111,67,99
165,301,495,178,111,104,70,102
177,401,536,197,112,97,70,106
170,386,530,201,113,111,75,94
168,376,521,189,108,103,71,91
157,384,592,224,134,130,81,97
165,383,536,215,137,128,85,96
163,267,490,199,155,159,91,93
184,270,490,199,174,171,95,95
197,272,530,192,169,172,97,99
205,236,478,152,151,155,91,96
215,220,489,145,146,160,93,98
219,213,485,151,129,141,94,107
198,213,527,165,114,124,88,107
184,216,451,161,126,134,87,105
171,241,425,157,134,140,89,114
160,228,399,152,130,141,80,116
140,251,447,146,133,143,76,101
153,262,416,118,118,141,75,108
163,304,413,143,109,141,81,138
156,286,418,151,101,138,80,132
135,301,437,181,102,127,77,127
161,281,389,190,109,127,71,132
171,333,437,207,109,121,66,121
166,310,466,211,117,110,58,92
166,316,521,208,123,139,65,90
194,302,522,187,132,146,61,99
195,316,532,184,122,139,69,103
177,250,492,163,125,142,78,105
171,260,488,191,141,144,80,98
186,261,476,211,147,122,77,98
164,271,459,211,138,116,80,86
144,317,502,221,147,117,80,82
141,315,497,226,143,112,74,75
180,293,480,185,115,110,75,85
177,299,431,179,114,95,69,79
188,294,443,189,128,99,70,83
185,233,393,172,125,97,62,80
183,237,374,177,143,115,58,82
151,322,462,173,144,111,51,93
137,316,462,169,134,111,48,102
117,316,473,159,124,108,56,111
154,377,508,202,155,106,72,125
163,383,546,191,141,91,78,127
166,308,461,189,139,89,77,113
166,304,449,179,143,89,80,107
176,311,479,178,148,91,72,91
143,223,430,137,115,105,56,69
175,229,413,145,126,129,71,74
183,243,436,152,140,134,74,80
196,244,447,147,140,137,74,78
191,239,426,148,137,137,76,83
191,268,435,139,139,141,81,85
154,250,422,159,148,150,81,83
133,244,478,169,145,155,88,85
164,244,492,208,139,152,88,107
162,259,502,231,144,165,101,109
169,236,480,243,143,159,98,110
201,285,484,243,134,139,89,113
213,292,410,241,127,134,85,108
184,325,425,216,123,138,89,91
191,312,388,201,122,119,75,85
183,316,411,181,109,107,72,79
177,283,402,179,115,100,63,70
185,276,448,196,151,111,62,91
180,242,425,189,154,107,51,101
163,228,461,186,153,111,52,105
171,232,466,187,155,113,54,111
146,271,518,188,152,114,64,113
134,300,497,175,135,132,72,111
140,307,492,193,140,135,73,105
160,317,468,195,151,139,83,100
159,308,467,198,152,140,87,101
159,261,448,189,148,139,82,102
141,222,439,191,146,126,72,91
146,231,446,177,148,140,90,87
133,220,446,163,129,133,78,86
137,254,529,181,131,136,77,80
178,271,571,185,131,131,77,79
181,276,601,166,112,119,79,74
189,268,594,163,110,116,63,73
190,285,615,169,117,119,64,84
186,252,539,143,113,121,60,79
144,234,465,142,129,124,68,76
156,257,429,143,134,119,64,78
146,269,447,135,122,100,63,87
145,269,426,140,121,107,69,82
141,278,428,151,123,114,75,89
149,329,462,177,123,126,85,103
167,307,438,183,119,131,87,100
167,326,509,202,127,133,86,94
162,332,509,198,129,128,82,86
178,341,508,216,147,134,90,91
176,291,461,182,126,115,77,76
171,297,473,179,130,128,84,105
180,262,384,181,141,139,91,104
184,254,403,196,154,146,93,107
182,248,412,180,136,131,85,107
182,270,424,194,140,131,84,111
168,266,439,197,142,119,81,96
172,297,495,205,143,116,74,95
174,291,477,187,122,113,80,108
160,286,447,179,122,114,84,105
153,310,490,172,122,115,83,99
153,315,472,169,119,118,76,91
131,279,380,136,102,111,74,92
123,278,339,157,119,118,66,74
147,308,468,169,125,118,63,79
146,262,420,167,124,119,66,79
141,246,432,161,126,127,70,76
145,239,438,156,130,141,79,82
172,272,507,146,128,137,89,105
166,252,463,148,132,144,85,100
166,251,491,148,129,144,84,105
174,249,470,156,135,133,79,107
176,245,483,165,133,116,72,107
167,251,469,196,140,111,55,84
156,242,459,205,146,111,59,81
168,281,487,226,153,112,64,111
161,288,505,229,143,110,67,113
186,300,504,232,138,112,64,112
187,311,499,215,136,108,73,121
210,328,494,212,125,113,81,132
205,310,444,196,122,126,80,106
207,332,465,214,129,130,82,105
185,337,460,223,151,139,94,115
165,303,445,237,163,141,94,117
133,291,424,235,163,137,84,111
129,271,445,236,168,143,78,110
145,270,465,228,173,144,85,130
128,255,505,232,171,140,76,118
135,241,514,201,147,135,76,111
153,239,502,201,159,140,79,113
167,290,517,216,161,131,88,131
141,268,463,214,159,135,81,107
156,274,434,193,145,127,79,112
157,285,411,199,155,162,87,117
141,270,404,196,143,162,88,114
142,255,391,186,151,167,81,90
142,244,418,191,147,166,80,90
133,256,428,195,146,171,84,91
134,274,508,208,152,143,78,97
142,297,521,213,159,145,77,97
134,289,519,200,138,130,76,104
186,324,507,202,149,153,82,113
191,355,500,215,166,149,78,117
210,411,505,238,161,150,73,112
219,406,483,223,150,141,76,111
214,398,469,230,150,141,81,114
171,375,455,216,132,110,74,122
179,355,554,240,120,116,83,114
180,287,486,226,111,135,85,111
175,272,503,231,108,137,81,112
174,278,521,221,115,138,78,108
177,269,528,226,122,137,77,93
160,252,435,214,131,128,71,92
130,241,452,191,135,116,71,93
130,236,443,179,137,111,69,85
144,243,404,189,134,119,77,91
160,319,455,210,145,123,77,86
161,297,409,177,135,137,80,87
176,285,405,189,147,133,81,87
164,300,425,215,153,136,87,104
192,332,466,211,168,136,82,105
179,351,485,200,165,155,85,105
180,370,514,205,172,166,86,107
164,374,482,183,155,159,80,100
166,419,540,180,152,165,73,88
115,379,497,190,137,157,67,73
104,305,456,164,124,136,67,70
115,318,441,157,100,110,57,81
125,327,452,189,112,122,61,89
151,274,390,178,132,127,62,88
166,292,448,183,139,139,70,106
180,302,450,191,147,147,69,117
181,264,434,194,153,152,67,110
192,271,446,208,167,148,75,114
171,287,498,228,163,146,75,114
181,281,461,226,178,138,73,99
179,287,449,234,181,131,75,89
186,306,479,234,180,130,77,86
176,287,456,202,159,132,73,89
175,258,370,170,141,116,74,86
154,259,392,171,112,118,70,90
141,240,383,160,94,114,62,87
143,225,369,178,100,104,67,94
137,224,438,186,109,102,60,84
142,228,425,183,111,109,63,103
141,213,398,160,118,128,65,99
156,277,453,168,127,130,73,100
129,287,454,155,124,135,69,96
137,307,453,252,154,135,66,90
169,360,493,264,156,130,64,76
173,362,480,284,166,119,72,89
167,319,427,282,170,143,70,102
193,307,441,283,173,145,71,106
186,305,440,199,150,147,88,121
147,242,430,206,147,157,93,117
138,244,473,188,142,173,100,117
143,237,472,188,143,158,101,111
145,275,485,200,152,156,100,101
143,290,522,205,146,161,89,84
154,299,516,183,147,167,87,94
157,320,550,197,163,147,69,80
165,332,548,202,160,152,74,80
144,310,512,184,146,154,77,83
163,279,437,174,143,138,70,86
153,260,438,176,143,119,79,98
149,226,412,158,115,107,84,102
177,258,511,173,102,87,76,104
176,249,539,178,102,83,81,104
181,242,515,170,107,82,89,117
193,252,512,174,102,73,74,101
212,287,528,174,89,76,73,101
183,246,437,162,122,118,75,98
185,260,451,165,127,117,69,100
172,273,535,182,123,116,60,90
163,301,577,184,133,134,75,99
159,283,539,191,141,137,77,105
152,283,536,174,117,110,86,105
143,268,507,169,115,115,90,105
148,272,458,165,116,126,93,98
162,233,413,166,100,109,82,89
143,209,396,144,86,101,78,79
147,225,450,163,80,96,68,85
154,293,478,185,98,123,76,91
163,311,485,196,124,126,82,103
151,309,462,186,127,129,85,102
165,319,457,187,128,130,84,102
160,319,462,177,131,135,81,94
163,264,507,163,114,115,72,86
168,237,462,139,102,105,64,75
171,280,567,186,102,106,64,73
179,272,595,203,117,115,67,78
194,303,587,218,125,117,69,82
221,346,531,234,130,120,71,82
220,359,564,258,126,126,71,86
218,323,463,238,136,121,69,87
211,321,427,231,129,125,75,90
204,307,369,212,115,127,72,89
185,249,386,200,117,124,71,94
205,312,423,180,115,116,72,91
217,322,434,185,103,122,77,95
217,339,440,185,101,111,76,98
222,313,439,189,112,102,80,105
237,339,449,199,133,104,81,103
212,307,404,241,151,108,79,106
212,299,408,228,150,104,76,107
212,324,463,248,165,125,72,100
210,343,512,259,181,131,75,100
206,354,521,238,158,126,70,108
229,339,524,182,142,129,74,107
228,379,522,182,140,131,79,114
224,357,508,180,141,117,82,111
229,359,510,209,127,121,77,102
237,357,515,238,138,116,76,93
232,398,552,262,148,115,73,97
237,396,621,266,164,135,74,95
234,415,653,244,156,148,80,100
229,434,679,205,143,133,78,101
203,445,690,175,140,136,76,97
199,419,702,195,148,135,77,92
201,449,674,219,151,130,79,90
199,431,713,225,143,107,69,89
227,429,652,228,147,120,69,96
255,427,618,251,149,126,76,100
254,401,606,215,122,120,72,102
251,345,601,204,113,117,77,104
268,427,539,229,121,120,79,99
246,429,577,233,122,120,86,101
214,430,624,215,124,121,83,104
254,451,617,211,128,125,92,104
268,475,606,198,121,113,84,96
267,468,621,192,122,122,83,101
280,465,646,203,121,112,76,94
283,461,611,207,139,112,70,84
233,469,650,221,142,111,63,77
214,498,654,249,143,114,61,77
227,467,701,253,140,114,61,82
208,469,706,254,137,121,66,87
211,459,723,272,132,128,71,88
248,446,641,265,135,141,78,94
268,431,655,301,156,147,102,111
263,446,607,314,185,173,112,116
282,429,552,319,219,195,121,124
287,433,555,311,217,191,124,125
251,418,563,313,216,185,118,124
225,362,555,250,200,176,103,115
203,319,571,219,175,144,90,102
176,350,619,205,151,127,78,87
153,341,610,191,137,127,70,93
159,350,626,189,140,126,72,94
152,350,597,194,136,127,65,86
147,354,531,196,129,126,62,83
155,346,531,210,125,126,63,95
154,328,477,199,119,117,69,98
145,372,570,203,117,115,70,98
197,434,567,208,117,115,71,97
199,415,578,226,127,117,74,101
188,441,655,232,137,124,83,98
196,499,721,254,144,133,82,94
288,483,649,254,142,138,82,94
257,452,678,258,154,148,90,98
267,477,731,241,150,159,95,98
319,479,689,262,146,149,91,103
319,432,671,260,151,142,91,104
242,422,707,254,149,137,88,96
247,423,711,245,141,134,83,90
234,387,670,239,148,136,85,96
169,347,616,182,144,135,89,115
195,353,641,150,134,142,94,126
215,345,585,157,138,141,96,129
216,300,573,171,149,129,95,134
238,358,560,193,162,116,90,132
243,354,567,192,145,96,78,116
227,336,481,205,174,110,70,100
208,329,489,197,178,114,71,106
215,364,515,205,171,123,75,113
216,337,480,184,149,116,81,117
206,361,451,195,168,134,91,121
193,359,474,217,155,137,97,140
187,339,459,216,165,137,96,134
181,355,426,221,175,149,96,127
162,335,425,231,176,152,90,120
156,286,406,230,161,140,80,109
164,295,402,205,149,130,73,86
190,300,456,216,134,126,73,92
183,293,498,212,118,110,71,98
169,280,526,202,127,123,71,103
186,299,612,209,133,131,75,119
203,298,626,256,142,125,74,115
194,308,616,270,154,130,84,131
231,303,595,261,153,135,82,129
245,311,560,252,144,122,81,125
240,284,549,248,144,118,86,111
229,297,579,231,130,107,88,117
238,333,608,227,130,107,78,96
233,311,568,218,130,96,76,91
261,328,572,219,129,95,75,89
312,373,529,232,130,82,60,88
345,392,469,209,134,95,56,88
336,348,379,182,122,81,59,84
323,365,363,203,128,115,65,84
305,371,382,222,140,131,81,103
293,354,343,216,144,138,83,101
251,308,343,218,155,147,86,96
261,310,350,223,149,151,86,103
244,284,364,220,146,135,82,100
247,270,337,237,139,123,73,91
198,255,320,213,125,122,81,101
191,255,294,209,102,112,81,100
218,268,311,212,104,112,79,98
251,340,393,222,117,116,88,112
231,333,434,189,118,115,84,102
218,327,454,222,141,113,79,89
222,343,460,232,164,113,83,91
176,357,484,241,178,123,91,103
124,288,449,236,176,112,80,92
145,299,424,242,182,124,83,98
144,281,477,246,192,128,80,109
177,267,476,232,181,117,77,111
205,254,458,219,168,110,69,100
210,259,426,200,164,106,67,102
247,246,414,203,169,106,63,106
257,291,315,177,150,109,76,95
236,300,334,172,160,118,74,96
216,291,346,174,160,115,73,99
211,271,344,178,149,116,71,94
157,257,333,170,148,114,73,86
147,220,458,192,147,106,59,84
181,239,477,190,133,115,61,77
179,238,499,208,135,112,60,75
243,266,502,202,142,114,70,85
247,284,531,202,144,127,77,92
246,267,421,169,141,145,82,94
215,225,378,175,143,135,84,98
213,229,308,142,148,144,89,107
129,200,297,165,151,148,89,101
155,173,344,153,137,157,93,99
154,197,345,155,132,151,93,96
214,234,374,159,127,153,91,95
260,311,482,224,130,149,97,108
271,343,518,210,123,147,100,122
245,345,465,216,123,134,94,125
243,362,471,216,117,118,92,134
220,368,467,211,116,111,91,141
159,304,392,154,104,108,77,118
242,317,347,168,131,122,79,108
253,349,420,203,151,116,78,103
273,346,432,202,153,118,76,94
276,376,439,208,156,122,73,79
281,392,446,209,169,152,88,84
218,392,506,210,160,162,95,96
216,365,454,183,146,167,99,93
233,375,444,190,151,166,102,94
213,346,451,175,148,164,106,96
216,354,435,162,131,146,100,101
220,320,380,179,123,119,84,85
234,343,376,181,125,104,81,90
199,308,397,174,131,123,86,95
195,308,374,193,132,119,84,106
192,269,367,203,134,109,81,105
225,292,384,185,137,110,81,104
213,310,444,203,130,117,107,130
209,332,495,237,122,112,102,137
207,326,500,232,113,118,100,126
210,334,489,241,128,138,105,128
153,326,519,253,147,152,108,132
151,325,464,241,144,142,79,126
170,323,408,219,144,138,99,140
169,305,397,219,148,137,104,144
201,308,413,217,144,116,102,148
219,290,375,185,110,95,100,147
253,343,476,190,145,109,103,133
258,360,535,228,154,110,106,128
259,374,565,239,154,104,106,129
227,368,560,221,147,101,102,117
209,379,601,227,155,116,111,134
198,363,565,206,119,109,107,140
189,348,528,157,115,110,93,132
183,331,502,132,145,141,89,130
181,326,513,135,148,161,99,133
229,388,532,170,157,156,96,123
212,363,584,224,192,163,108,111
221,349,609,221,191,160,104,102
253,400,649,231,170,142,104,102
266,409,708,242,164,135,102,120
245,353,686,221,149,133,94,116
236,321,634,175,113,123,80,122
229,345,670,176,106,121,75,131
215,289,616,165,112,139,83,141
224,294,548,160,119,125,81,137
212,270,539,158,130,137,87,145
257,290,522,159,121,136,89,140
252,279,425,151,118,141,90,135
266,300,476,152,108,113,79,129
267,325,543,157,114,127,85,131
280,338,557,188,116,119,85,134
240,314,561,199,117,121,88,133
287,314,610,205,128,123,91,137
291,314,613,203,125,130,99,142
284,318,609,195,129,135,96,133
265,334,676,176,143,157,104,118
302,363,672,166,139,154,102,133
261,361,633,188,149,154,107,126
243,349,615,204,160,152,103,120
228,336,667,235,157,151,102,121
266,329,580,243,151,134,96,133
225,303,566,241,170,141,106,130
211,284,615,229,157,150,100,124
245,350,644,236,163,157,108,139
272,341,568,243,161,150,107,140
249,334,609,259,151,140,106,132
244,342,617,262,132,135,98,125
274,401,592,259,137,118,106,139
244,360,567,268,138,118,99,124
220,391,526,233,134,124,97,121
214,391,488,189,139,133,110,124
217,396,537,206,143,130,113,120
235,357,505,209,163,144,113,120
218,336,481,190,165,152,123,127
221,276,484,187,176,154,132,134
207,273,477,203,174,148,122,134
205,273,439,219,175,150,118,133
180,253,473,215,155,137,117,134
198,266,518,225,141,135,121,141
205,279,535,234,131,127,116,141
211,260,554,227,125,121,108,133
234,301,613,201,130,148,125,147
203,342,661,198,130,149,123,143
185,327,657,164,119,133,116,127
186,331,675,189,133,136,114,123
204,343,657,197,145,148,116,129
200,310,602,203,154,138,104,123
203,258,515,209,155,147,110,116
202,276,541,236,171,157,118,128
209,279,562,208,152,149,125,134
191,266,539,225,151,142,135,132
160,249,544,260,164,132,149,145
161,301,600,270,162,138,151,147
161,293,563,253,153,161,165,137
130,281,487,250,155,165,164,135
140,293,521,233,150,164,168,146
183,285,522,175,113,159,150,133
189,233,469,162,111,148,159,147
190,225,463,151,107,120,147,147
198,230,522,176,150,151,168,157
184,231,533,210,144,150,163,154
175,223,547,226,166,155,165,149
169,222,567,234,176,178,192,152
182,231,574,268,215,197,208,158
204,234,589,283,222,181,195,148
218,240,559,293,252,189,198,153
226,278,586,327,269,189,199,163
226,271,590,331,283,191,173,159
217,268,595,316,261,168,152,157
199,293,610,295,241,161,143,155
188,321,670,266,213,165,169,147
144,286,623,242,196,169,186,139
151,290,597,239,166,145,172,122
159,286,601,242,165,167,253,144
150,262,561,238,161,162,255,135
147,233,513,235,162,146,237,133
144,239,547,207,142,143,248,133
132,252,564,201,177,164,280,152
121,269,642,199,172,147,208,128
144,275,674,213,172,159,219,147
176,282,638,212,173,166,225,155
178,287,644,223,192,175,207,156
179,298,663,244,171,151,175,145
178,300,573,276,186,147,164,147
152,276,519,287,187,147,158,130
125,248,506,299,205,171,152,116
147,269,569,297,191,164,148,107
148,251,587,283,185,165,135,99
157,220,581,236,166,161,136,90
178,257,593,217,159,150,129,88
173,301,712,226,144,118,115,89
152,296,632,230,155,130,120,100
141,288,584,217,156,163,129,102
139,321,588,222,168,172,159,141
112,292,559,219,168,176,150,146
109,243,464,183,166,177,152,157
109,223,484,170,155,167,142,155
114,252,497,183,155,145,145,166
98,242,557,217,146,137,111,135
101,259,587,234,143,130,111,134
92,275,626,263,153,125,117,124
112,292,607,304,179,135,119,126
118,274,573,305,188,131,105,106
131,290,625,299,191,130,115,115
145,309,646,298,204,136,120,117
172,344,625,320,218,138,125,139
157,343,654,295,206,118,131,132
168,380,675,309,196,100,129,142
158,357,587,309,192,98,119,135
144,347,543,303,185,102,119,131
126,335,564,276,151,97,146,121
132,317,581,263,142,106,144,124
110,267,568,226,131,111,147,115
106,254,550,208,139,114,150,116
218,244,592,201,133,102,162,138
214,211,518,211,157,115,125,131
224,256,508,236,168,116,118,131
226,256,498,282,208,128,119,128
228,263,508,287,207,128,129,143
137,247,462,279,219,142,120,125
139,251,480,266,214,133,118,123
115,193,407,249,209,127,120,120
118,215,436,208,175,131,125,121
115,245,487,198,163,124,110,97
133,260,473,207,152,115,96,90
128,254,459,198,135,108,122,96
164,281,476,195,119,108,127,115
166,277,498,221,119,98,120,122
169,267,457,246,136,103,126,126
144,270,506,245,143,99,124,124
145,268,507,237,142,107,98,107
117,326,636,263,157,115,86,94
115,314,611,264,168,112,107,90
112,302,593,257,179,116,107,99
114,295,590,249,172,127,115,113
112,328,683,278,172,134,119,129
98,251,561,249,167,126,123,126
114,259,555,230,156,119,108,137
111,247,562,215,143,114,98,132
112,237,516,214,147,99,95,123
108,198,413,183,152,79,84,110
107,185,408,210,150,77,75,107
75,168,408,204,148,76,72,95
76,192,489,207,138,72,80,91
94,202,478,226,147,96,88,102
109,234,458,229,153,108,103,113
109,241,466,199,157,126,112,126
109,254,500,206,157,131,129,119
109,246,466,218,165,132,134,131
101,244,471,201,152,121,126,122
89,203,472,196,152,123,121,114
86,205,465,196,142,112,125,97
94,208,504,215,148,115,116,103
97,199,446,204,150,115,107,89
86,215,459,212,162,111,113,86
87,203,424,210,156,111,132,95
88,216,440,211,158,109,130,98
119,224,377,184,150,107,124,110
123,229,401,186,142,106,123,109
126,222,395,187,126,107,120,111
125,233,416,193,126,99,94,100
141,255,435,216,140,105,88,104
115,234,421,214,148,99,73,82
110,231,400,211,151,97,77,77
112,224,443,206,154,102,92,92
112,216,448,189,142,98,93,94
99,169,421,157,147,90,95,93
102,206,458,172,146,91,101,100
104,237,477,188,149,95,101,103
96,234,435,185,144,85,107,101
91,261,407,186,149,87,111,104
97,307,414,205,149,86,125,112
104,296,395,207,141,86,128,114
105,270,352,193,133,92,126,110
106,265,337,193,131,89,112,104
104,266,438,194,125,80,110,101
99,252,421,187,100,76,87,87
93,242,421,218,137,91,85,83
95,239,428,218,149,91,95,86
97,295,464,216,149,94,106,87
100,268,399,215,155,106,103,86
97,281,401,210,161,113,107,91
87,275,373,164,129,105,104,85
88,291,402,159,119,101,103,93
93,260,450,185,138,104,91,108
90,265,464,184,131,97,92,108
91,220,467,203,118,90,97,113
102,214,449,190,114,82,99,115
102,295,491,207,108,74,91,110
99,304,448,188,93,74,88,89
99,295,414,185,95,74,89,86
96,289,409,169,86,70,88,87
84,297,408,180,101,77,90,85
85,205,372,168,108,103,91,90
85,167,341,187,109,100,86,84
87,182,342,185,109,96,85,89
86,191,365,169,112,102,102,94
85,214,415,160,110,100,110,103
76,227,421,161,107,81,109,96
68,221,419,140,111,84,116,106
64,221,424,155,115,85,119,109
66,224,397,165,113,77,105,99
67,201,391,207,117,72,91,94
92,225,382,208,127,72,91,95
94,229,375,199,120,72,88,90
96,234,376,198,129,84,86,88
100,228,382,203,136,87,83,85
100,232,358,158,136,93,84,80
74,185,301,152,130,84,93,83
79,184,306,157,127,78,89,84
86,181,331,174,131,74,83,79
79,205,357,197,134,72,74,76
85,200,383,221,142,73,87,85
84,208,401,208,132,75,75,82
93,211,395,219,152,88,106,98
99,262,419,248,158,90,110,103
96,256,402,225,155,92,110,106
90,255,351,214,142,86,106,100
92,257,351,223,143,88,108,111
79,253,383,230,144,84,83,98
87,217,343,186,132,75,76,88
87,194,331,192,145,78,78,84
89,181,343,220,171,88,79,84
93,230,389,253,187,102,82,76
98,238,368,238,176,100,82,70
78,225,377,244,169,98,83,69
82,225,403,259,160,92,82,71
87,256,444,254,154,103,98,78
84,211,440,243,137,88,95,77
74,198,438,256,139,91,101,77
86,201,433,258,160,120,120,90
83,200,441,233,153,122,121,88
76,158,443,220,141,116,106,80
72,162,437,206,146,117,104,72
68,159,443,192,143,121,130,75
74,163,433,180,120,94,131,71
85,190,445,182,128,93,129,74
83,197,390,158,115,82,126,81
86,190,355,139,109,89,146,85
113,212,369,151,131,95,130,109
104,246,452,155,144,121,123,112
115,235,425,167,151,134,141,124
116,238,451,167,147,132,144,122
117,257,452,177,150,133,144,137
106,255,463,207,150,126,137,123
113,227,390,217,148,105,138,123
102,242,408,220,139,89,122,118
106,249,390,216,138,89,150,146
124,243,463,224,138,83,153,150
114,232,482,182,108,77,156,144
113,231,533,207,107,87,160,145
125,249,566,213,102,89,180,142
141,254,669,225,119,101,173,120
132,248,654,206,120,107,154,95
137,257,663,217,124,108,166,102
141,272,678,223,117,102,159,102
133,246,692,230,133,116,146,104
118,231,602,235,129,112,141,98
111,221,555,236,127,111,153,108
111,205,517,235,136,123,191,111
105,201,496,198,136,126,205,118
103,195,428,176,137,115,197,115
108,190,417,164,136,111,200,124
113,214,429,162,140,109,198,139
116,258,442,152,143,104,147,141
121,234,474,146,153,102,153,144
129,274,494,183,153,112,160,144
136,308,650,208,167,129,176,153
139,296,646,239,168,129,170,140
132,274,657,239,158,124,168,134
126,279,604,230,142,116,141,122
123,282,635,226,136,105,138,133
106,266,633,250,145,90,86,107
96,261,629,222,145,90,93,97
138,275,649,238,147,95,124,131
156,268,652,255,167,119,131,144
146,213,606,225,158,115,131,130
155,212,494,205,143,119,144,143
156,237,522,216,133,131,166,150
139,245,565,235,151,139,162,136
119,259,544,232,143,122,156,120
129,286,568,235,149,130,155,123
124,295,578,204,146,135,153,114
123,289,596,198,158,125,120,106
103,266,500,176,166,118,109,89
96,271,511,180,165,121,110,84
90,246,490,202,164,113,119,87
83,214,437,238,170,103,113,83
97,205,435,256,174,114,123,94
109,211,453,242,150,116,130,104
114,267,503,228,143,118,145,115
107,269,528,218,146,123,160,118
120,297,553,221,139,122,163,121
116,302,568,227,148,125,194,117
105,298,592,232,152,117,184,104
116,277,597,232,151,110,172,101
120,284,575,256,180,125,174,102
112,266,540,246,188,137,177,108
134,258,502,247,189,138,167,105
138,277,510,247,182,135,173,116
137,232,462,279,190,140,173,118
135,304,475,276,160,121,151,107
142,302,498,251,138,102,166,113
129,304,492,221,105,76,136,120
127,305,540,232,135,87,151,126
129,315,542,216,129,83,151,126
135,248,550,235,149,87,165,135
131,268,544,243,157,93,142,123
120,281,548,254,159,102,145,118
119,252,499,246,135,98,136,104
102,234,469,235,127,98,165,97
93,224,415,189,104,93,168,87
96,186,439,190,123,95,169,86
97,188,451,199,138,91,167,89
93,228,406,200,152,94,152,85
97,247,412,195,153,93,136,84
104,297,446,192,158,93,116,89
103,306,423,232,146,82,109,96
103,305,421,241,153,86,108,95
105,298,544,226,160,118,165,142
108,302,598,227,177,127,169,150
98,289,689,225,175,138,188,155
103,321,675,210,188,155,191,165
115,344,728,203,192,165,198,167
123,348,636,208,179,144,166,136
129,407,660,245,172,172,195,166
195,392,547,252,175,169,181,173
224,494,655,313,176,156,185,170
220,489,642,305,158,145,184,169
228,508,661,332,179,160,181,171
225,460,591,306,178,135,138,134
179,468,635,314,187,146,144,129
138,335,537,255,175,144,157,132
139,326,492,256,169,147,155,131
131,293,477,228,152,134,148,129
134,285,484,234,137,119,144,125
128,265,420,213,113,111,129,123
122,284,483,211,109,115,110,111
119,306,563,229,119,104,112,110
100,297,567,240,116,93,102,106
86,283,556,232,116,95,96,110
81,306,551,230,123,91,109,107
92,310,602,198,124,101,117,120
91,283,594,184,133,104,108,117
115,310,604,174,142,118,124,148
118,323,602,176,152,119,123,155
122,308,606,178,150,113,109,154
111,295,541,188,150,113,100,156
106,297,468,157,135,112,101,159
99,267,462,140,119,111,90,131
109,301,528,156,117,109,107,130
110,296,579,175,124,108,109,125
105,278,562,172,110,92,109,109
111,311,607,204,118,99,113,114
93,302,602,238,141,97,115,109
81,306,596,244,150,118,111,103
74,306,570,239,159,122,114,104
93,331,554,250,164,133,104,104
94,304,507,228,160,135,96,98
98,310,540,220,163,143,101,101
95,274,518,200,148,148,93,95
102,266,509,189,130,143,83,89
87,239,502,164,120,134,81,82
98,225,503,160,122,139,104,97
103,225,469,172,132,135,104,105
107,214,438,194,139,117,97,103
102,216,444,193,138,117,101,106
104,220,441,200,145,122,109,105
88,233,459,223,138,104,88,84
96,224,452,183,99,84,73,73
93,225,470,154,89,69,70,77
115,272,512,199,122,103,89,75
113,265,503,211,124,98,81,70
111,247,466,198,136,109,82,74
98,239,442,203,135,109,81,68
107,259,436,214,138,119,98,74
88,237,394,184,110,89,87,90
102,241,402,176,107,88,103,115
109,244,405,190,115,80,105,114
114,266,425,186,114,81,105,115
106,256,457,193,123,75,104,114
97,226,426,186,133,79,103,110
107,346,584,241,142,81,104,102
111,357,612,250,134,79,107,112
107,350,595,250,138,89,116,120
112,360,567,249,130,90,110,124
115,370,613,256,119,87,132,122
106,285,483,202,103,87,124,115
108,289,473,201,108,99,124,113
134,299,502,206,108,91,116,108
143,303,507,221,123,94,116,119
153,332,492,246,150,109,103,121
148,321,479,262,161,108,97,118
138,308,440,243,154,100,103,118
124,345,434,249,152,103,107,120
115,368,562,226,147,109,104,129
105,346,565,195,127,94,89,121
100,333,555,172,128,94,91,120
102,340,589,191,122,89,78,114
107,325,674,211,131,91,78,117
102,299,600,208,120,71,79,99
95,281,580,200,110,66,91,112
95,282,581,201,91,68,93,113
99,279,575,203,102,70,95,112
82,270,455,178,107,88,96,109
78,261,462,195,111,95,115,92
77,269,514,198,116,122,116,92
80,281,523,218,124,121,119,92
96,311,536,222,123,123,128,99
98,283,540,225,111,117,137,100
107,282,502,212,111,115,122,106
127,360,546,239,128,111,146,128
155,389,621,218,124,132,147,131
143,362,602,193,133,139,145,129
151,395,643,187,145,149,151,149
147,397,670,198,140,148,151,151
134,330,624,179,137,151,126,145
119,325,572,181,136,134,126,150
118,330,576,196,121,130,115,146
111,288,531,189,107,117,98,129
108,268,482,172,103,123,96,134
117,355,543,194,90,104,90,124
110,342,562,199,102,103,90,121
128,350,592,189,117,105,94,123
130,358,593,201,123,104,88,125
130,386,656,221,137,108,114,131
118,342,608,189,138,105,111,135
111,347,613,200,138,108,105,132
105,353,614,212,137,101,101,146
99,350,656,226,141,96,105,142
120,417,664,234,135,92,88,130
125,434,691,254,137,98,84,118
138,477,719,266,142,115,96,152
132,479,705,264,142,123,109,154
128,485,688,243,130,120,104,152
126,454,702,274,137,117,99,167
134,447,699,280,137,116,102,170
134,390,635,268,145,111,98,139
127,371,626,262,138,107,84,122
129,364,609,271,138,108,85,123
115,306,539,217,126,109,78,104
108,244,446,184,121,101,72,97
91,258,476,238,160,109,71,104
108,340,594,293,174,112,90,124
109,356,619,293,175,112,86,120
107,353,604,295,176,111,83,128
139,394,632,296,183,119,105,167
138,383,604,242,128,98,101,167
130,357,534,203,124,102,90,156
127,345,487,195,131,102,91,164
129,356,544,190,131,107,95,152
121,394,576,217,141,122,78,112
117,396,605,225,145,127,86,116
106,340,515,184,130,133,93,116
106,341,613,194,119,133,94,110
108,336,586,199,117,128,103,127
74,278,605,209,95,109,101,121
82,280,608,277,137,127,101,119
84,289,622,292,157,123,94,116
83,274,532,281,163,146,94,117
91,279,518,294,163,145,80,96
97,293,508,282,159,154,90,106
95,307,520,205,124,142,86,107
95,313,536,193,98,144,86,103
97,314,523,193,88,122,85,96
100,344,575,221,102,125,103,139
88,299,515,214,127,132,98,151
85,277,464,219,124,136,99,150
87,270,480,223,125,127,99,160
101,330,538,245,133,137,113,173
87,293,481,204,127,134,100,142
83,284,460,195,99,114,93,116
86,289,451,190,100,120,86,112
89,297,405,191,108,128,106,114
77,261,395,201,105,120,91,91
76,278,439,230,105,119,90,94
78,282,430,251,117,122,88,99
81,272,429,246,116,101,94,104
85,340,514,238,113,92,73,97
82,315,531,216,112,96,75,101
92,307,473,188,109,102,80,105
97,327,487,161,107,98,84,115
100,345,552,175,109,105,81,108
94,259,472,167,102,98,73,97
104,320,497,196,107,95,78,101
94,312,498,189,107,89,74,95
90,293,512,192,104,108,73,79
79,275,462,192,101,102,69,79
80,295,514,197,102,101,70,77
65,241,459,153,88,100,63,66
71,245,485,155,90,108,59,67
91,265,494,148,87,116,75,79
107,257,473,131,91,147,86,82
109,261,456,129,87,145,87,95
112,250,430,171,111,146,87,104
110,238,405,186,119,143,87,112
97,208,385,182,119,125,73,104
77,208,406,183,111,85,67,111
93,251,477,189,126,94,74,113
90,252,470,157,110,100,74,104
89,255,471,161,115,113,78,101
92,272,488,176,120,112,82,113
139,308,543,216,140,124,86,124
126,251,444,215,131,139,85,114
124,241,441,209,127,130,84,123
125,263,435,201,117,117,82,127
127,262,492,201,120,133,92,123
81,241,474,182,105,125,88,107
79,237,497,172,100,111,87,117
80,241,518,177,100,108,86,109
75,220,567,168,91,114,84,98
65,211,544,167,81,93,68,91
71,233,516,157,79,86,61,88
74,242,513,162,77,77,52,75
103,242,492,161,76,80,56,76
108,255,468,163,79,68,54,74
107,241,399,155,82,76,59,73
111,216,451,186,92,106,67,78
110,205,421,181,91,101,66,73
83,235,445,177,91,102,62,68
78,232,479,172,87,97,60,63
78,270,564,199,88,92,54,65
54,258,574,162,81,68,56,58
56,291,625,164,93,77,59,57
56,289,626,179,107,83,61,57
63,277,574,185,108,85,62,58
81,267,519,151,100,87,58,52
88,329,564,170,95,82,47,47
87,325,546,185,94,83,48,45
92,325,555,178,84,103,51,76
107,344,572,166,82,104,52,84
95,326,580,165,83,99,52,82
114,365,635,279,128,107,57,93
115,360,619,280,132,118,68,101
132,352,600,288,133,96,67,87
123,344,593,293,134,97,69,81
130,377,605,299,134,96,70,85
111,283,472,185,93,88,66,71
112,291,495,171,86,80,61,91
104,307,497,176,97,94,65,93
220,336,496,174,101,94,65,111
224,322,489,173,105,97,66,113
260,345,536,198,114,98,69,125
266,337,502,203,113,95,67,125
267,324,506,184,101,82,63,127
208,287,505,191,99,81,64,129
202,268,485,198,110,86,66,131
165,222,409,169,102,92,68,128
157,215,425,158,98,80,66,114
153,269,520,198,107,83,77,124
166,296,591,225,120,83,78,116
191,305,606,223,113,79,77,115
184,326,610,231,110,69,75,109
186,349,620,248,122,76,73,109
189,303,573,230,126,80,63,94
153,272,507,212,115,85,58,81
140,298,547,206,118,91,56,82
136,386,587,196,124,97,59,82
165,464,613,227,136,101,79,123
183,467,584,224,133,97,75,124
176,469,568,204,127,91,73,127
202,515,548,255,137,93,84,144
209,456,484,261,134,85,82,155
190,347,419,223,119,86,70,136
168,352,424,215,109,85,82,143
175,379,566,253,116,86,83,144
132,321,529,224,107,80,75,123
126,310,529,221,111,86,84,126
113,338,558,222,102,75,80,114
125,351,586,233,108,74,75,115
124,336,491,202,113,74,75,112
115,309,486,188,101,70,75,113
112,307,478,179,97,68,65,98
136,306,465,195,113,75,66,112
130,283,414,178,111,73,62,103
144,293,530,178,108,85,85,112
154,295,550,158,106,88,87,118
180,301,578,164,109,96,95,117
165,284,594,155,102,102,103,127
185,297,627,171,110,110,115,140
170,258,504,158,109,106,105,139
189,246,536,163,109,104,108,140
171,280,551,191,129,115,134,153
209,303,552,195,119,107,131,144
213,295,543,196,112,107,131,147
227,364,568,219,121,111,150,191
227,373,502,226,130,112,148,197
254,362,552,251,126,98,121,202
253,415,602,312,179,149,159,248
275,472,659,351,217,170,178,270
289,518,759,385,229,192,240,306
281,537,815,388,225,195,246,308
273,565,797,362,223,199,248,302
262,513,755,313,195,164,233,281
248,489,713,282,182,161,222,257
230,410,594,242,175,140,153,197
246,415,658,256,179,138,143,190
227,383,665,266,167,128,140,182
225,427,674,294,176,145,149,222
197,421,691,277,158,137,148,227
243,511,736,298,176,142,142,233
231,500,749,300,191,144,142,250
241,488,751,306,199,147,143,255
244,480,788,276,183,134,116,204
256,545,852,327,205,125,107,208
203,480,816,304,182,114,95,183
222,553,751,316,179,116,103,175
225,615,771,314,174,111,131,203
255,637,720,325,202,126,154,256
272,638,642,311,183,121,156,278
278,629,673,303,180,125,159,280
264,592,702,299,175,128,182,300
274,665,798,379,183,124,164,285
267,741,868,413,167,120,169,273
239,693,845,393,154,117,175,257
268,713,863,394,161,134,203,345
283,774,891,409,171,136,188,344
283,695,785,382,183,142,196,351
265,613,755,368,184,136,188,346
306,726,818,408,208,159,203,350
298,749,969,459,214,145,179,266
283,691,938,443,205,140,171,236
291,689,944,415,192,141,164,238
298,689,933,414,200,141,158,216
349,672,955,526,264,172,150,221
354,630,762,505,275,185,151,222
355,628,762,537,292,192,234,255
344,663,733,537,298,206,250,267
352,738,778,518,290,207,251,269
263,656,721,372,211,165,245,274
251,662,731,352,184,145,249,292
250,652,710,317,166,134,174,263
259,660,767,319,175,117,147,257
253,568,789,345,188,136,171,277
265,611,769,358,217,144,169,263
268,669,821,414,230,152,159,246
306,710,809,400,249,189,197,289
301,656,725,381,234,185,198,275
295,633,630,367,226,171,212,322
285,588,668,380,227,178,212,335
281,552,605,328,226,174,211,335
222,448,562,311,195,131,184,323
204,403,551,309,202,139,193,336
227,458,577,350,226,148,171,284
233,444,586,311,205,138,161,252
209,376,566,291,186,131,157,274
228,387,561,358,207,135,160,252
243,429,648,376,207,130,147,234
208,422,700,358,172,118,119,213
198,407,652,368,161,106,118,232
195,385,627,362,161,105,117,188
205,421,743,306,132,104,101,199
210,420,693,283,112,86,96,213
195,362,579,261,118,81,95,204
189,379,613,253,126,80,99,202
206,405,676,268,138,92,124,219
206,443,650,268,143,93,131,212
206,418,656,270,151,99,147,204
214,417,681,266,161,102,151,233
224,496,710,318,167,101,159,229
230,501,689,316,172,99,145,218
214,453,665,310,175,108,142,209
223,502,708,354,214,132,166,222
218,505,825,348,206,136,166,196
212,437,769,298,206,152,159,189
197,456,747,286,196,145,156,192
197,484,710,303,191,137,167,208
157,438,670,244,147,120,128,181
159,441,640,235,152,119,124,176
148,423,648,275,162,103,136,168
138,408,655,275,166,108,137,168
170,427,663,313,187,121,148,188
193,430,657,318,180,113,150,184
229,449,578,321,171,107,161,196
226,434,530,273,148,101,162,197
236,444,530,276,142,99,161,202
230,398,496,203,128,104,143,180
210,373,470,199,132,107,141,174
171,332,398,180,126,104,137,197
185,371,553,204,145,113,145,203
179,341,564,213,151,110,140,192
158,316,558,218,133,87,127,169
167,341,568,216,125,78,130,179
177,332,607,224,144,98,137,196
168,312,536,232,131,86,118,182
174,340,583,257,134,96,135,194
164,333,581,261,152,111,156,208
149,325,596,278,173,117,153,198
150,454,625,283,157,103,136,143
147,476,615,258,154,103,133,151
130,442,531,211,141,99,143,170
146,473,553,213,126,87,128,186
184,477,589,206,107,88,129,198
171,393,533,189,107,85,137,207
182,357,603,203,106,86,157,203
188,369,610,209,111,98,189,205
183,385,631,220,103,95,186,185
163,403,596,220,113,100,188,187
153,358,570,230,116,99,186,175
155,430,563,230,124,98,183,179
157,539,573,234,123,78,127,150
149,528,574,246,169,101,126,138
134,509,534,249,165,97,122,127
150,530,541,243,170,108,133,123
145,503,489,232,167,109,114,125
147,413,467,235,166,116,125,120
151,415,399,209,135,96,130,140
158,433,401,182,129,100,134,160
156,430,402,187,128,94,126,174
151,416,362,201,124,94,126,173
147,383,364,222,134,91,112,182
177,403,421,200,113,92,104,178
178,380,449,220,113,88,104,160
187,373,432,234,135,96,122,162
190,339,422,219,141,98,129,174
184,335,441,201,145,101,132,163
153,303,446,216,147,100,130,157
175,328,450,231,151,96,136,188
152,321,499,226,132,87,114,172
138,336,534,230,122,83,106,156
143,348,533,215,106,80,120,179
159,414,527,199,107,92,129,186
139,413,540,177,109,100,119,156
159,433,507,183,102,97,131,170
177,485,501,206,109,97,133,184
181,490,538,212,110,94,129,161
170,504,561,232,116,80,119,156
168,513,560,253,140,76,125,161
165,503,564,231,146,90,128,152
175,460,542,219,150,93,137,136
178,497,568,241,153,99,129,141
182,402,509,246,154,99,127,151
183,368,471,216,123,97,120,136
184,366,468,221,118,102,130,140
162,363,451,208,109,100,119,132
156,303,384,178,103,97,119,128
159,383,455,165,97,96,127,131
144,381,443,161,98,93,146,153
154,375,435,156,93,72,126,176
154,376,514,184,94,71,135,181
153,384,579,183,97,73,141,183
168,316,527,160,93,78,149,193
174,312,538,157,90,73,127,188
178,372,574,231,106,81,127,166
196,430,527,232,119,86,113,165
197,448,469,248,129,92,127,191
176,428,445,251,128,100,184,196
205,473,490,277,146,108,201,214
194,463,476,268,158,109,200,214
180,434,510,297,169,114,207,221
203,419,501,301,170,112,218,204
210,439,565,319,177,114,181,178
187,429,566,305,167,112,165,147
215,400,552,283,160,112,170,163
210,360,489,232,138,109,190,165
232,341,505,220,119,105,167,171
234,352,492,223,119,96,155,185
233,349,524,244,139,111,155,191
209,364,531,235,123,104,146,176
218,372,527,241,126,94,108,188
180,408,554,251,139,96,128,208
171,395,568,259,152,100,114,191
182,445,530,264,144,78,109,184
176,422,497,251,143,80,130,194
167,422,541,248,141,84,125,181
168,388,492,242,133,86,108,150
188,431,487,240,126,82,115,164
169,352,449,202,110,79,119,172
181,368,530,227,114,78,115,183
185,379,488,233,117,76,125,179
186,448,610,292,134,83,120,183
177,447,607,303,130,83,121,175
179,454,638,330,141,87,119,173
168,461,624,325,138,95,125,171
188,460,683,332,144,118,125,166
198,435,566,284,134,107,125,177
199,404,523,253,124,102,129,188
203,407,491,220,112,101,128,192
203,373,428,216,117,95,108,168
187,384,362,230,111,65,103,165
173,339,370,211,100,68,101,150
165,328,404,218,107,74,101,144
160,316,389,211,108,72,106,148
168,377,401,215,110,71,114,157
189,385,376,190,114,81,116,181
183,396,350,187,120,80,127,194
171,385,302,178,118,76,134,197
180,456,412,179,124,83,139,197
166,443,423,164,117,82,135,192
135,410,415,177,110,76,147,190
156,402,485,212,122,78,170,218
164,449,541,226,124,83,167,227
174,382,536,243,124,84,159,215
166,344,562,245,119,81,159,211
193,370,562,234,122,84,148,195
176,370,514,203,103,90,117,148
186,365,456,182,92,86,110,146
171,397,404,164,90,83,108,146
182,410,376,158,103,86,120,149
143,377,352,179,103,84,117,162
152,414,428,208,110,83,125,195
172,447,420,214,121,94,127,180
179,428,441,266,123,97,131,187
175,425,409,280,119,100,131,196
186,457,435,269,120,98,144,198
218,459,472,270,120,94,131,176
204,392,557,290,130,89,125,170
204,447,552,258,135,93,147,181
203,465,584,247,137,91,139,176
222,504,622,240,132,89,124,161
199,527,651,260,139,93,122,139
207,553,594,237,126,86,136,151
209,493,557,215,116,85,149,154
219,479,594,249,151,101,147,143
199,430,544,274,156,103,146,144
202,387,395,256,171,102,159,185
181,340,408,279,175,104,153,175
198,394,480,332,183,104,137,189
211,375,474,315,169,100,139,193
211,359,549,298,173,102,137,193
198,319,568,310,169,102,141,182
217,321,552,318,182,118,189,242
205,286,590,287,178,111,178,226
193,296,556,330,177,114,183,225
191,309,475,346,172,114,191,254
187,298,462,343,166,111,185,243
210,409,546,345,152,101,134,189
195,385,450,353,150,105,132,178
185,401,448,315,133,88,121,188
188,404,488,308,147,99,116,169
191,449,526,313,147,106,115,162
141,380,504,287,141,101,108,166
141,397,535,284,160,105,117,187
150,387,532,270,159,105,122,176
157,387,597,263,149,95,138,186
161,398,605,258,143,93,133,186
167,372,557,264,145,93,127,179
180,346,519,245,132,93,145,278
202,463,543,310,158,117,169,309
207,478,449,300,151,118,152,294
203,451,430,300,156,116,155,298
195,434,404,313,162,118,200,339
183,440,437,306,162,111,178,254
154,335,412,244,143,93,152,220
132,289,392,264,150,92,154,213
151,364,441,271,151,97,179,241
149,390,496,247,141,92,127,181
169,411,532,314,159,97,133,183
172,409,598,356,172,99,145,193
218,446,692,357,182,115,153,237
315,424,651,356,174,110,133,212
330,409,619,358,174,113,136,219
328,400,586,329,157,110,133,220
328,435,544,329,150,104,117,210
303,399,427,310,133,89,109,199
207,387,394,290,132,84,104,214
231,436,488,315,138,82,108,217
227,429,513,333,160,103,117,217
232,402,470,339,164,100,118,215
234,408,510,382,168,101,124,205
251,390,529,392,172,99,115,182
241,397,492,415,185,106,114,175
261,439,572,445,187,95,109,175
270,428,597,534,225,110,118,185
298,430,610,535,244,117,147,238
280,422,611,526,246,123,148,230
254,362,598,495,230,115,143,228
231,334,533,463,212,105,140,228
218,312,546,321,173,99,140,226
188,306,492,301,151,86,94,137
186,351,540,377,190,105,113,153
187,364,540,384,196,106,130,160
197,356,533,367,201,112,131,154
185,374,491,352,188,108,140,148
196,373,509,333,178,109,170,156
203,461,555,310,149,96,166,169
207,487,528,314,154,98,160,153
199,470,470,310,149,94,168,176
209,473,468,325,150,88,158,178
187,561,566,328,150,90,124,178
159,446,480,357,151,83,110,159
151,401,488,369,146,98,134,192
155,437,557,370,147,109,136,189
163,435,609,390,167,121,136,188
165,350,548,406,180,121,141,193
161,352,562,370,175,121,142,210
156,356,553,343,176,108,121,181
215,398,646,352,186,102,121,186
198,397,639,351,179,101,118,181
193,366,629,318,162,99,135,207
201,417,608,270,147,104,174,218
213,428,640,265,144,108,188,248
158,400,547,252,125,103,177,230
165,378,485,215,112,93,179,232
162,392,472,226,119,96,175,218
159,356,534,226,123,91,147,191
175,358,542,234,115,83,120,153
194,484,607,224,120,85,129,154
209,516,630,206,114,90,168,182
212,518,617,203,109,84,159,158
222,512,616,235,110,79,147,145
214,526,592,244,112,94,158,146
195,384,460,230,100,94,156,165
168,334,418,265,107,90,119,151
172,366,502,280,112,95,117,160
174,378,454,283,148,107,125,166
161,355,483,286,154,101,114,162
196,380,493,286,155,100,149,198
215,416,536,260,151,95,192,217
224,544,589,271,162,95,196,216
217,577,620,262,135,91,195,215
221,598,616,242,125,82,210,240
179,589,606,245,121,78,187,205
164,584,612,250,119,80,149,179
156,478,547,236,101,74,141,173
165,510,513,235,96,68,134,181
180,506,465,251,102,75,127,174
202,509,462,261,116,81,134,179
209,530,450,297,157,94,138,188
202,486,381,330,166,94,141,194
219,444,409,333,172,97,188,246
234,476,438,332,178,102,185,244
233,481,512,338,178,106,182,234
236,441,497,330,155,92,172,229
231,470,500,300,151,104,199,250
205,433,472,275,148,103,169,194
188,418,456,301,151,103,168,182
170,393,365,284,149,99,160,184
188,393,340,262,138,101,162,181
202,478,410,266,135,94,136,149
229,537,447,279,131,87,126,152
209,499,449,272,125,74,111,146
209,490,474,276,127,74,122,159
210,530,550,296,157,86,125,157
237,457,527,279,162,91,125,170
213,361,484,299,166,92,120,159
221,358,503,273,162,94,147,170
232,420,541,282,172,105,140,165
254,397,470,276,163,103,133,170
220,354,418,309,172,102,145,162
219,347,424,283,160,100,149,174
238,342,418,286,162,104,127,173
228,286,361,286,149,90,136,159
171,251,370,261,136,81,150,144
166,263,409,203,108,76,140,141
164,313,392,195,108,71,142,178
168,414,451,245,145,82,150,175
165,413,456,254,144,81,141,173
172,415,463,297,144,80,123,175
182,413,438,309,152,96,132,177
191,409,519,333,163,110,140,146
159,361,546,308,131,99,137,141
179,399,595,304,126,100,139,148
178,398,581,255,125,119,166,168
187,419,594,265,128,109,150,177
190,452,606,307,153,114,148,178
198,473,570,318,162,117,141,184
189,447,540,327,166,120,157,198
193,484,630,342,176,102,131,191
196,498,627,403,206,104,137,174
192,462,543,358,191,91,158,183
177,388,477,329,180,86,185,186
179,432,494,342,189,85,168,168
229,492,373,407,202,96,165,162
235,473,370,352,177,95,169,172
231,469,375,361,180,96,147,164
233,484,380,387,190,107,126,161
228,443,350,362,193,135,155,197
189,337,379,287,169,128,153,199
158,302,346,303,174,126,141,192
143,297,343,286,164,129,162,206
163,404,415,263,183,130,154,198
185,432,431,281,177,102,136,160
208,459,531,309,189,109,164,162
215,483,561,326,188,111,178,170
220,494,592,365,214,116,169,159
238,403,569,386,194,106,165,161
225,352,527,373,191,104,172,174
192,284,387,346,183,103,160,172
205,260,392,318,174,102,154,169
234,365,409,278,141,92,148,155
214,379,414,242,142,92,150,159
210,384,407,238,140,91,147,177
209,382,429,233,130,83,136,174
210,448,534,264,152,85,136,166
178,369,502,258,153,88,125,158
158,348,479,248,151,91,154,178
166,352,503,244,152,89,164,169
177,470,523,290,170,94,164,174
154,424,404,225,160,93,163,174
153,422,383,242,159,100,185,176
154,432,386,246,152,99,174,150
196,489,389,265,168,111,163,155
188,425,449,229,148,108,179,156
186,406,434,240,129,105,199,160
181,393,437,215,130,106,207,176
203,399,476,222,132,105,198,179
168,371,492,199,104,99,192,153
158,329,416,180,116,121,192,136
157,322,395,166,117,123,194,148
163,314,407,161,106,113,163,137
166,362,410,147,111,112,162,133
165,335,390,163,114,111,157,158
188,347,385,197,121,86,153,183
192,353,419,237,138,91,122,198
191,391,449,277,143,88,123,194
199,351,403,274,134,84,118,196
192,376,436,270,132,86,138,185
189,379,507,284,142,88,126,179
189,413,518,260,133,85,140,166
195,384,512,238,140,88,137,166
165,365,549,262,149,99,138,165
165,321,498,259,145,87,122,178
169,296,471,217,125,91,150,189
176,256,463,249,121,82,126,172
195,227,447,248,120,84,131,168
195,215,383,248,115,77,146,166
203,204,427,278,125,83,153,143
191,272,456,273,118,77,133,105
196,277,442,265,152,93,133,118
235,304,427,279,174,97,132,133
235,314,447,263,171,97,191,164
259,378,442,234,169,99,191,169
257,350,400,257,180,108,188,174
260,387,438,259,160,100,202,188
212,384,430,239,137,93,204,180
221,425,451,251,143,93,148,189
191,380,421,287,147,87,140,195
195,399,383,297,140,77,132,202
182,369,338,275,127,69,126,222
167,357,361,279,122,83,161,226
159,343,335,289,130,81,160,202
143,376,359,254,127,90,164,202
142,413,401,319,157,94,168,197
149,446,489,324,166,107,160,168
163,482,590,322,172,113,121,161
177,530,631,358,189,122,125,170
181,522,659,377,200,128,121,161
174,470,642,307,179,124,114,170
169,499,623,313,179,115,110,155
185,462,508,303,168,96,127,191
171,380,465,246,138,81,127,200
185,349,459,223,120,62,129,203
183,338,455,226,112,60,133,192
178,224,386,208,91,55,132,188
181,272,390,211,87,57,126,175
189,295,378,281,119,65,115,170
170,322,383,281,132,73,110,159
171,362,376,286,146,78,103,161
188,358,374,284,155,83,135,193
169,333,410,291,159,90,135,190
158,340,433,218,135,84,126,173
175,330,419,206,117,80,132,180
207,327,430,198,111,81,145,192
194,357,432,210,107,79,123,164
206,377,407,193,101,73,114,153
214,357,367,216,127,80,124,157
218,339,309,229,146,88,143,159
196,311,288,255,155,87,133,153
234,365,313,251,164,97,127,166
239,350,315,257,163,107,138,156
255,361,370,294,165,111,153,163
256,388,381,401,203,128,162,168
272,399,390,421,221,141,179,161
268,406,453,468,233,139,186,171
270,417,458,468,241,135,182,174
244,411,409,440,235,133,206,179
231,411,448,363,191,110,186,186
210,433,523,337,168,94,181,192
182,370,469,289,154,86,176,171
152,341,457,293,152,87,176,174
172,365,519,298,152,92,135,163
178,388,479,280,156,95,137,143
174,369,385,257,149,93,127,128
162,351,356,233,138,103,128,179
159,362,352,246,137,102,128,187
146,317,310,240,136,92,125,184
142,291,309,237,133,99,112,180
152,287,339,237,123,101,103,178
197,307,331,250,117,94,123,158
213,332,395,289,151,96,127,153
211,367,386,300,174,103,125,152
207,349,392,322,186,99,134,170
206,331,396,334,196,102,150,172
183,343,455,336,200,97,130,147
170,345,445,323,191,105,120,158
170,329,436,325,158,97,114,152
167,321,425,290,144,93,141,135
151,308,387,273,135,86,124,149
145,316,335,277,141,90,126,152
145,299,346,274,138,79,132,125
153,319,338,251,141,79,142,152
162,320,398,268,143,85,138,167
173,384,443,277,149,87,141,152
155,347,440,282,149,90,143,143
149,332,402,278,153,89,144,149
151,373,400,278,152,90,143,139
163,368,338,262,149,83,117,118
160,340,332,257,151,87,118,121
174,336,345,223,139,81,122,133
175,373,365,199,118,75,120,149
197,311,401,272,154,83,127,147
201,378,449,297,174,91,131,151
196,365,410,292,162,80,128,157
194,382,396,304,162,80,125,153
194,371,456,324,169,92,122,132
167,354,427,275,158,98,120,140
180,301,402,283,151,92,124,149
187,312,408,274,155,97,168,159
178,295,405,259,154,97,164,163
177,256,291,241,152,89,160,166
181,270,382,264,162,83,169,169
146,304,365,263,160,85,163,155
134,308,414,268,159,80,125,164
128,305,423,266,162,93,160,175
151,358,483,320,215,100,159,173
160,392,438,335,227,100,141,160
182,381,447,338,237,115,192,218
180,349,411,340,237,118,197,202
179,358,407,351,239,111,186,205
171,372,346,293,185,102,185,207
173,391,440,237,135,92,185,204
149,408,473,202,105,75,190,185
158,463,487,216,108,70,182,191
174,493,546,252,112,73,184,188
177,468,540,243,108,72,184,196
157,422,447,247,109,72,192,196
152,374,429,299,122,72,157,170
185,349,415,286,118,81,159,173
191,387,516,246,116,79,139,163
185,371,532,244,125,79,139,159
183,362,527,243,126,83,150,176
187,376,527,195,121,81,127,176
164,367,551,212,147,94,128,177
142,289,374,205,144,89,125,170
128,283,386,218,157,110,212,202
123,304,389,296,182,114,208,200
145,358,518,300,180,114,215,199
145,365,492,290,157,99,216,187
141,359,517,291,151,98,230,195
153,367,492,284,134,78,155,165
160,350,506,225,136,74,150,151
168,336,434,285,177,87,142,134
152,289,418,284,182,96,145,142
157,275,393,285,182,102,155,142
156,280,434,305,197,121,167,154
159,387,430,303,186,127,171,158
135,369,353,273,163,122,171,168
135,376,350,277,163,123,185,166
153,420,395,277,167,117,166,166
170,435,372,258,142,93,149,143
193,378,406,265,140,87,140,137
191,370,402,232,125,80,153,153
203,379,420,249,131,69,148,179
209,365,404,252,131,71,152,179
205,343,403,298,160,81,156,180
189,342,380,280,158,77,151,185
182,329,382,257,148,75,174,180
189,336,389,244,142,81,176,196
179,308,436,240,147,83,171,187
155,293,428,179,126,79,167,185
140,256,396,188,116,80,189,202
152,285,441,229,142,91,161,209
128,279,445,259,159,91,148,173
111,292,404,278,163,101,148,173
121,297,398,281,158,99,161,177
202,296,402,269,154,93,142,166
198,263,397,238,129,79,129,145
214,301,411,204,100,70,117,139
211,283,413,231,135,59,109,137
209,268,411,258,181,78,133,156
136,294,466,270,191,84,125,141
163,305,427,300,199,93,131,145
138,266,384,293,202,95,135,161
135,252,352,256,172,97,155,169
136,328,369,217,120,95,127,156
156,322,360,203,116,101,128,160
129,321,395,177,118,98,131,152
157,334,421,169,121,96,130,137
169,340,433,171,119,92,116,133
167,281,431,178,128,81,109,129
156,288,383,205,125,73,110,125
148,289,323,213,119,70,117,146
160,355,344,232,124,74,117,156
149,377,355,236,133,78,108,149
172,382,390,233,123,77,118,152
168,360,424,204,111,71,118,145
210,376,445,185,105,73,115,122
224,354,456,198,127,83,128,134
245,339,447,238,159,93,129,147
237,368,467,288,190,103,126,142
247,383,497,323,210,109,131,151
218,368,496,326,212,108,135,158
192,317,456,325,204,109,123,165
191,327,469,291,177,102,129,163
228,304,434,241,152,96,122,168
222,291,359,204,133,95,112,176
219,275,344,251,138,91,96,180
215,308,436,283,148,84,85,158
195,282,415,327,163,91,81,153
145,343,459,331,158,84,85,144
151,377,465,328,149,79,130,147
152,406,540,285,144,79,130,136
149,391,501,256,124,74,132,126
146,401,507,240,122,65,130,122
148,347,448,233,122,72,148,125
141,318,433,226,122,72,117,120
145,306,376,230,131,76,122,118
152,301,329,206,135,79,120,120
152,300,299,163,121,77,118,130
167,294,274,165,128,78,100,132
176,287,291,183,146,90,100,152
187,304,286,200,148,92,95,151
173,292,293,214,155,90,96,156
190,345,446,267,167,93,127,159
177,382,493,301,180,96,129,154
174,383,504,340,193,94,138,153
183,389,502,346,191,92,139,150
188,457,596,368,187,94,142,154
188,428,556,342,175,94,124,161
181,388,513,312,157,90,125,163
184,407,524,262,124,84,120,135
176,381,525,238,122,86,119,135
185,304,448,203,128,86,128,147
173,299,373,175,136,90,146,133
205,323,423,180,138,97,187,148
276,347,413,246,166,112,190,159
315,399,406,307,181,111,192,162
330,426,392,305,178,111,184,144
338,414,412,328,176,105,167,141
321,394,374,322,169,92,108,124
268,377,347,276,148,81,140,142
250,327,305,232,129,82,145,169
256,361,278,212,112,81,152,178
246,364,249,191,109,80,154,179
260,406,247,207,121,84,164,184
245,394,256,209,116,77,135,159
211,378,297,339,201,88,123,134
189,319,336,375,224,90,122,125
197,317,340,381,224,86,123,128
187,288,337,379,221,88,115,118
183,311,351,383,229,96,104,113
211,394,357,256,171,98,107,117
201,436,347,267,164,107,100,124
192,453,337,264,177,116,121,134
183,461,342,288,179,115,123,136
199,448,394,319,193,115,135,140
206,433,419,329,181,105,134,127
193,399,413,302,163,91,137,117
198,377,420,285,144,82,114,122
229,389,432,268,147,88,114,139
248,416,392,221,113,80,100,138
226,429,371,213,125,89,102,150
224,409,338,175,119,86,115,153
219,427,389,258,154,90,125,154
262,429,383,246,148,93,125,163
248,402,397,249,148,91,124,167
239,349,382,246,133,81,121,161
245,400,512,281,151,97,132,187
266,376,469,240,129,96,121,172
198,348,461,264,132,88,122,149
176,345,455,297,145,89,132,167
179,349,462,300,148,87,136,170
209,304,322,266,140,85,112,136
197,319,323,253,131,79,115,139
216,319,317,229,133,84,121,141
220,307,321,200,138,95,125,118
267,292,294,194,138,94,125,110
271,283,280,199,128,87,124,118
261,287,297,210,132,89,132,140
243,288,343,204,119,80,116,137
242,289,300,194,101,71,113,138
199,277,282,188,105,75,122,146
177,269,312,257,132,74,124,149
171,271,400,289,142,80,113,125
183,251,376,289,155,84,118,141
185,231,374,309,165,83,131,141
183,266,389,333,166,81,146,141
204,289,416,328,160,84,146,141
217,339,327,289,156,84,149,139
227,336,308,290,148,92,171,155
223,335,333,272,150,106,170,157
222,317,327,319,200,118,162,157
198,297,312,284,189,112,162,164
207,228,300,309,193,113,168,164
191,239,310,309,191,104,153,142
189,233,295,299,177,85,146,146
203,265,314,280,138,86,141,145
185,296,276,271,148,87,138,134
187,303,291,249,136,79,149,137
186,304,289,315,177,97,157,141
196,329,284,336,191,108,154,128
164,311,307,288,172,94,144,114
164,268,296,300,171,97,144,119
154,257,272,287,163,97,132,149
168,257,272,224,121,81,108,136
173,276,259,191,100,70,103,144
177,266,189,201,114,74,101,144
177,275,222,193,132,76,125,166
175,315,256,228,138,79,117,135
175,353,362,257,169,97,123,147
164,339,379,283,194,100,119,140
178,343,383,299,207,103,131,148
183,348,419,297,205,106,124,121
179,336,420,315,227,109,118,122
170,323,394,279,201,93,128,116
161,299,390,252,177,85,138,137
203,315,408,251,164,83,140,157
222,330,395,265,160,77,135,158
219,308,390,229,131,70,137,156
208,275,346,229,135,77,122,147
213,276,337,240,141,83,128,137
164,257,317,210,129,81,118,108
127,230,279,220,121,80,107,105
117,215,257,232,117,78,103,102
114,217,209,253,120,67,106,119
128,243,237,247,118,67,95,110
117,253,331,254,126,64,108,123
127,256,364,221,119,57,107,114
137,292,398,213,129,62,107,119
177,281,404,216,125,73,120,122
194,271,389,220,128,72,119,136
212,248,321,230,144,81,128,152
243,250,291,272,156,84,130,158
245,228,257,250,146,84,140,156
217,225,273,238,148,77,144,168
194,225,393,250,162,85,145,156
210,242,394,242,149,83,125,130
175,240,372,190,132,78,125,137
170,222,375,338,184,87,117,136
186,257,400,432,246,101,124,123
236,332,297,446,262,110,129,158
211,312,284,439,259,106,129,157
206,303,295,453,272,110,144,171
205,308,315,410,264,110,149,176
206,320,297,311,204,98,133,172
156,219,282,312,190,85,120,139
144,226,274,326,199,91,118,140
146,302,327,317,202,104,122,121
156,313,324,255,170,97,129,117
195,325,397,275,174,98,122,110
187,378,406,230,147,91,119,110
212,409,421,210,127,85,129,136
225,365,378,201,90,68,121,143
222,350,371,221,123,74,108,154
182,330,268,231,177,108,119,156
182,285,269,235,179,108,133,180
177,247,274,247,186,111,122,163
172,279,324,318,235,119,115,152
166,295,320,319,231,121,112,141
192,282,325,303,198,89,139,174
200,282,336,315,209,93,136,155
179,296,357,322,215,94,144,166
164,271,320,249,164,82,146,165
178,267,330,236,153,75,152,167
149,269,354,222,149,79,121,135
172,297,388,236,138,82,116,134
176,285,379,219,120,81,110,124
199,274,390,256,130,80,103,128
201,288,376,252,133,81,154,154
197,277,348,304,164,93,160,152
181,250,303,296,170,91,167,148
173,252,270,295,171,89,164,139
155,263,246,280,181,96,170,130
131,236,237,295,181,96,116,94
127,236,270,277,166,79,102,84
109,241,293,259,155,73,89,77
125,226,305,271,157,71,101,83
110,206,317,277,143,63,117,112
137,208,334,270,138,66,124,120
137,205,313,232,116,81,129,121
133,178,296,249,128,82,124,119
138,188,281,262,152,90,127,124
139,204,278,241,147,93,107,118
164,225,284,243,151,92,102,119
157,228,333,248,156,78,97,115
170,229,315,243,152,77,112,118
157,234,314,223,126,70,99,107
171,249,314,231,136,72,98,107
130,256,304,239,137,67,99,100
155,266,239,243,140,73,100,103
145,261,232,230,134,73,83,100
168,298,245,257,161,83,113,101
181,315,268,263,164,79,120,91
190,300,261,252,169,81,118,96
183,298,254,235,159,78,118,99
189,302,257,238,159,76,125,115
175,269,287,210,137,73,121,132
165,233,291,272,161,79,114,134
172,236,288,307,178,86,116,133
178,230,294,309,181,84,126,130
182,234,297,303,186,88,134,128
190,259,283,324,191,85,118,118
189,274,238,266,172,85,114,109
173,276,266,249,162,88,118,101
175,316,287,263,166,91,119,128
164,345,329,261,167,93,108,115
170,398,451,238,155,94,100,114
152,389,469,246,156,90,124,114
158,392,487,213,141,87,138,130
173,360,500,201,152,103,131,108
189,341,486,265,183,111,128,110
183,263,379,329,217,116,127,101
187,265,361,324,220,123,116,121
206,318,327,322,215,121,101,113
196,316,314,317,199,104,95,110
179,300,310,280,168,90,100,116
179,294,315,201,126,84,103,118
179,303,325,176,101,68,94,106
163,230,306,190,121,90,122,106
153,220,273,197,140,92,125,101
171,290,308,200,146,94,119,97
163,276,291,195,142,90,122,100
159,255,277,202,151,95,152,110
158,246,275,180,140,79,147,129
145,263,328,208,123,80,148,132
129,214,290,210,117,81,208,143
120,234,314,248,167,99,267,151
126,255,342,350,225,129,300,154
148,271,443,374,238,135,302,149
197,291,480,365,244,137,307,151
199,273,473,356,250,146,297,160
202,263,449,346,232,141,251,152
221,270,452,254,186,126,260,151
197,269,396,252,181,117,260,141
155,288,367,258,177,117,257,141
185,301,395,289,177,110,237,136
189,306,413,280,177,110,234,132
191,320,401,271,167,91,150,118
194,342,380,243,147,92,140,109
193,302,331,220,138,87,156,124
185,306,300,181,148,91,141,108
185,301,291,159,129,83,136,112
161,285,313,168,127,86,138,112
157,257,382,191,128,84,131,116
154,255,372,194,132,83,107,95
153,237,367,193,111,68,119,108
162,232,383,189,108,70,138,111
157,204,349,186,97,68,135,108
163,202,286,171,125,87,143,111
170,223,304,180,131,93,153,121
153,263,331,169,119,92,137,112
129,264,305,177,134,96,123,113
145,278,312,178,149,98,125,113
146,275,284,191,135,82,132,111
154,326,300,203,145,78,120,126
143,295,300,237,158,80,122,121
151,292,294,229,145,68,120,113
141,337,365,246,154,96,164,121
136,346,390,293,185,98,148,116
123,298,424,308,191,103,160,88
140,295,419,306,197,108,170,101
141,320,441,394,248,117,187,118
136,279,424,389,244,98,149,112
139,311,425,347,221,95,147,116
160,336,400,369,236,95,136,119
149,329,390,353,228,95,128,110
148,328,412,265,177,90,98,91
147,331,369,275,180,93,97,90
142,314,372,271,172,89,98,82
104,271,346,198,130,86,95,88
122,302,354,210,130,84,96,88
117,306,330,191,125,80,104,102
130,283,337,159,95,75,98,99
128,259,313,176,99,79,114,104
126,264,303,198,119,77,117,106
111,242,294,188,115,78,110,104
148,227,286,192,131,88,104,94
136,231,268,198,145,87,107,94
137,218,259,216,150,87,106,101
164,203,247,215,158,95,127,113
176,214,257,225,170,99,129,113
144,201,249,240,168,92,130,116
147,224,312,237,158,89,133,118
151,248,313,223,153,86,136,112
135,258,325,212,130,73,120,97
146,271,314,195,107,63,121,100
147,256,319,210,120,64,119,92
144,229,257,197,124,74,118,89
140,215,267,177,119,75,112,85
132,241,347,172,123,80,125,74
100,220,359,241,157,87,123,73
92,241,369,230,153,88,121,71
90,249,388,255,175,92,123,90
91,260,381,279,184,93,116,97
173,250,361,283,183,92,98,116
175,241,355,247,165,86,99,115
181,233,360,276,166,81,95,117
184,228,340,257,144,72,87,104
182,212,353,239,138,73,79,106
111,183,307,234,142,73,72,89
99,206,350,245,147,84,68,102
110,189,309,220,134,90,76,102
113,241,350,232,133,88,77,109
110,240,326,224,126,84,71,97
103,257,350,226,119,79,68,91
98,243,323,223,114,71,64,70
82,262,342,226,129,87,111,113
83,244,342,222,136,97,125,128
79,245,348,231,140,99,131,134
94,249,380,258,155,105,133,139
101,260,363,257,162,112,137,142
105,258,367,238,155,99,109,115
96,247,365,242,147,86,90,96
111,254,388,247,148,86,88,91
117,248,363,216,130,80,83,83
118,249,388,299,125,65,80,80
115,246,373,314,131,67,64,70
114,238,354,308,128,72,67,62
112,263,394,303,124,74,107,127
100,302,407,308,124,73,110,136
95,289,388,218,135,98,118,143
91,300,413,184,113,91,132,176
104,301,419,177,113,94,147,188
94,290,394,182,114,93,122,156
92,264,406,184,136,99,128,183
98,296,504,237,131,93,138,187
103,290,508,257,145,100,126,160
90,277,493,254,141,95,154,163
90,262,473,246,142,95,155,158
146,248,497,261,143,98,156,140
146,213,406,235,159,100,142,134
153,202,447,239,175,102,145,143
156,216,467,259,190,103,106,139
164,210,464,263,196,103,103,145
138,192,429,241,183,94,99,127
176,237,469,204,159,79,126,123
204,253,412,184,147,112,251,148
211,250,389,191,147,121,267,146
211,280,411,206,155,132,272,147
205,323,413,227,162,136,278,162
177,301,366,235,169,139,275,174
140,319,386,244,163,110,176,147
128,320,411,240,176,106,143,133
149,367,489,271,184,116,158,156
148,354,474,251,175,113,145,138
146,356,456,249,165,110,135,121
141,341,448,244,156,108,131,123
159,369,426,255,129,99,130,138
135,309,324,261,152,78,106,120
143,298,294,267,161,86,132,127
151,278,312,266,161,85,151,136
156,271,299,258,159,82,149,135
159,250,363,230,154,83,156,135
166,253,345,200,122,89,150,123
163,235,345,192,120,85,153,127
153,246,339,192,116,80,130,123
160,223,324,211,140,88,125,123
149,214,262,222,166,109,124,113
143,198,245,195,160,98,133,112
136,215,231,198,154,94,131,112
153,208,214,203,164,101,135,130
145,220,352,183,149,109,158,136
150,229,362,200,150,89,154,134
155,236,381,191,139,87,148,137
152,223,395,185,140,86,129,133
139,231,411,186,135,81,122,109
161,254,332,210,148,79,93,104
157,228,314,198,125,77,92,107
157,226,307,235,135,75,98,117
163,242,356,242,142,90,110,118
169,247,359,238,150,95,119,124
159,225,367,267,165,90,116,115
153,242,379,371,200,96,115,114
151,249,440,377,225,120,121,116
193,325,456,394,231,115,105,109
193,321,463,397,230,113,95,97
189,329,460,363,210,107,98,97
192,352,462,255,186,108,109,112
191,351,415,238,154,86,118,108
138,272,391,201,138,78,114,105
152,265,377,196,128,70,112,116
147,277,366,221,131,71,117,126
148,248,366,217,123,74,124,131
143,233,419,197,129,75,99,120
155,294,397,202,133,76,100,130
156,293,400,219,152,96,151,139
156,269,380,202,148,107,160,138
182,284,376,199,140,98,148,121
179,308,304,204,136,95,148,124
196,251,279,214,155,103,170,142
199,268,323,208,139,88,137,139
244,309,373,215,144,73,121,140
220,316,372,216,154,73,119,139
226,307,370,251,188,91,119,140
202,311,380,273,170,79,96,122
186,307,385,263,171,82,87,123
144,270,347,249,163,81,85,124
169,245,356,249,161,81,102,124
162,224,346,263,165,86,103,117
163,227,337,253,169,87,96,109
201,229,255,252,170,85,103,125
186,265,255,261,184,90,114,118
191,289,225,271,200,95,100,125
192,307,254,224,160,71,97,125
199,310,368,206,173,81,100,124
170,325,386,233,188,97,122,97
171,295,384,242,194,102,120,94
141,275,390,232,174,98,126,77
150,260,378,259,187,101,143,98
168,246,254,260,173,100,170,138
170,242,311,275,187,95,156,137
174,247,300,283,188,101,149,142
171,223,294,290,190,104,150,143
182,228,327,278,183,107,140,135
173,268,335,270,181,101,136,121
153,313,363,224,150,93,124,117
141,317,397,216,132,74,125,118
146,332,392,202,131,81,140,142
122,331,362,193,144,89,139,147
127,297,375,249,160,90,110,132
156,279,311,258,158,89,114,130
169,280,269,254,166,93,114,135
185,278,271,266,169,88,85,115
187,286,303,279,176,84,82,118
173,293,301,256,181,89,162,127
199,284,279,259,188,95,170,144
233,314,281,257,185,93,172,134
227,304,280,248,188,91,176,132
225,292,257,224,176,87,192,127
228,281,258,206,156,82,132,109
201,281,269,210,156,79,123,97
151,231,275,192,144,80,118,96
138,255,269,167,124,77,114,98
139,256,275,165,111,73,93,96
156,304,328,158,136,78,90,92
149,274,360,193,130,77,84,82
157,270,345,223,133,74,122,95
170,259,345,230,135,77,133,94
181,288,353,222,130,75,135,96
174,242,345,249,109,68,139,105
167,236,330,277,134,71,142,104
160,252,355,270,149,76,119,92
159,234,358,269,150,75,146,110
156,200,374,275,148,74,148,109
141,192,323,256,150,83,150,117
148,193,320,214,136,82,155,121
147,196,316,193,120,80,164,136
128,198,317,191,121,82,133,119
136,210,277,184,129,87,118,114
136,236,281,174,127,79,110,94
157,237,251,148,114,73,103,95
158,229,225,159,110,75,95,76
179,257,305,177,120,88,97,86
170,260,354,180,109,79,95,86
178,246,348,174,95,74,95,92
165,269,349,158,95,82,99,86
168,276,416,148,95,79,88,94
144,274,414,146,79,61,79,94
142,263,376,150,103,74,87,91
140,268,403,160,115,77,94,98
124,243,409,183,120,70,91,110
146,277,369,209,134,80,89,107
152,258,340,206,137,82,92,112
158,262,336,218,133,72,88,125
156,246,290,212,126,73,81,127
155,248,310,210,118,71,70,115
154,186,303,189,112,72,67,109
146,179,266,179,105,69,67,95
136,158,317,162,91,73,81,136
170,207,351,154,86,68,84,128
183,223,321,128,94,74,92,132
220,245,301,125,76,62,89,132
269,293,319,135,96,72,94,147
279,337,289,138,92,66,92,103
263,352,333,146,95,67,91,102
254,349,348,156,93,60,81,98
206,334,352,167,105,68,83,106
142,320,345,160,98,64,95,99
140,300,329,175,123,69,88,107
146,254,265,176,134,73,87,115
148,242,269,232,146,77,96,122
161,267,279,225,142,75,99,114
166,258,286,226,134,69,88,118
182,246,273,207,118,68,91,142
169,242,275,218,120,69,101,141
174,229,247,168,115,71,106,139
165,198,231,162,113,65,103,142
173,255,346,177,120,67,95,150
142,280,423,181,115,66,88,120
135,282,424,186,118,66,76,110
121,298,448,238,139,63,67,104
114,304,479,254,149,71,72,110
103,262,408,258,159,80,83,94
109,225,350,271,165,80,92,103
117,237,350,274,169,85,97,112
113,222,319,229,154,88,110,113
113,226,288,225,149,90,106,104
154,238,275,212,140,87,110,105
158,242,282,213,149,90,103,92
158,231,272,195,130,81,110,108
168,250,311,186,126,82,98,110
175,276,383,201,135,78,103,112
212,310,381,196,132,72,92,102
204,307,378,190,113,67,102,103
218,320,394,226,120,71,93,84
215,312,399,216,105,64,88,83
221,304,322,196,101,66,90,80
158,232,311,230,115,68,92,79
164,220,303,241,121,66,82,83
168,215,279,204,120,70,92,123
168,212,257,205,122,71,97,120
163,180,262,223,121,70,96,124
153,191,299,200,112,70,98,125
172,221,291,167,105,72,101,131
156,233,314,191,110,71,99,94
164,222,283,193,114,71,99,98
159,229,267,196,105,63,98,104
177,225,247,199,114,65,97,105
160,236,298,214,118,65,92,95
160,229,283,189,108,60,84,99
153,245,296,185,121,71,96,105
157,250,303,159,131,81,134,125
136,274,308,165,129,80,136,120
147,265,257,141,127,81,143,123
145,268,272,148,128,83,139,119
143,274,302,150,112,72,136,113
169,282,310,143,93,62,122,103
174,273,311,130,105,70,121,105
169,280,365,156,111,71,114,102
170,268,382,165,110,70,116,98
165,259,371,167,108,68,108,98
137,276,370,183,117,74,81,74
142,295,378,203,108,67,87,77
151,299,379,197,106,66,87,85
143,291,359,187,107,65,90,89
148,330,382,213,116,65,127,109
152,308,424,218,118,60,134,120
155,285,487,201,106,58,127,122
136,262,449,209,116,70,128,122
141,272,430,215,123,72,125,124
146,242,399,194,121,74,83,106
152,226,369,183,119,74,68,101
162,217,262,194,117,70,68,93
164,204,275,187,107,57,72,102
163,195,305,186,97,52,72,96
156,161,323,194,93,48,74,102
146,177,305,217,97,48,70,98
115,206,303,226,118,57,74,105
123,230,288,218,112,56,73,95
132,280,303,235,132,68,79,107
137,306,332,232,158,89,82,107
139,305,317,199,151,89,77,101
137,287,304,171,143,88,71,101
122,277,292,167,143,88,69,96
108,235,254,151,131,81,59,83
112,207,185,159,103,55,52,76
113,210,230,170,106,57,57,79
116,200,266,172,100,59,60,72
114,193,274,178,104,61,57,76
128,201,272,171,103,62,77,91
160,212,280,160,99,70,84,108
151,199,253,187,114,72,84,105
156,210,222,217,143,72,102,117
155,222,220,218,139,71,98,111
153,212,258,210,137,72,86,106
107,201,271,203,136,65,80,86
115,213,289,168,119,61,81,92
124,215,319,130,84,57,66,84
123,206,356,125,94,58,70,89
144,259,403,130,101,70,70,98
144,258,410,139,102,73,68,98
142,256,426,198,130,84,79,114
133,252,407,208,139,85,73,109
144,343,474,215,145,95,77,113
113,314,426,220,149,96,85,101
124,318,415,245,159,98,86,103
167,317,390,199,140,89,77,85
188,323,412,187,126,93,75,91
204,243,310,218,142,87,67,91
212,239,339,218,135,75,58,89
208,230,338,193,119,70,52,84
199,222,336,193,114,67,55,83
189,222,325,187,116,62,53,88
174,221,327,148,84,54,53,82
176,221,299,156,98,54,48,85
177,218,376,149,112,62,70,105
157,221,409,149,114,66,74,114
141,206,405,160,124,70,83,113
128,187,397,150,124,78,85,113
109,168,384,143,112,81,92,112
119,163,416,148,108,79,94,103
109,175,428,162,107,75,87,91
134,214,455,167,100,73,81,91
135,210,468,189,111,67,80,92
138,222,463,177,111,67,83,95
133,243,396,174,112,63,74,94
129,272,415,217,136,70,73,96
98,253,406,231,141,71,78,97
106,269,400,211,128,69,86,96
141,270,411,218,122,65,87,108
149,283,385,222,112,63,94,110
155,265,395,177,105,74,102,108
158,256,392,152,98,71,98,99
154,244,397,166,112,77,92,98
128,229,408,164,124,81,87,90
180,252,455,164,131,89,82,83
179,238,383,162,119,77,74,82
177,232,377,174,118,74,72,81
178,240,378,168,114,68,75,92
185,261,383,179,113,67,75,83
131,221,331,188,124,66,81,97
126,224,332,197,123,69,82,101
128,232,374,185,116,67,95,122
137,232,358,182,111,75,109,133
125,214,372,179,102,74,114,147
106,187,367,154,87,66,106,142
114,223,461,150,98,66,128,161
126,225,445,156,112,80,121,147
110,217,504,172,122,83,114,133
108,216,504,177,128,83,107,121
128,246,546,203,135,86,110,114
124,219,496,222,128,82,102,116
125,235,509,216,119,75,122,127
127,235,467,215,118,63,114,122
133,263,464,226,138,75,125,150
116,269,433,212,126,78,121,150
146,269,442,180,125,80,112,138
147,281,452,187,127,78,104,150
152,291,454,195,134,86,108,156
143,315,494,222,170,100,102,130
183,304,490,268,183,96,102,142
182,321,493,283,183,98,98,139
172,307,475,276,182,100,94,123
166,293,489,258,172,95,92,116
169,258,463,228,123,69,83,119
134,290,511,184,111,72,86,121
141,287,475,198,120,72,86,117
140,275,457,222,128,69,81,110
159,305,523,235,135,75,100,133
169,301,531,223,127,83,104,134
211,293,520,208,127,84,107,148
193,286,566,180,125,85,102,144
193,297,569,172,133,90,99,145
182,280,512,184,139,94,106,138
176,276,506,189,151,86,99,131
136,256,485,218,166,100,95,110
136,238,436,233,166,99,101,113
142,252,456,229,156,96,117,145
169,281,589,221,159,87,99,135
189,299,590,229,154,91,101,138
180,306,594,208,145,84,112,143
181,318,606,206,145,84,108,138
176,307,580,198,143,87,113,135
159,295,469,190,130,85,116,139
177,303,516,216,130,78,123,146
176,291,535,232,116,66,111,134
169,281,536,214,110,66,124,149
186,286,557,222,124,75,119,127
186,260,536,229,116,73,115,120
171,236,470,195,104,73,105,112
201,232,399,179,112,85,111,115
227,240,387,191,107,84,103,116
249,256,360,176,84,70,83,105
250,256,330,157,89,77,77,104
240,245,293,142,88,77,86,110
213,235,315,123,81,69,93,150
185,210,352,104,82,70,103,147
137,164,347,136,106,81,109,149
139,173,358,154,113,80,109,151
141,170,375,164,122,89,109,144
143,165,366,160,120,88,102,100
146,204,339,175,125,93,107,79
145,226,358,192,120,86,99,71
136,248,366,181,117,87,102,68
114,246,352,184,109,77,97,68
104,247,344,217,109,70,94,65
97,245,360,227,111,59,70,74
89,225,338,198,100,62,82,78
72,196,305,196,100,65,85,78
65,189,308,184,98,67,90,90
61,188,312,157,89,65,86,89
67,184,306,133,86,69,92,108
107,236,354,143,90,71,88,109
106,241,348,149,83,66,82,107
108,238,353,169,84,66,85,97
121,249,379,173,98,75,97,109
120,240,410,170,94,73,87,85
98,206,427,170,88,66,87,90
101,193,443,184,89,63,111,91
136,206,468,184,88,59,125,105
154,210,475,174,75,51,118,111
174,205,452,194,87,52,118,112
182,188,411,221,106,62,128,126
180,196,485,205,109,66,115,132
157,219,482,207,116,74,117,128
141,238,555,217,121,78,120,118
122,233,534,195,111,76,120,116
100,264,567,159,91,66,112,101
154,276,558,169,101,76,119,119
159,276,606,167,89,67,99,125
184,256,532,145,79,62,92,123
180,255,533,150,80,64,90,122
183,225,505,168,94,68,81,117
145,207,467,162,80,52,60,91
140,178,418,166,89,57,61,73
93,170,407,173,91,56,81,68
133,204,401,165,89,58,129,139
132,202,370,161,89,61,140,147
134,238,397,182,90,64,142,151
137,242,372,172,88,67,144,154
138,247,378,175,96,74,136,155
95,215,368,176,94,68,91,98
107,240,407,155,85,65,74,84
109,243,482,138,86,63,68,74
122,236,465,131,82,58,56,68
135,242,515,158,82,54,51,73
135,258,541,167,88,57,60,78
127,242,529,171,87,57,62,77
125,206,448,184,96,64,70,80
122,223,463,200,100,67,84,84
105,206,395,178,92,63,87,79
122,207,375,173,89,62,81,80
120,199,341,171,85,60,80,79
118,217,372,183,74,49,72,79
121,197,367,187,84,50,65,85
122,194,369,187,84,52,67,87
133,184,377,183,82,49,65,93
140,186,396,180,84,55,66,93
137,163,304,137,75,55,63,88
121,178,282,99,65,63,55,79
153,204,287,96,65,62,49,76
169,230,310,104,70,65,66,69
170,227,320,154,78,66,69,71
173,219,317,151,79,63,69,69
177,225,310,155,71,47,70,81
153,212,306,149,71,47,67,79
123,176,304,150,65,43,51,69
111,169,260,111,62,42,46,69
108,181,311,114,59,45,52,72
102,172,365,113,57,44,52,57
97,171,396,137,67,44,53,59
84,183,374,141,72,48,57,57
84,199,397,150,88,52,61,59
83,193,363,180,107,64,74,71
92,207,366,187,111,72,79,95
131,240,344,186,117,78,85,110
140,236,331,190,119,79,81,113
162,269,369,189,110,78,91,132
169,271,390,162,96,74,84,135
178,265,345,149,92,68,79,123
161,249,344,148,76,60,77,111
199,261,355,139,70,60,88,111
255,264,303,132,74,62,75,94
260,267,323,142,89,62,70,80
254,259,329,155,101,61,80,72
250,250,366,162,106,63,89,75
217,255,386,159,104,57,80,78
146,239,403,173,104,57,102,87
151,242,472,165,93,59,105,96
147,238,491,157,85,60,98,98
150,239,493,138,80,59,88,94
172,240,476,147,92,65,84,91
156,209,469,137,93,65,54,72
142,195,408,146,105,64,52,65
154,192,409,154,112,67,61,73
150,205,415,187,127,71,72,71
164,240,443,190,128,77,74,70
168,243,465,186,124,72,76,75
172,241,428,175,113,67,77,71
160,254,415,210,117,64,71,63
179,250,474,204,113,71,79,94
152,193,470,198,103,60,78,100
163,198,460,197,98,59,79,101
153,206,464,208,101,59,75,101
154,217,505,176,100,67,81,105
130,199,405,167,96,59,68,86
110,190,389,164,97,59,74,95
114,173,369,160,98,58,74,97
123,229,417,149,98,62,77,104
136,221,358,143,88,55,69,103
138,239,359,111,71,48,67,101
142,241,345,123,74,48,65,91
123,255,354,125,73,48,69,91
153,219,289,136,68,43,65,84
146,226,342,134,60,42,94,89
151,251,422,156,64,45,93,84
159,296,469,160,66,50,96,84
159,310,491,161,79,56,93,88
120,300,489,198,95,59,127,102
114,280,454,201,104,56,117,105
150,271,400,204,117,66,121,109
158,242,392,200,120,65,118,108
155,217,366,209,128,63,120,98
157,244,399,182,127,69,98,85
188,260,497,174,122,72,91,91
159,239,493,160,113,63,81,89
155,231,494,149,107,59,83,94
154,231,481,150,94,59,79,98
159,249,539,152,89,57,61,95
148,249,444,154,91,60,56,82
155,265,463,167,91,62,60,85
143,259,436,182,93,64,58,76
149,257,443,170,97,65,55,71
170,228,382,160,96,63,60,85
150,232,410,160,92,55,57,82
170,212,370,137,83,53,53,86
174,252,374,131,92,56,55,82
172,247,356,128,84,52,55,82
141,228,305,118,73,48,49,68
135,241,305,111,74,49,50,77
119,261,339,152,85,52,56,73
140,233,347,198,82,55,64,89
159,237,354,254,97,58,74,116
171,276,378,262,107,64,80,127
188,296,481,275,117,70,84,133
174,285,525,260,119,70,83,133
153,272,531,224,119,69,74,128
138,271,536,154,109,67,69,114
131,253,528,142,104,65,65,107
110,200,431,118,97,64,59,90
116,180,340,128,89,63,60,90
116,175,403,125,86,60,59,87
122,195,415,162,86,62,59,87
154,189,447,169,92,61,58,95
158,186,443,176,92,56,65,102
160,212,451,178,91,54,70,101
165,236,375,186,91,55,71,112
181,258,385,175,97,66,92,128
162,256,357,166,89,67,99,123
168,279,348,181,91,73,106,135
159,266,431,169,91,74,107,145
158,270,427,165,90,75,118,147
131,244,421,144,80,67,105,133
127,301,493,153,81,64,106,129
118,298,532,138,78,70,118,126
119,304,532,166,77,72,115,111
109,304,563,170,90,75,111,104
140,354,652,193,123,84,128,111
149,341,673,189,127,87,124,116
172,357,666,186,125,77,103,100
183,375,711,208,143,81,107,100
185,379,708,207,142,83,100,90
196,327,635,208,140,89,105,104
202,335,610,231,147,94,104,102
208,344,606,235,148,97,105,107
200,330,513,217,148,121,153,129
223,330,505,223,156,129,165,138
200,369,515,226,141,121,148,127
190,363,495,206,133,119,150,128
164,355,535,212,136,121,149,127
167,379,620,225,129,101,107,140
169,390,651,225,131,124,93,140
168,360,647,235,149,144,109,147
157,366,651,256,189,148,110,152
171,377,610,254,200,157,121,162
189,393,593,259,204,158,109,150
178,415,606,256,193,131,108,144
166,462,647,243,176,109,86,133
166,456,669,224,134,102,80,129
186,432,706,244,121,97,70,139
191,400,689,205,107,102,78,132
195,451,730,233,130,115,100,161
220,455,746,231,137,124,111,168
222,447,751,232,143,165,126,170
197,460,731,215,143,178,131,167
191,452,692,239,161,172,129,179
175,376,668,245,161,166,119,169
156,310,595,251,171,183,125,171
152,296,549,296,192,150,115,166
156,276,531,305,211,143,115,163
151,299,592,297,199,152,116,144
144,276,542,265,188,157,108,122
136,308,593,249,187,143,91,107
167,361,622,209,162,154,92,111
153,357,627,186,148,145,83,95
132,330,549,176,153,143,80,89
137,349,534,212,172,153,94,107
130,318,480,214,156,139,92,102
85,242,412,188,148,119,85,93
82,262,439,186,133,116,81,86
90,290,516,184,140,159,94,109
79,267,489,142,111,142,78,93
81,268,491,131,109,141,78,98
91,292,562,150,118,141,79,102
97,359,629,170,123,144,81,104
85,352,578,175,108,85,64,98
91,350,623,176,111,97,71,106
102,376,652,210,130,99,75,113
94,358,606,232,131,104,72,110
103,299,557,243,132,108,90,121
103,290,566,234,128,108,86,105
99,295,581,246,133,110,78,99
105,257,555,238,122,114,80,98
125,295,600,235,135,117,92,121
117,259,528,217,140,118,73,107
129,269,507,220,143,120,79,116
140,292,454,205,138,108,82,121
132,334,608,203,136,99,80,115
118,296,611,169,118,104,79,95
111,291,618,144,98,97,81,102
102,293,622,147,98,95,79,102
98,270,649,163,101,95,80,99
89,214,530,149,99,95,74,95
83,218,448,142,96,94,69,101
83,224,467,147,95,97,66,106
85,224,474,144,92,90,60,98
82,218,437,133,87,97,65,100
83,213,369,113,81,96,63,98
79,214,440,123,89,85,55,87
101,264,477,161,101,74,69,85
94,247,530,161,96,76,72,84
81,233,529,155,91,69,61,71
91,265,556,172,103,94,77,86
92,256,525,178,115,103,84,86
98,332,606,211,116,122,88,94
120,396,656,229,126,129,95,109
132,431,687,240,141,140,100,118
132,424,705,247,145,129,94,114
138,439,753,254,140,125,93,116
132,435,835,249,137,108,78,112
114,377,763,230,128,98,65,95
102,351,725,217,111,90,59,84
107,344,699,200,93,81,49,77
106,337,673,191,77,77,45,75
101,233,424,145,74,87,54,67
119,302,561,196,155,212,118,137
128,290,574,208,181,222,127,143
123,330,619,227,192,232,140,153
122,323,566,231,199,237,140,153
127,334,584,222,200,245,141,152
119,281,499,208,167,165,108,118
120,310,588,220,149,151,99,115
125,273,560,209,140,143,88,109
128,322,671,213,131,135,86,108
113,305,677,226,134,129,88,107
117,329,682,208,113,123,74,89
127,306,595,226,147,167,88,92
126,312,680,243,181,184,91,105
121,277,600,231,192,202,97,104
158,281,612,221,186,191,89,125
175,296,576,226,193,187,87,128
168,294,563,230,185,157,80,133
178,350,457,251,174,158,85,119
184,358,516,255,167,137,85,125
160,378,539,259,177,144,92,106
131,341,559,254,167,144,94,95
122,353,581,216,146,142,87,78
127,306,558,159,119,128,82,83
134,295,510,171,114,127,96,126
128,260,492,206,117,124,92,125
136,272,521,237,135,120,98,133
148,316,580,256,140,133,102,140
123,292,568,254,151,121,99,142
167,357,597,248,156,126,87,115
190,366,570,218,152,125,85,114
187,355,592,197,145,132,78,109
179,301,524,175,134,134,78,103
199,297,534,175,131,142,71,97
149,191,465,162,121,146,63,81
118,163,478,150,115,151,63,74
122,180,375,144,116,157,72,90
121,170,350,138,116,143,69,109
83,238,414,155,108,138,73,113
92,262,412,158,107,132,76,124
85,262,395,153,104,150,86,134
82,259,413,154,102,140,80,135
108,284,404,148,95,131,77,124
121,264,351,146,100,139,78,123
118,251,377,159,127,154,90,112
118,266,367,163,124,140,81,103
116,245,324,140,112,139,81,100
97,216,334,146,119,143,92,102
94,184,368,131,109,129,91,100
92,168,340,143,108,136,93,105
93,143,321,139,111,126,89,106
88,148,318,140,116,137,92,91
94,205,403,160,118,134,87,89
83,208,377,174,124,135,83,84
88,224,368,173,127,124,68,82
86,228,372,189,135,129,73,79
85,236,382,194,134,120,66,80
76,210,355,189,135,117,60,71
67,199,354,188,131,116,59,69
59,177,380,161,99,101,58,64
62,187,389,147,91,86,58,83
67,217,480,150,88,83,60,80
69,221,452,178,107,89,60,80
69,218,426,187,125,95,68,82
77,287,456,199,130,108,78,84
76,293,451,207,129,124,85,62
72,268,370,212,133,118,83,62
74,267,381,198,133,120,85,66
92,294,446,191,128,119,84,74
99,246,420,187,143,117,90,83
99,231,421,218,167,110,84,84
101,229,430,227,175,115,89,90
97,219,445,219,164,112,90,91
83,197,425,215,152,105,85,81
67,173,409,231,152,118,87,70
64,188,463,200,123,113,84,71
59,191,444,176,107,109,79,61
60,184,415,193,112,107,75,56
67,208,391,200,123,128,85,86
66,211,407,178,111,108,71,86
66,211,351,173,107,108,68,87
69,234,354,185,113,112,67,92
61,236,343,150,102,126,72,92
47,202,322,129,84,106,58,64
49,206,312,127,76,106,51,73
48,201,311,116,76,114,65,82
50,177,295,102,80,119,76,81
67,237,342,161,85,102,74,86
67,231,339,162,94,109,78,87
68,225,317,160,91,102,75,77
70,245,358,175,94,98,66,67
70,247,382,190,93,91,59,66
63,190,341,188,108,112,69,62
68,198,349,216,130,108,76,90
65,203,344,230,143,109,80,102
60,176,306,223,146,102,79,103
55,187,346,214,141,106,82,106
45,174,335,181,130,93,76,105
46,184,334,178,115,111,75,94
50,184,391,168,109,110,72,82
52,176,380,171,104,115,71,80
50,154,334,173,114,115,68,77
53,170,340,190,120,122,69,83
48,160,345,178,117,116,62,94
41,141,281,171,107,114,60,91
43,167,344,177,108,116,64,93
42,162,335,182,108,124,59,90
67,210,398,171,107,123,78,106
69,218,402,158,102,127,78,92
76,234,438,175,112,131,83,98
75,253,454,173,117,130,82,97
74,256,468,162,113,126,84,96
59,226,469,173,121,119,66,81
70,234,481,163,114,111,77,113
68,232,461,154,116,113,74,109
68,223,403,151,111,109,71,108
76,238,384,157,115,112,72,115
69,224,317,143,108,113,70,110
67,233,365,162,113,114,57,73
67,257,384,159,104,110,59,71
68,233,397,157,102,109,58,72
66,228,402,150,89,96,58,67
67,247,428,140,70,99,52,66
56,230,380,120,61,93,50,62
52,207,411,118,62,89,46,61
50,204,393,109,57,95,50,70
45,190,404,120,77,104,53,72
53,200,414,133,95,92,53,75
56,193,409,135,99,88,53,74
61,186,349,131,104,97,61,84
59,200,380,152,109,99,63,72
63,218,359,165,111,110,70,80
77,221,351,156,103,117,71,79
77,218,342,152,97,115,70,81
80,232,360,150,89,120,66,73
82,217,340,129,84,135,68,75
85,204,378,109,80,134,72,74
82,177,364,109,79,131,73,70
91,228,397,118,81,134,75,68
87,241,409,127,84,123,75,67
91,276,445,124,87,107,69,64
86,285,433,113,76,110,57,48
71,276,434,105,67,109,55,60
64,260,466,111,76,108,54,61
74,296,536,128,75,109,52,64
68,271,491,129,75,107,56,66
72,286,531,147,81,92,56,74
77,326,558,167,93,104,64,76
84,326,582,160,96,108,63,74
74,276,522,149,97,136,73,70
78,273,522,154,100,148,71,78
75,298,516,143,97,159,72,72
70,276,565,138,89,147,62,62
69,279,498,137,81,152,65,62
72,275,467,129,80,132,58,71
70,293,498,136,77,117,61,69
71,254,438,131,78,91,53,66
69,238,324,119,79,93,57,66
56,211,297,124,84,87,57,66
71,213,350,150,97,157,78,65
67,194,371,145,93,157,73,57
75,208,447,166,95,160,78,66
77,218,501,185,99,161,77,68
87,233,531,193,98,163,82,82
76,242,537,190,89,99,61,89
84,263,638,208,98,117,66,103
102,238,627,192,91,111,63,101
117,227,588,184,91,116,66,104
114,214,582,173,87,109,62,97
144,245,573,177,99,106,79,118
149,250,440,156,102,103,79,108
137,247,403,154,113,118,83,116
132,242,393,135,110,112,82,136
135,249,377,137,110,116,78,136
109,222,369,127,101,140,65,113
116,190,361,128,96,139,67,120
156,258,423,136,99,139,74,129
160,272,437,144,106,139,76,110
158,289,454,154,127,146,83,113
156,272,423,135,129,122,80,110
146,303,505,154,129,115,80,120
105,271,477,152,138,111,74,104
103,278,474,154,155,133,88,112
99,252,470,153,140,122,84,106
114,257,485,163,140,120,84,115
117,228,432,146,138,114,81,95
116,208,445,168,123,114,86,110
109,196,467,192,108,86,66,113
114,217,493,216,131,106,72,118
97,218,508,221,126,106,73,113
113,224,465,219,129,112,73,117
109,219,413,205,126,104,61,103
117,220,381,182,130,108,72,98
120,225,367,161,126,101,66,97
125,229,413,177,130,102,67,95
112,217,424,174,126,108,68,94
113,233,463,176,124,111,70,92
112,221,494,188,125,119,63,82
118,193,480,173,107,108,62,84
120,254,456,156,112,105,63,82
114,260,498,164,116,101,63,84
114,248,462,153,120,100,63,81
100,270,440,135,102,83,56,72
106,279,419,134,107,92,64,73
104,253,424,129,102,109,71,76
103,260,383,125,105,125,89,70
102,257,423,144,104,132,91,73
104,244,404,141,106,132,93,75
88,243,423,142,104,127,89,72
115,216,369,161,103,110,81,81
121,215,420,168,108,94,65,98
129,232,435,175,124,98,76,120
133,214,430,175,121,113,79,123
127,274,451,182,116,122,82,120
103,281,510,172,112,127,83,113
95,300,542,186,106,126,78,102
91,288,514,163,96,122,69,84
112,294,560,170,98,118,69,85
124,301,584,177,112,113,64,85
123,307,609,191,117,108,60,81
120,271,549,175,123,117,71,79
126,278,552,181,117,108,66,69
122,289,550,195,125,109,65,74
113,219,520,185,109,101,67,81
118,196,438,161,108,113,67,79
119,197,412,147,97,136,72,83
111,211,406,139,99,145,73,89
109,206,406,119,82,139,68,81
103,195,354,115,90,141,69,73
95,194,382,124,93,135,73,88
102,203,372,130,97,101,54,80
100,184,393,145,89,89,50,72
78,164,334,131,97,89,49,70
85,166,344,131,103,117,53,78
91,157,291,126,97,109,47,64
79,171,322,136,97,106,48,63
80,183,317,133,98,107,53,71
82,195,369,155,95,112,55,75
83,198,401,159,99,105,59,77
79,204,406,164,102,112,61,77
85,188,384,163,99,110,68,82
77,164,342,153,100,107,66,75
87,162,401,149,103,103,66,77
92,166,386,154,95,88,63,75
99,185,459,145,87,88,72,74
96,194,535,148,84,87,70,75
108,201,550,166,90,94,70,79
106,209,493,156,98,98,71,80
107,207,506,157,93,92,67,79
104,191,445,149,95,92,58,81
118,171,352,132,100,95,55,83
107,181,363,111,97,98,57,92
126,211,447,119,95,96,69,99
144,236,440,117,107,104,69,99
140,246,453,124,117,109,74,100
129,272,461,119,116,108,72,93
138,271,466,120,112,99,77,95
120,295,444,153,106,99,66,95
98,287,452,143,92,103,70,97
94,278,430,137,83,92,67,91
99,253,438,149,83,99,73,93
103,266,491,165,98,104,72,86
110,209,447,141,106,99,75,90
104,184,435,158,124,90,69,86
116,251,472,189,129,102,76,137
114,252,487,185,127,94,71,140
103,259,543,200,127,99,65,136
108,256,572,217,136,111,70,146
105,267,562,213,126,112,71,152
103,233,540,189,117,104,68,114
106,243,523,191,117,101,67,113
113,242,431,181,111,94,69,116
96,247,409,167,107,83,60,89
99,267,476,164,104,80,60,81
95,260,501,175,105,73,54,87
91,278,513,209,113,77,52,90
80,252,466,188,113,74,56,94
96,319,601,194,102,88,72,116
93,299,547,188,100,88,68,111
105,334,589,196,110,92,72,106
106,312,592,174,101,93,76,105
121,321,611,205,122,101,74,104
110,260,489,183,114,84,59,81
116,256,474,183,121,96,66,83
102,186,407,169,109,96,61,87
104,207,405,164,119,99,63,102
97,215,433,148,97,95,63,98
96,197,391,146,105,97,61,93
92,197,401,147,102,89,59,95
99,214,420,164,128,101,68,99
113,220,493,149,127,99,66,82
107,196,459,129,126,98,68,90
125,205,447,125,122,112,80,95
124,232,463,122,118,115,81,91
119,242,514,100,90,98,72,80
98,226,449,122,83,94,70,75
94,242,444,121,79,91,66,65
81,243,443,130,91,89,55,69
90,237,433,137,97,97,54,75
107,253,349,152,102,108,69,88
112,259,318,167,109,112,80,98
116,249,334,166,110,118,81,105
120,254,369,177,101,109,88,117
123,258,391,178,103,103,92,125
110,220,392,159,100,96,82,117
108,208,403,138,103,107,72,108
113,204,446,145,107,107,72,124
102,206,456,129,115,127,70,114
113,217,474,153,123,124,67,113
133,224,472,153,119,120,72,127
137,229,462,146,119,133,74,128
138,245,489,157,118,130,74,116
148,245,497,160,115,117,69,117
134,235,499,135,100,122,71,123
121,261,511,138,98,129,80,116
135,298,512,149,92,104,77,120
142,307,483,167,107,99,79,111
138,300,446,162,106,93,80,105
153,312,439,165,114,88,77,88
158,288,393,164,119,83,67,94
156,261,382,158,116,88,71,88
157,407,571,169,104,106,74,90
153,419,602,169,108,111,76,97
135,431,604,228,113,120,76,95
139,442,620,257,137,133,77,86
139,456,642,267,137,130,75,93
135,336,434,258,153,125,73,88
132,311,384,261,147,130,75,78
135,282,425,236,144,119,72,91
131,280,427,208,132,105,68,89
113,257,469,197,130,111,70,87
105,237,482,175,106,98,64,90
104,277,515,186,110,103,59,94
116,279,464,162,105,115,65,93
115,314,499,182,106,128,79,103
124,329,475,180,106,126,77,104
121,317,465,178,108,127,77,105
130,288,428,168,102,126,79,113
114,265,406,154,110,113,74,111
110,208,392,120,110,102,70,111
104,177,362,128,113,108,82,115
100,177,370,135,115,108,81,111
96,186,367,124,115,113,79,106
114,234,431,135,110,117,83,102
103,267,474,148,104,116,73,91
107,256,466,157,110,119,65,80
118,268,444,150,109,142,92,89
114,258,472,156,105,126,93,90
104,240,436,175,106,121,91,88
132,271,400,177,99,128,94,95
128,277,390,160,87,124,91,96
120,270,388,165,84,105,63,91
134,299,385,165,91,109,68,102
130,284,371,146,96,113,71,102
113,279,424,170,93,102,67,96
123,292,415,168,98,97,67,96
124,299,440,178,101,96,70,102
120,293,427,180,101,108,67,90
116,295,437,182,94,111,58,88
105,255,325,148,94,119,58,85
91,234,319,166,104,131,63,92
86,244,309,161,109,138,62,85
84,249,356,168,108,133,59,80
85,250,390,163,109,134,59,77
104,243,405,162,109,132,68,85
113,250,477,169,101,118,62,84
115,257,535,205,98,110,73,90
109,230,499,197,100,114,71,89
111,220,471,194,96,106,74,95
121,203,467,202,107,101,68,96
121,220,430,187,105,105,72,90
129,200,386,150,100,102,63,89
129,190,380,148,94,94,63,94
128,192,366,146,104,113,62,94
104,219,389,147,92,116,66,92
103,238,365,143,92,112,64,94
93,228,314,134,92,110,59,85
89,232,322,144,105,116,66,77
96,260,385,162,107,105,70,81
94,245,450,149,105,102,66,72
88,251,482,175,113,100,66,72
85,261,507,191,116,106,68,76
77,273,528,190,114,88,63,79
64,273,525,183,101,78,57,72
69,298,499,191,110,85,66,76
81,262,475,186,115,101,68,74
83,251,462,169,120,110,68,80
100,253,458,177,114,116,70,85
116,256,419,185,123,124,72,84
122,221,352,185,120,116,64,82
110,216,345,166,107,103,62,86
118,228,372,174,119,89,68,84
116,212,333,172,125,89,66,82
99,166,305,160,117,86,64,83
96,165,310,166,134,104,68,94
115,174,322,171,132,104,73,112
135,170,342,170,113,102,70,109
132,171,363,163,112,105,67,103
136,173,368,165,118,106,66,98
133,190,379,149,97,96,68,91
125,190,398,165,106,101,63,63
99,189,351,159,105,101,59,60
98,205,340,158,100,102,66,65
100,214,438,183,125,106,72,77
110,201,430,189,124,96,63,77
101,200,409,174,121,93,60,77
97,189,397,178,134,113,71,79
102,197,437,187,135,112,67,77
103,212,408,170,111,104,60,69
89,217,424,199,146,116,69,60
87,205,402,200,156,118,71,67
98,254,501,205,147,100,60,67
100,333,540,214,157,97,66,79
95,325,507,201,153,112,68,78
103,325,490,171,124,109,66,82
103,326,490,162,107,110,66,73
102,303,411,148,106,112,78,80
106,225,323,148,102,107,78,78
110,221,291,163,104,84,74,79
100,202,284,156,96,90,72,75
100,205,299,167,95,84,69,76
99,209,265,167,96,79,55,73
81,167,258,143,77,81,46,59
77,160,288,135,83,102,60,65
79,179,308,137,85,98,60,65
102,221,325,136,98,111,65,71
92,243,460,156,105,112,65,62
90,246,442,146,102,122,74,64
92,305,436,148,122,125,65,55
124,325,451,161,124,121,65,70
106,305,444,156,123,113,62,60
122,270,315,136,120,111,62,61
134,292,420,167,134,106,60,83
129,236,452,167,113,85,59,84
102,228,438,165,118,92,64,81
115,243,437,167,117,91,66,83
98,240,434,165,113,100,70,82
88,225,353,140,97,95,63,72
94,224,297,130,101,93,65,76
102,210,293,127,93,88,63,74
93,178,286,115,90,88,56,76
94,191,319,118,100,75,60,79
127,201,348,123,104,73,66,82
124,210,388,122,99,82,64,77
112,203,395,112,97,82,65,75
121,220,393,111,92,87,76,75
129,237,370,129,86,99,73,83
96,217,354,126,76,99,68,79
100,206,354,121,77,96,69,81
109,198,344,134,84,96,69,78
101,205,391,143,83,107,62,77
110,210,396,136,91,103,62,74
117,201,366,130,99,101,61,64
118,226,332,145,103,105,70,68
112,223,318,140,100,103,74,68
136,223,319,145,109,83,75,84
137,202,322,143,113,89,72,78
136,216,316,152,116,103,75,81
132,181,324,143,118,104,75,80
137,212,347,137,113,104,71,81
107,227,328,122,106,104,68,64
93,254,348,112,87,94,66,68
98,259,368,111,84,89,67,86
103,263,368,110,81,76,56,83
117,247,365,130,109,85,53,90
142,217,357,136,110,87,51,96
145,191,396,143,119,95,53,102
139,163,394,148,116,105,58,96
140,172,400,158,121,107,56,94
123,202,451,148,99,106,60,88
99,202,464,159,100,108,61,84
115,189,434,156,91,103,67,87
110,198,438,143,85,108,63,74
119,191,447,129,77,117,72,87
143,172,408,140,81,110,66,93
142,161,379,117,82,114,67,93
123,171,349,120,85,117,62,85
128,185,362,124,86,103,70,99
127,230,323,145,101,96,63,98
100,216,316,135,118,101,65,90
105,249,315,152,117,96,65,92
117,271,312,157,115,107,73,89
111,263,312,166,134,103,67,75
105,261,372,158,122,98,67,63
120,276,354,159,102,95,69,66
115,247,346,143,111,95,70,65
101,251,373,131,107,78,62,67
103,266,425,132,85,74,59,74
101,260,441,123,85,78,64,78
84,247,445,119,86,81,63,82
87,248,440,120,71,75,56,77
86,208,434,114,77,78,56,79
96,197,377,97,84,77,63,81
94,164,325,130,94,85,58,77
91,164,333,128,99,80,56,70
89,180,376,143,109,86,64,82
91,208,464,164,110,88,65,75
92,226,443,164,109,91,54,76
91,220,453,146,103,88,61,81
95,214,441,154,101,84,61,81
101,214,466,154,97,83,60,73
104,210,415,147,101,81,62,73
92,198,436,150,97,76,61,59
87,198,405,144,91,82,54,59
92,223,444,142,88,95,55,59
85,223,398,125,79,98,52,65
87,212,338,105,66,93,44,62
92,208,315,110,73,102,60,72
95,235,381,158,86,92,60,69
95,209,352,153,90,78,59,72
102,219,351,154,91,72,59,67
100,210,368,170,99,77,65,71
94,192,360,170,93,74,55,71
95,166,362,143,105,85,57,73
92,224,371,165,110,90,56,70
76,211,361,171,110,109,54,65
73,229,447,173,117,112,50,74
80,260,493,175,122,108,50,71
82,294,484,183,118,117,53,75
83,273,481,175,112,134,58,79
93,269,469,182,121,119,60,84
102,278,394,176,120,117,63,76
109,260,356,186,123,124,71,84
109,231,306,169,114,123,73,79
108,216,276,162,120,124,72,84
112,235,362,166,129,139,80,85
120,228,399,164,124,141,83,97
111,226,468,162,119,140,77,88
113,226,465,166,132,139,78,93
115,225,468,167,133,131,81,90
119,211,426,159,119,115,77,93
109,190,418,158,121,114,78,82
107,179,360,142,132,121,89,83
96,157,362,162,133,134,89,75
93,169,382,169,136,126,85,75
93,225,433,171,142,133,99,84
85,255,481,169,138,135,94,83
86,263,461,186,140,126,86,80
90,262,448,166,133,108,84,79
115,270,439,165,133,106,87,94
107,220,394,151,120,98,67,79
106,175,265,151,125,98,65,79
109,168,293,146,128,106,68,79
107,168,303,134,115,93,62,82
90,185,330,128,103,90,54,59
92,229,400,152,104,97,53,58
95,244,429,160,99,98,59,65
93,248,454,153,68,91,53,64
96,268,519,171,77,96,50,67
95,240,510,169,85,102,58,72
85,197,445,155,86,91,59,71
80,184,423,146,83,79,54,61
78,181,383,148,96,89,67,74
96,159,378,153,102,88,72,79
97,154,409,161,98,86,68,77
97,151,399,159,100,90,67,76
98,155,411,160,108,112,75,80
115,153,417,146,101,103,67,77
99,148,363,130,91,109,66,70
87,166,311,121,95,111,63,66
102,174,312,123,96,118,68,68
100,169,291,130,94,101,61,64
102,180,295,145,103,101,56,64
108,198,277,140,103,89,54,68
112,195,258,138,96,90,59,76
99,190,275,141,101,96,59,75
124,192,324,149,102,105,63,84
109,181,284,137,94,99,61,74
117,186,268,142,95,98,58,73
117,190,280,136,100,100,65,67
120,206,365,146,115,88,75,87
99,233,373,148,110,80,75,81
107,243,379,151,112,81,75,83
104,232,385,151,116,86,79,86
103,249,465,161,121,82,72,88
97,241,407,166,103,72,56,70
93,211,365,148,104,66,49,64
86,201,380,142,97,68,54,66
70,189,376,138,101,68,52,62
78,170,345,136,90,60,54,65
98,172,344,109,88,69,55,65
100,201,374,143,104,70,54,66
102,194,375,155,112,73,59,62
102,209,392,167,108,81,58,57
111,205,358,176,106,87,59,53
97,242,396,183,107,86,59,55
99,230,372,162,94,88,61,58
97,235,359,156,92,97,56,62
94,238,384,159,109,110,61,69
83,253,365,156,125,112,57,71
79,238,344,159,135,114,58,69
78,228,335,178,140,115,64,72
85,252,425,191,142,111,65,87
92,235,436,190,128,90,61,85
85,216,451,185,122,82,62,82
93,197,427,198,127,95,64,80
97,203,424,190,142,126,70,78
102,191,388,174,139,121,69,61
97,206,358,157,138,127,69,60
102,189,328,156,135,127,69,61
102,186,326,144,120,131,74,65
95,175,322,132,96,105,64,63
80,163,309,168,100,109,62,60
77,156,284,165,98,105,62,61
88,185,304,154,93,118,66,64
95,177,306,150,94,107,66,72
102,179,313,162,109,114,67,87
101,186,248,140,101,110,63,88
106,180,250,153,108,111,63,87
105,182,293,171,118,98,60,86
98,182,293,162,113,95,50,80
104,225,371,179,116,78,45,63
111,249,440,186,132,82,52,67
114,252,446,181,126,76,50,66
103,231,400,176,118,83,53,66
95,240,401,187,139,85,60,68
96,245,365,161,125,89,68,75
102,214,287,161,114,84,65,75
97,210,264,156,113,88,66,72
109,222,263,145,117,94,68,71
121,230,303,132,92,87,65,69
120,196,273,137,101,90,64,66
113,190,294,128,106,115,72,60
111,198,334,135,108,114,71,64
100,200,352,133,104,105,66,66
86,221,402,149,108,107,65,68
71,219,411,140,113,116,70,70
66,226,404,130,102,91,62,75
74,237,392,128,106,91,60,71
68,259,465,150,125,107,64,66
70,222,394,138,122,108,62,60
82,223,373,138,104,90,53,56
85,217,370,130,105,103,53,51
77,206,364,126,113,118,56,51
84,176,270,109,96,99,50,52
95,209,300,115,106,98,48,60
87,201,345,119,109,109,45,55
82,192,339,158,136,103,51,57
84,207,366,179,134,84,50,56
90,223,355,176,131,88,56,59
92,215,321,175,132,90,57,55
95,220,289,173,129,80,58,57
93,222,285,142,101,74,54,58
102,211,260,123,93,84,58,65
92,198,261,129,106,81,59,63
88,178,271,133,95,75,57,67
83,173,277,151,105,74,59,71
83,177,283,152,103,83,58,69
104,218,347,156,100,79,52,73
112,242,386,151,86,80,48,81
107,249,438,139,84,78,51,76
116,253,433,131,78,79,63,79
126,257,424,127,85,66,63,91
135,236,379,114,86,60,69,101
137,231,355,110,90,79,72,101
170,246,294,110,96,90,71,106
190,301,287,118,108,103,63,106
214,345,361,154,124,112,68,110
219,385,339,174,130,111,62,95
230,385,429,188,130,130,84,97
215,383,493,196,133,128,83,93
203,345,528,182,122,123,82,103
183,309,539,170,101,114,76,88
166,374,584,152,94,118,79,94
162,363,527,152,96,86,54,99
161,359,462,139,83,83,55,105
152,364,433,147,90,83,51,94
153,393,471,136,108,90,64,103
145,314,474,146,110,90,63,103
133,336,473,159,103,98,68,103
121,331,491,163,108,100,70,98
126,339,509,185,115,96,80,106
123,327,459,201,105,96,76,105
134,304,412,200,117,105,75,106
132,276,381,184,130,116,70,94
139,272,427,197,140,114,67,107
171,311,488,207,143,114,61,110
176,281,465,201,141,116,62,106
167,260,456,199,138,113,78,119
163,263,510,194,124,92,85,128
174,269,532,203,114,95,89,121
150,233,466,167,101,108,87,107
157,292,479,169,104,108,85,117
154,288,480,162,105,112,71,116
188,277,431,165,122,121,63,118
182,277,378,161,131,119,59,124
223,258,407,168,129,111,67,149
216,212,365,150,124,115,69,142
227,261,393,147,120,107,69,131
228,285,444,175,120,101,69,129
226,282,440,169,118,100,73,120
191,300,416,170,121,101,68,98
212,309,527,190,134,100,65,100
207,298,540,197,131,104,75,107
197,311,515,190,126,104,75,103
200,345,567,195,128,107,79,107
220,376,634,210,144,114,83,109
214,373,556,203,135,134,97,110
210,361,529,201,139,140,95,100
191,333,524,204,148,139,97,96
207,348,457,193,143,136,92,97
177,295,389,186,131,128,88,109
160,285,377,184,141,112,79,113
153,298,415,191,141,110,75,118
192,335,398,169,130,112,72,125
170,295,381,164,128,116,72,122
166,282,327,158,132,123,72,101
192,328,344,152,129,136,69,101
190,305,271,140,120,126,60,96
157,277,263,137,121,127,57,87
155,261,301,140,118,133,60,96
151,349,369,145,121,134,61,108
130,294,383,142,111,119,57,103
145,295,387,143,117,151,67,119
152,295,461,157,116,151,68,120
162,360,469,165,124,153,71,116
163,297,437,160,115,148,69,110
165,298,404,153,118,143,68,106
159,314,434,156,116,110,62,102
153,323,425,167,112,104,62,104
144,253,429,160,101,91,57,104
141,253,467,155,103,100,54,99
112,249,469,162,113,105,67,108
110,232,451,164,116,110,70,96
98,205,432,168,117,107,71,98
106,206,403,183,121,107,75,109
113,174,318,173,114,103,76,107
128,186,305,174,106,98,69,107
129,208,373,187,108,99,66,109
134,252,388,175,109,98,65,106
122,294,433,163,111,93,62,90
116,296,447,163,110,85,64,99
105,304,533,164,109,87,62,98
101,311,552,155,107,90,61,93
102,296,507,139,99,90,61,95
104,245,452,139,117,110,58,88
106,244,445,143,115,117,61,85
104,255,431,166,119,118,61,96
101,227,352,164,124,120,57,100
98,224,401,170,135,130,63,102
90,224,409,163,116,120,71,108
91,220,405,157,116,105,64,108
88,206,342,137,129,101,65,88
104,272,425,150,149,121,84,95
98,295,395,153,150,121,82,92
104,297,383,149,148,142,79,105
108,348,434,180,159,143,84,108
110,342,440,196,156,141,82,107
96,297,360,179,128,119,62,97
90,252,333,180,125,110,62,98
94,260,330,190,137,85,64,82
92,204,374,164,122,89,64,88
96,210,359,161,110,86,67,90
96,212,357,160,110,89,77,95
118,213,377,149,102,88,79,95
109,213,424,158,92,80,74,92
110,217,379,207,126,90,71,80
109,200,368,210,145,99,74,84
129,188,392,230,146,90,64,85
124,215,421,247,162,117,75,102
132,210,444,247,172,123,77,108
128,192,431,223,160,116,77,109
125,199,426,206,141,120,73,102
107,213,479,202,143,137,84,106
101,247,515,192,125,120,69,84
104,252,467,176,107,112,66,77
102,254,441,158,95,108,63,77
95,242,440,189,120,102,61,96
93,240,345,174,125,97,52,88
107,206,238,166,126,91,52,83
107,209,234,160,129,92,55,83
108,205,221,158,134,97,55,84
126,219,272,138,110,91,56,76
138,239,326,136,106,79,54,92
119,250,362,137,108,94,66,99
108,231,359,142,105,120,77,103
107,246,414,156,96,118,78,105
92,246,446,148,100,125,76,95
78,247,424,143,93,125,74,79
80,225,393,143,80,113,65,71
92,229,462,159,82,104,57,81
94,239,494,180,92,106,59,78
114,262,465,186,92,98,60,84
123,269,502,197,100,93,63,87
130,262,501,191,104,97,65,95
126,265,459,185,107,83,58,81
129,241,377,149,108,91,60,87
115,225,423,135,105,94,61,83
105,176,393,111,103,98,56,79
103,179,402,116,105,97,54,82
101,185,394,113,98,95,56,81
101,253,464,119,96,91,63,80
108,266,412,115,95,84,63,84
111,297,437,117,88,76,62,86
105,303,465,121,96,91,66,80
103,294,449,113,116,113,67,87
107,250,431,130,139,118,57,83
107,230,435,132,140,127,60,79
108,229,432,150,143,127,61,80
108,212,398,161,137,116,57,78
111,217,433,177,143,106,75,74
109,222,444,167,117,126,82,77
103,281,528,169,139,133,88,82
103,262,534,168,140,139,91,82
112,282,555,165,138,148,92,83
112,283,552,158,119,148,81,88
104,274,518,152,116,122,72,89
105,209,422,153,88,130,70,86
91,200,412,147,89,127,72,84
79,165,368,129,85,116,71,79
93,185,396,136,82,100,64,75
106,194,411,151,92,108,70,77
106,219,455,168,105,102,63,75
131,222,416,164,102,113,60,98
139,237,460,173,125,131,65,109
130,226,419,160,133,150,69,108
120,221,416,175,146,153,61,102
126,214,369,155,132,138,59,103
106,233,446,174,142,142,66,93
104,235,428,173,124,129,70,90
115,251,424,177,130,109,68,93
120,298,445,166,134,102,73,101
110,295,448,171,140,101,73,107
106,276,391,163,134,84,68,118
102,273,387,163,142,83,63,130
89,251,388,169,131,83,61,134
86,190,329,154,107,85,65,129
103,172,324,153,114,99,73,124
121,195,346,160,110,99,74,118
128,205,357,160,114,104,82,128
134,216,398,146,121,104,88,129
143,215,422,145,117,106,83,137
130,219,431,142,114,95,83,143
117,209,433,134,125,92,82,132
115,225,413,139,125,94,73,104
119,240,388,163,129,109,79,102
110,269,413,167,140,132,82,86
111,270,431,167,132,135,81,110
105,255,427,199,130,146,78,106
93,235,481,229,150,152,81,107
104,239,524,214,140,143,71,100
107,223,498,209,132,131,70,122
120,254,546,219,139,122,65,107
127,256,514,176,129,118,65,110
130,249,504,146,94,116,70,111
108,220,448,148,104,115,69,109
116,226,457,159,108,111,72,106
102,265,498,170,124,146,96,109
96,269,501,178,123,142,100,109
90,307,541,183,138,135,94,108
89,310,536,185,133,142,96,110
88,298,533,199,132,142,99,96
80,225,457,204,121,118,75,74
82,246,496,210,121,113,70,68
96,249,487,221,115,112,69,87
98,301,601,232,114,112,65,89
84,299,629,225,109,110,60,87
97,343,624,200,103,109,71,108
99,340,625,199,111,112,77,122
91,333,592,183,112,110,74,111
91,305,553,201,122,98,77,112
97,297,503,197,124,95,72,106
90,259,488,195,118,91,66,91
84,247,468,185,111,94,68,91
75,215,452,181,104,97,71,84
85,227,355,134,86,101,75,83
72,241,412,132,86,98,73,83
74,258,417,159,102,104,72,83
76,263,417,170,114,101,67,74
85,252,396,166,120,103,65,80
88,304,428,192,138,100,61,96
101,322,410,196,143,108,71,100
121,321,393,189,146,117,77,112
124,315,358,182,136,123,79,112
122,327,367,182,136,128,82,118
114,250,402,170,124,129,80,105
109,236,420,173,117,117,72,106
99,214,434,159,105,119,73,95
99,207,440,154,113,118,75,99
98,216,440,145,103,113,69,91
100,219,414,143,104,126,71,90
104,206,412,150,112,128,70,87
87,204,405,167,116,106,56,79
98,231,420,171,116,98,47,74
97,262,517,188,121,89,49,74
99,271,504,206,119,80,51,81
101,279,492,190,109,88,57,85
105,292,484,183,107,89,54,83
96,302,504,177,106,93,55,79
107,299,430,166,109,113,60,85
103,292,416,139,103,107,60,94
99,281,390,138,122,101,59,98
107,287,435,137,117,109,69,120
106,278,413,148,117,113,71,122
119,239,371,144,110,98,67,130
118,228,350,149,123,104,69,125
122,234,445,163,114,106,74,125
113,231,390,159,127,114,77,111
117,227,415,172,133,114,77,118
89,248,436,183,145,119,101,132
89,252,444,172,137,114,99,132
87,255,352,155,129,114,94,128
95,318,441,164,115,112,93,132
88,334,441,160,110,104,95,132
95,325,439,162,103,105,75,109
99,344,450,209,140,117,71,100
100,373,458,215,151,123,81,101
114,321,378,210,149,117,74,95
115,304,366,207,145,126,75,84
115,308,379,203,152,136,83,83
115,311,396,161,121,139,87,88
110,276,373,156,113,137,79,80
92,262,427,154,115,140,97,83
89,240,411,147,127,142,95,82
86,219,388,141,108,124,86,82
79,188,357,137,100,105,83,80
77,178,367,131,101,114,89,85
70,175,310,128,105,106,76,78
65,179,290,115,92,107,78,83
67,258,313,119,94,108,78,79
70,257,376,139,105,109,77,78
68,248,369,143,99,92,74,78
68,246,343,140,95,93,74,84
73,280,393,161,95,74,68,80
62,214,397,155,98,65,65,74
57,212,332,151,102,73,65,75
73,216,322,150,107,91,68,72
82,225,331,146,110,88,57,65
83,213,313,147,127,95,63,62
84,210,287,149,122,107,72,63
84,217,317,147,115,108,77,60
75,220,325,149,116,98,76,64
76,204,375,158,119,102,77,65
70,182,388,141,101,96,71,59
91,184,370,132,100,111,79,61
94,185,354,130,98,109,75,67
90,195,385,131,91,113,71,60
95,212,369,147,102,115,73,59
105,225,367,153,112,121,79,70
106,218,395,163,117,114,76,81
107,208,441,167,129,112,75,78
115,249,444,176,133,114,78,84
108,247,425,171,129,121,82,85
110,230,376,170,122,129,87,79
93,241,370,180,131,143,92,72
104,293,353,173,123,145,92,78
95,277,340,162,121,137,87,72
88,265,346,149,107,128,84,71
92,268,386,148,100,138,75,78
101,269,381,131,82,114,55,80
90,215,351,127,75,109,56,71
88,176,334,150,76,125,58,74
87,178,334,148,79,144,65,81
75,193,302,162,107,123,68,95
81,180,306,163,105,123,73,95
85,197,295,169,111,125,71,96
105,201,284,154,110,114,68,94
111,207,335,156,112,89,64,92
119,194,336,147,95,87,57,77
114,211,326,153,112,90,53,76
112,191,332,150,104,109,58,91
116,213,347,150,115,103,61,118
120,229,359,175,126,111,58,117
112,238,378,173,127,116,65,115
114,248,391,169,112,110,65,113
115,268,426,171,113,89,60,99
107,304,463,172,117,119,67,66
107,299,416,145,101,116,65,59
102,289,395,136,89,112,56,51
92,261,384,141,98,110,57,56
93,293,430,158,110,113,59,66
86,253,403,148,90,80,45,63
74,252,437,157,93,79,48,70
77,275,496,164,95,77,56,84
103,293,566,161,88,80,55,96
100,260,549,145,72,90,55,95
108,275,581,166,83,95,58,101
107,261,573,157,79,88,58,98
105,243,539,159,92,89,52,93
81,244,484,156,100,93,50,77
90,240,437,155,103,82,61,70
76,226,407,147,101,81,60,66
75,238,370,146,112,91,56,63
82,242,351,134,110,91,65,73
94,268,401,134,101,91,73,88
93,274,415,135,97,91,62,90
101,285,430,126,104,93,66,93
106,291,493,129,96,88,68,95
104,280,481,127,88,83,58,82
93,246,442,123,92,91,59,100
101,234,444,115,92,89,60,104
93,214,450,110,75,90,59,98
117,290,432,132,94,87,60,102
128,295,439,133,94,89,63,103
128,291,419,137,97,75,58,75
115,288,403,134,97,83,69,75
120,286,398,151,99,75,67,78
105,206,338,135,86,98,70,74
99,205,356,137,82,99,67,72
112,231,470,156,79,105,72,71
122,281,557,175,82,112,71,79
121,284,518,160,89,125,79,81
113,315,585,177,85,125,79,87
106,310,614,184,84,125,78,88
99,296,557,170,80,127,72,84
93,263,484,167,81,120,74,99
87,268,499,179,84,112,67,100
89,224,420,160,85,103,66,93
111,241,370,153,83,100,69,103
112,250,406,176,101,98,73,113
107,236,411,169,101,93,64,86
106,219,444,161,98,103,67,85
104,258,514,170,117,107,78,89
80,245,508,169,121,106,76,83
79,225,467,142,109,100,69,73
106,273,497,147,111,100,75,79
111,282,489,147,108,123,92,84
109,242,428,136,93,118,80,84
119,243,437,140,94,123,82,92
124,307,551,154,103,123,91,94
108,292,567,159,113,120,87,93
110,281,536,153,117,97,77,91
111,289,554,160,112,97,77,90
113,316,594,163,108,95,82,94
103,267,486,146,97,95,71,93
99,249,427,130,83,117,78,99
116,256,444,145,90,118,73,102
116,269,457,156,96,128,80,107
115,261,453,166,99,149,85,100
112,251,455,173,101,156,89,97
114,269,533,199,112,141,80,95
130,343,581,211,105,140,87,99
147,344,584,221,105,127,86,114
142,336,561,214,104,100,75,111
153,339,546,205,100,86,71,110
166,321,495,179,86,92,74,111
152,264,487,189,90,81,66,105
160,288,494,196,106,88,77,107
169,290,505,192,107,105,78,107
167,307,532,204,115,129,84,120
152,314,550,229,129,127,87,124
145,311,529,208,124,124,84,127
130,350,533,182,104,129,82,135
121,352,559,194,104,127,89,152
134,341,624,186,95,109,94,153
139,366,662,166,81,104,91,156
131,363,651,163,78,124,94,150
127,332,663,177,85,123,89,136
122,335,647,182,92,110,81,118
121,450,697,253,120,115,73,117
118,446,703,265,118,116,72,104
116,464,720,264,126,116,73,115
125,489,718,264,127,115,72,112
138,488,715,261,129,116,71,122
169,498,681,221,123,115,73,128
168,488,601,199,125,119,75,133
192,575,638,238,131,101,82,154
191,586,612,237,128,83,82,161
194,622,594,240,134,83,88,157
156,538,496,212,118,98,103,173
151,524,475,211,116,93,102,169
126,437,478,171,105,92,92,147
124,384,576,196,111,95,91,140
113,324,566,189,100,92,86,136
110,325,589,205,102,76,66,102
126,384,720,234,105,81,78,110
130,348,699,232,107,91,83,116
135,401,639,206,107,89,82,120
135,435,708,212,102,95,82,130
132,426,679,198,99,94,80,128
132,419,671,185,109,92,73,127
126,435,664,208,128,99,73,124
112,391,657,204,131,107,85,125
108,347,589,190,131,102,88,115
118,396,625,198,134,99,88,114
131,430,595,227,136,101,87,115
130,409,575,216,120,94,84,110
130,427,585,217,111,90,76,108
170,498,732,246,130,101,83,133
182,501,726,261,150,108,89,141
175,483,688,233,145,110,89,145
189,498,703,221,139,107,84,143
205,486,688,229,142,107,99,160
203,561,661,239,146,114,94,151
190,535,630,222,135,105,90,145
181,500,586,212,128,96,94,148
174,508,581,227,140,103,100,158
172,504,564,223,149,99,85,137
162,386,432,191,132,85,84,132
165,389,431,180,125,85,85,130
171,406,444,170,122,100,97,125
181,423,470,163,132,110,110,124
179,439,498,184,128,115,120,135
160,400,470,178,128,114,119,131
181,407,520,189,142,121,124,147
178,394,525,190,145,114,112,157
161,341,466,177,126,92,96,149
140,293,405,138,114,82,85,145
142,289,500,148,128,97,89,150
107,292,558,164,111,89,79,136
138,306,587,179,111,84,82,132
135,353,642,182,109,86,91,173
139,386,706,193,107,86,84,168
135,385,676,193,91,79,88,168
152,409,657,203,98,83,92,170
132,397,636,201,97,85,93,176
162,434,609,214,112,90,89,146
160,403,553,215,118,91,93,157
162,418,569,204,109,84,81,152
153,406,527,188,105,78,76,144
142,449,546,186,108,82,73,124
116,402,571,187,96,85,76,124
116,400,573,171,91,89,78,105
127,409,541,196,98,87,80,104
118,371,504,186,92,90,80,109
115,305,483,183,88,87,81,122
114,292,453,173,87,79,78,135
167,338,474,194,128,89,85,153
164,327,499,178,125,85,85,153
170,339,526,187,123,81,104,168
168,363,570,186,125,79,101,158
165,387,598,187,129,82,94,138
120,348,566,179,95,64,80,121
120,361,566,195,100,71,86,133
121,398,619,186,104,79,72,126
126,399,596,202,112,85,82,132
150,437,615,242,119,88,89,144
143,443,620,243,121,93,92,142
147,433,625,225,117,95,98,127
144,432,621,230,120,99,91,109
153,418,672,223,108,93,84,109
134,355,618,176,91,87,78,95
135,353,639,166,83,84,77,106
125,342,642,176,88,83,66,120
122,300,587,169,92,75,68,128
120,285,499,169,99,83,71,129
112,254,501,165,98,86,81,139
132,315,546,218,114,84,92,143
154,304,519,222,134,98,98,155
153,299,509,222,130,97,103,162
141,297,483,216,127,92,102,159
145,316,457,208,123,90,95,144
174,276,414,152,114,97,86,142
147,266,468,138,82,76,70,114
155,252,452,130,79,80,68,111
155,255,464,120,77,82,70,112
163,332,619,149,86,95,83,126
118,326,605,159,82,90,84,128
125,350,564,148,80,89,84,129
139,407,634,203,104,91,80,127
143,417,700,211,114,93,82,132
127,348,587,202,115,83,69,123
120,333,601,201,114,79,63,114
115,307,571,199,114,79,63,116
107,288,611,192,105,80,71,119
103,285,534,192,100,80,62,107
102,283,517,189,105,84,60,110
98,267,511,181,101,83,67,123
103,319,560,195,110,90,73,127
90,342,510,163,102,82,66,124
88,343,539,162,97,76,69,128
102,345,526,151,88,69,71,122
104,377,518,167,111,95,68,96
116,377,493,175,111,99,67,96
105,311,404,166,105,96,63,83
105,294,351,164,109,98,67,86
114,327,390,207,121,99,77,94
124,326,390,200,107,91,79,102
107,276,376,181,98,79,74,96
115,301,407,179,97,81,86,145
116,307,426,185,94,78,88,150
108,356,527,174,94,83,80,149
101,348,527,170,91,66,80,155
110,350,496,169,92,69,84,162
100,341,481,166,99,78,74,118
104,367,481,161,102,83,70,105
104,366,455,156,95,73,69,112
118,359,440,154,92,71,65,124
114,370,458,153,101,78,64,125
125,413,496,164,102,74,72,139
138,494,546,183,111,74,77,147
135,467,460,166,106,79,77,140
117,458,439,163,109,82,90,138
118,451,448,164,102,74,91,132
111,449,460,172,105,74,84,120
101,338,402,142,89,67,77,112
89,290,383,135,86,62,82,123
92,291,415,136,88,70,75,111
105,337,447,151,93,71,75,115
101,298,430,152,91,68,76,112
92,291,408,152,104,77,77,111
116,332,401,163,106,80,76,107
139,354,377,174,120,81,78,116
136,351,360,162,130,93,78,118
140,330,340,144,131,97,79,119
140,340,410,195,135,96,86,127
147,349,466,210,139,97,81,123
120,315,494,205,122,94,73,101
109,262,448,204,106,78,70,91
102,259,462,207,103,79,75,96
113,334,479,176,100,77,65,81
86,336,519,151,93,76,61,80
88,352,486,147,95,72,60,91
95,395,603,157,99,78,68,96
105,510,667,178,95,70,72,99
110,553,695,201,94,69,76,105
119,558,655,202,96,67,82,108
121,566,675,206,93,64,80,103
121,579,709,217,98,62,74,105
114,483,662,205,106,62,63,98
112,420,590,175,99,64,68,97
105,421,627,181,98,65,63,90
132,441,640,192,108,83,87,117
129,414,560,197,109,92,96,118
126,414,510,187,103,94,94,116
117,368,504,189,99,91,93,128
139,430,532,236,116,111,106,144
129,419,558,235,122,109,93,124
150,451,542,214,111,98,86,125
153,450,552,221,115,95,91,137
160,461,586,231,120,105,92,134
159,406,522,169,103,83,79,123
153,382,461,169,99,73,76,121
131,327,405,176,108,82,76,115
153,504,572,244,120,90,88,125
156,517,572,231,121,82,86,122
134,485,556,241,123,84,85,114
128,485,542,230,115,82,89,123
146,513,600,257,119,82,94,131
124,389,486,194,104,76,82,109
108,367,449,193,93,67,73,98
124,414,460,215,103,66,76,116
143,476,522,236,110,74,82,112
126,436,474,197,99,67,77,107
122,399,440,185,92,62,72,106
133,411,468,197,100,73,82,115
123,363,473,162,90,75,80,105
125,313,460,153,89,69,72,106
146,345,513,183,104,85,77,116
150,344,505,199,121,99,80,129
153,391,495,196,123,93,75,136
149,449,622,210,123,93,79,137
129,456,643,211,123,95,77,129
105,465,654,226,124,87,68,114
98,473,651,220,111,72,69,119
83,410,661,215,109,72,77,116
92,361,584,214,115,76,71,112
94,323,522,195,109,76,72,116
94,281,438,160,93,67,78,132
99,274,473,154,94,68,87,126
115,357,530,167,100,73,88,127
137,418,520,198,129,73,91,126
140,418,529,202,132,71,96,138
144,456,597,216,136,77,93,128
140,474,642,217,130,77,82,126
123,437,580,205,133,73,77,127
95,363,521,159,93,66,70,125
91,377,533,160,90,62,73,114
81,336,524,151,102,65,69,106
83,326,509,155,110,64,71,105
83,340,563,172,97,61,68,98
82,331,581,168,97,61,70,101
85,304,572,172,111,77,67,123
105,319,516,175,119,84,82,140
131,342,472,174,123,83,81,133
142,334,450,170,136,93,82,135
140,349,590,171,138,99,85,132
156,417,647,201,136,91,78,107
166,442,661,204,139,94,72,116
150,418,659,210,139,96,76,125
142,395,631,203,127,88,72,117
142,422,599,223,134,88,67,116
159,383,524,187,129,91,68,124
147,330,508,165,103,75,58,96
153,328,521,144,89,74,79,131
185,347,526,169,97,78,84,147
203,301,446,178,104,77,104,171
181,291,466,181,103,70,106,170
173,278,468,181,100,71,111,176
180,281,430,190,105,70,101,155
166,271,432,181,115,85,102,145
151,286,381,181,125,86,82,119
150,253,339,180,130,87,91,131
163,292,429,205,149,115,86,125
156,311,493,202,147,116,76,112
139,306,509,194,136,105,70,110
128,289,505,168,115,99,72,113
149,319,532,173,102,96,64,102
144,312,462,152,93,68,71,118
164,397,473,183,110,82,83,135
179,388,433,178,115,78,82,134
180,388,436,169,110,78,88,135
164,365,470,160,110,77,82,127
179,447,515,182,105,75,78,118
164,341,433,174,98,62,69,109
147,343,439,177,90,61,72,109
171,368,478,183,96,64,66,105
186,401,442,187,103,68,72,112
172,302,377,171,106,68,70,107
162,302,369,155,103,69,69,97
161,297,401,167,111,71,73,95
141,302,384,163,112,75,74,91
122,267,379,181,125,81,73,89
127,356,430,199,140,88,84,93
120,359,431,189,137,87,85,95
134,449,484,190,138,92,90,101
128,433,473,191,134,103,90,99
126,466,487,173,120,101,86,101
143,437,484,157,104,96,80,110
169,454,519,165,112,100,93,125
176,373,519,149,104,99,84,124
182,388,510,150,104,86,90,133
180,338,483,147,100,79,90,138
164,296,461,121,84,66,87,146
151,315,478,142,86,79,79,166
181,333,402,204,155,92,82,169
193,363,426,229,185,97,78,174
196,370,424,228,185,100,79,166
191,358,420,231,190,102,86,161
203,443,447,231,192,99,99,146
174,427,441,203,143,80,95,138
164,407,436,207,122,81,95,124
169,419,587,223,125,80,92,127
185,513,648,226,129,90,89,119
167,470,679,217,119,80,72,95
152,529,788,232,121,82,74,94
145,525,789,221,110,76,92,118
152,555,752,240,122,89,108,142
163,526,755,283,131,95,115,156
167,492,706,282,134,97,113,156
177,458,609,272,136,99,115,162
187,478,679,304,146,112,106,156
181,486,731,322,145,108,111,148
157,429,681,291,131,97,99,125
156,494,738,297,139,101,99,121
157,491,798,282,134,104,93,124
219,482,748,259,122,94,88,112
234,452,726,211,111,88,59,98
251,488,731,242,116,87,63,112
279,437,709,265,125,87,66,128
271,421,674,272,129,88,72,126
220,396,655,249,121,76,69,124
226,483,574,252,126,83,75,131
259,469,558,243,135,88,80,139
248,499,502,204,111,78,79,127
280,510,509,198,108,74,77,138
280,552,589,209,110,77,74,139
274,516,624,220,123,80,80,134
260,531,673,204,112,77,116,168
249,496,653,209,117,79,117,167
241,526,647,210,117,81,119,158
242,521,605,208,118,82,121,156
241,476,545,194,103,85,121,153
231,426,486,207,111,85,84,100
261,427,520,225,114,85,87,119
248,370,507,234,119,83,91,114
252,356,493,236,122,86,94,116
257,355,509,239,124,77,88,115
263,482,613,240,117,74,92,117
230,496,630,233,122,73,87,94
227,515,623,220,113,70,78,91
224,540,676,233,114,66,76,91
221,624,792,330,137,79,104,134
222,558,754,345,137,95,99,141
258,571,781,377,147,99,112,165
354,617,811,384,161,122,160,250
469,582,755,380,168,136,165,256
475,542,736,328,157,131,151,250
465,540,729,311,169,131,153,245
513,585,766,322,169,132,158,258
472,524,693,315,159,117,114,185
