44,145,451,220,65,92,59,49
45,143,459,226,61,88,57,40
47,150,439,172,62,89,55,37
48,143,401,159,61,84,47,36
49,134,360,144,58,82,51,45
48,131,384,145,60,84,49,44
46,134,387,158,74,97,62,44
52,133,369,159,74,92,62,47
52,143,372,154,77,95,68,48
49,137,360,155,75,93,64,37
54,136,326,152,79,95,62,40
57,132,275,138,69,83,49,38
53,127,331,157,72,82,50,35
49,98,316,161,69,72,46,34
55,128,329,165,95,90,66,51
47,126,322,161,88,80,65,50
46,143,354,159,91,83,70,50
47,142,325,147,87,85,70,54
47,144,325,141,83,87,68,54
49,121,328,147,67,83,54,43
52,119,347,162,81,104,58,41
49,101,339,161,78,98,56,42
44,92,309,148,78,96,59,36
51,142,390,163,85,99,63,36
45,142,367,164,77,95,61,33
44,141,346,147,72,85,60,35
44,140,364,171,72,86,63,35
49,147,394,174,79,91,62,36
43,95,304,168,79,95,57,37
45,106,350,169,77,93,55,36
47,133,433,193,75,92,58,34
48,132,414,170,78,92,54,43
50,147,425,194,72,86,51,44
52,151,440,194,69,82,53,43
52,155,446,190,69,85,56,44
56,157,412,185,67,85,55,46
53,156,404,182,63,94,56,40
53,149,408,168,63,99,58,38
50,150,410,160,61,98,58,37
58,167,406,160,60,93,60,53
52,145,396,148,69,91,57,52
53,148,435,148,71,90,58,57
56,144,441,138,76,96,63,59
60,139,428,153,80,100,83,60
55,115,412,170,77,101,95,51
54,129,426,169,69,94,101,51
59,163,472,206,77,97,106,48
55,172,461,217,86,94,102,45
54,179,519,228,93,110,86,43
57,189,536,231,97,113,85,51
61,192,512,237,106,136,96,56
57,177,467,225,97,132,95,54
54,189,458,213,100,149,97,54
49,192,477,186,100,139,103,55
57,194,463,186,97,137,100,49
61,191,482,182,93,119,85,43
59,188,491,176,92,115,82,49
62,168,490,186,78,83,82,49
63,160,413,185,77,90,73,49
51,144,410,167,76,89,65,46
44,138,428,175,71,93,66,45
44,124,377,168,71,94,64,41
50,139,418,180,80,109,71,43
54,139,409,181,70,97,73,45
57,154,415,197,77,105,67,42
55,146,345,174,75,98,64,40
58,174,394,214,77,104,66,42
52,171,370,202,72,92,60,42
50,184,408,209,69,94,58,39
45,169,392,195,62,84,60,40
46,177,437,196,70,91,62,41
47,163,431,155,69,118,58,39
48,156,421,154,69,121,56,38
52,174,440,154,88,136,73,51
58,174,495,175,91,138,74,52
58,178,501,179,98,147,76,54
53,173,502,177,103,131,96,54
64,198,533,189,114,148,101,65
72,238,518,198,108,136,104,57
69,239,496,199,114,146,115,70
75,265,542,261,132,172,138,79
86,272,635,279,149,190,184,105
82,268,654,281,145,183,191,107
96,333,756,365,158,218,191,110
96,343,756,364,162,224,188,101
94,326,736,347,147,204,181,97
94,338,661,349,129,189,135,76
92,335,661,347,128,184,134,70
68,217,538,244,116,148,128,69
67,206,513,238,112,143,127,72
65,215,474,207,112,141,116,68
62,213,488,212,111,144,104,57
62,199,431,214,110,147,90,53
62,198,427,246,111,156,87,48
62,199,461,244,106,149,80,45
64,184,477,248,98,144,77,48
51,153,448,243,103,147,80,55
53,155,442,259,106,156,78,56
64,196,508,264,99,153,74,54
61,185,481,262,100,153,79,56
66,230,507,271,109,155,88,58
69,241,528,267,102,143,88,54
64,261,577,244,98,128,87,70
54,265,560,229,97,113,88,70
55,270,551,226,96,109,94,67
49,230,497,207,83,101,83,64
46,215,474,205,83,103,77,65
47,189,402,194,75,101,79,41
53,178,355,164,70,94,82,47
58,174,364,174,64,91,73,48
57,191,402,180,71,94,76,48
58,196,380,154,68,86,78,51
57,198,388,162,72,90,82,51
57,178,416,179,72,93,81,42
52,172,401,172,69,87,82,43
53,164,384,171,65,84,79,41
61,182,496,212,77,98,79,37
62,173,495,212,73,94,79,42
57,154,463,212,78,99,71,46
58,157,470,218,83,102,69,47
55,141,476,216,83,101,71,47
47,119,364,179,72,89,64,60
49,128,419,203,80,93,52,59
45,123,404,192,83,104,54,58
47,134,410,196,80,103,55,57
50,138,425,219,81,109,54,57
52,130,422,246,82,112,57,43
53,141,374,231,80,112,57,43
55,139,427,249,72,102,58,53
54,132,421,230,70,99,60,58
54,128,389,204,75,104,66,60
51,126,425,181,86,118,72,62
54,108,432,164,84,124,85,74
56,113,366,135,85,125,87,66
56,122,396,179,105,146,96,64
55,145,456,186,108,152,94,72
57,178,467,213,112,161,101,74
51,189,474,225,122,170,92,63
63,195,498,253,131,188,91,72
61,191,510,232,118,172,87,75
62,183,488,232,112,160,86,65
64,162,473,223,103,147,79,65
68,173,510,249,92,130,87,68
56,163,486,215,74,92,88,60
58,161,476,225,73,90,82,56
61,161,485,240,87,118,82,56
60,152,481,216,89,112,76,53
55,128,482,192,92,119,67,58
57,136,517,213,108,146,70,58
62,148,503,202,113,152,76,60
57,144,498,191,101,132,74,59
52,141,508,211,101,138,86,56
58,159,496,215,103,140,87,47
57,161,502,232,93,120,78,58
53,154,568,248,90,117,76,56
54,159,549,237,93,125,84,56
61,174,573,229,93,127,73,55
55,163,543,209,99,131,77,53
50,159,543,175,98,129,82,38
53,167,465,164,95,127,91,48
54,173,503,187,102,141,92,51
63,183,466,199,104,140,95,53
65,174,486,223,96,135,91,56
71,189,474,221,94,133,100,60
71,178,480,245,97,135,100,55
72,184,485,230,90,115,93,54
68,184,497,219,83,104,91,68
69,193,510,201,79,94,94,65
66,179,498,221,76,93,87,63
60,174,526,197,74,92,77,60
71,168,553,244,71,95,73,62
63,154,556,252,78,110,75,41
64,149,547,267,78,116,79,56
63,178,553,258,85,121,75,55
67,188,532,250,87,122,73,56
55,200,565,252,88,124,76,53
70,221,550,260,89,123,73,53
66,228,549,246,102,133,73,41
66,208,535,245,100,135,82,54
71,238,581,248,101,135,85,56
76,267,543,222,110,141,93,59
68,244,517,200,105,136,95,59
73,271,525,238,143,133,89,66
73,269,519,245,199,135,82,58
70,249,487,263,209,138,98,71
69,206,394,254,204,130,95,70
64,207,412,244,206,130,98,77
61,155,372,198,185,130,101,70
59,158,438,189,131,124,101,66
63,182,511,183,119,130,89,59
55,169,510,165,118,133,85,56
63,223,600,214,119,135,80,52
61,231,594,228,100,120,78,50
75,272,579,245,85,115,84,57
71,259,526,247,87,116,79,49
78,271,565,251,89,104,76,50
74,235,475,222,80,98,73,50
77,236,522,239,81,98,68,59
66,195,495,221,88,111,63,55
62,179,466,208,78,99,60,55
57,183,485,203,89,125,61,54
53,181,532,205,90,123,60,51
49,193,537,178,94,127,58,43
52,195,526,169,90,123,48,42
53,192,516,172,95,130,58,43
55,176,472,175,93,122,65,58
55,167,416,165,92,123,65,60
60,154,406,158,88,117,66,60
56,147,437,180,84,109,67,59
60,172,445,166,74,93,58,61
56,176,459,191,60,78,53,44
65,201,504,241,66,77,54,41
64,198,455,256,72,98,62,43
66,189,462,249,77,105,61,44
64,189,451,241,78,110,64,53
63,188,505,239,91,121,73,54
57,158,457,193,86,117,72,52
58,183,469,176,84,114,72,51
55,204,492,184,79,109,76,51
59,193,533,204,80,109,74,39
61,183,447,181,60,93,68,42
72,216,475,186,69,102,70,45
67,192,465,196,73,90,66,41
65,192,472,195,76,97,63,38
64,204,465,188,74,90,66,35
63,210,505,193,81,94,62,47
54,188,501,180,83,97,65,47
57,186,512,179,75,97,63,49
56,167,466,168,85,105,63,49
58,183,489,172,92,108,66,50
64,183,470,184,89,113,72,46
59,171,431,200,91,118,69,44
61,169,401,185,92,116,72,45
63,168,397,182,80,104,70,45
56,122,318,177,84,114,73,43
59,154,312,181,86,107,69,40
72,190,365,183,76,101,68,46
72,193,424,204,80,112,65,44
73,205,417,206,92,120,69,48
75,202,421,192,84,111,65,51
67,183,480,183,80,111,67,47
51,143,485,180,81,104,66,39
52,161,491,195,89,105,69,43
51,146,500,196,78,99,68,38
49,146,486,213,77,102,63,34
53,170,453,217,89,110,61,38
55,187,437,215,105,138,79,39
57,167,381,180,96,127,77,36
56,168,416,190,103,141,81,37
56,179,433,179,106,138,84,40
52,162,416,161,98,133,82,34
57,160,398,146,79,106,69,35
51,171,431,148,76,106,65,34
60,189,415,172,71,101,64,37
62,183,403,178,64,99,58,34
60,166,424,188,58,95,54,34
53,144,398,186,64,98,51,35
52,132,391,191,67,96,51,37
46,117,420,170,68,85,51,34
42,117,446,155,69,82,56,38
45,127,468,150,70,88,56,41
47,146,538,176,70,86,56,41
45,147,527,169,79,99,66,42
42,135,515,156,74,91,59,40
44,130,504,163,75,98,58,38
47,129,451,176,76,98,57,36
52,124,386,164,89,104,66,34
56,140,396,174,87,101,60,32
57,157,432,193,84,104,60,33
63,169,437,213,84,111,56,36
63,171,452,240,89,115,62,37
60,171,484,253,74,111,56,38
61,188,521,282,66,107,54,37
59,179,459,276,77,114,64,43
56,181,450,276,78,111,67,40
60,183,472,273,85,120,63,40
61,188,450,268,85,119,63,39
56,156,409,228,93,123,62,41
61,163,429,229,86,116,54,36
55,144,444,213,88,112,57,34
51,167,499,194,82,103,57,44
50,158,479,173,86,112,57,46
54,171,509,190,77,103,58,47
48,159,484,173,76,98,55,47
50,165,471,183,73,105,53,48
57,160,388,184,75,107,57,46
54,166,412,183,66,94,54,44
51,154,357,196,67,102,53,43
60,190,397,204,83,125,59,45
65,211,398,189,94,133,70,45
57,201,391,178,93,132,70,36
57,205,391,184,95,134,75,36
58,215,400,147,105,138,77,36
54,191,433,162,96,124,73,33
52,194,445,189,106,125,69,31
62,212,449,187,107,127,64,35
61,210,525,191,106,128,62,33
62,217,509,199,104,132,65,34
60,211,468,180,102,132,65,34
60,191,484,171,78,115,57,35
52,180,497,161,72,105,59,31
54,172,403,150,75,104,56,34
52,152,428,158,67,87,49,33
57,191,478,184,70,78,53,34
56,185,458,170,72,89,55,32
55,177,462,196,82,114,60,31
63,182,491,222,79,114,62,37
64,185,467,208,79,114,62,40
56,137,397,185,75,119,59,37
57,169,418,197,76,119,59,38
56,156,389,183,66,103,52,37
50,158,373,154,66,109,50,30
49,154,385,161,65,110,51,27
48,162,412,183,65,103,50,27
46,133,412,183,65,99,47,27
42,143,434,176,75,103,54,28
42,139,439,190,73,100,55,28
42,144,437,190,72,97,52,28
44,165,413,183,73,99,53,29
53,165,379,166,73,97,55,38
56,166,350,168,63,86,55,39
53,161,410,159,64,77,54,40
55,176,426,162,72,93,59,41
61,168,440,172,74,99,61,43
53,172,425,185,67,94,57,37
58,189,449,191,64,94,60,39
57,195,433,187,65,98,65,40
55,183,432,187,56,84,60,38
50,170,428,163,55,78,61,34
49,166,466,156,56,82,63,31
47,162,491,161,59,89,59,29
45,152,443,153,63,90,53,27
48,155,459,155,67,100,54,29
52,175,474,163,67,99,49,29
54,173,450,168,67,95,45,32
56,216,485,166,69,96,47,31
65,233,525,202,67,103,53,37
63,226,493,196,63,93,58,37
58,209,454,191,64,101,58,39
59,222,491,193,64,109,59,39
54,172,422,176,63,103,56,38
45,156,369,150,59,95,51,31
47,157,389,156,61,97,44,33
49,168,453,157,69,104,52,36
43,149,416,145,73,104,53,33
49,146,390,172,70,104,54,34
53,162,383,165,78,109,55,36
54,165,410,165,82,121,57,37
56,158,351,173,92,131,66,35
58,159,346,184,91,131,66,35
60,153,381,172,94,142,66,39
56,147,391,183,92,141,68,39
55,145,336,179,88,132,87,45
50,151,328,172,69,111,91,52
50,149,326,161,69,109,97,62
44,150,298,145,62,92,94,62
46,138,365,147,62,93,93,62
55,152,363,195,71,104,97,64
58,171,442,207,89,124,95,59
63,192,513,223,87,121,94,53
60,183,519,232,93,134,109,51
64,198,473,221,93,128,116,47
58,197,483,179,83,116,102,40
57,185,471,169,71,109,97,38
53,168,399,166,76,122,102,33
52,166,389,160,73,118,87,32
46,146,418,184,73,123,80,38
44,137,459,198,77,125,79,39
43,136,441,194,70,116,77,40
41,138,456,182,67,110,70,38
45,160,483,203,68,102,73,37
53,184,506,200,68,99,72,39
52,179,460,189,66,102,82,35
51,173,470,201,69,112,84,37
55,183,490,202,68,104,82,38
54,165,460,193,67,113,80,37
45,132,404,188,64,114,78,33
50,142,433,189,64,114,66,35
50,139,390,177,61,103,63,39
46,129,371,173,64,101,63,39
52,164,445,196,70,93,70,45
52,176,495,191,69,89,76,46
50,174,501,220,66,83,76,44
50,174,512,234,67,90,71,40
58,182,501,267,72,105,71,41
55,182,497,271,69,111,72,35
54,169,470,268,68,108,68,31
62,186,530,269,91,128,78,35
62,188,539,266,89,123,79,36
57,173,544,239,83,119,76,36
57,143,483,208,77,106,70,38
57,161,499,222,77,106,70,39
52,156,443,210,57,85,60,38
50,159,454,199,63,93,65,36
48,174,433,191,60,83,67,36
45,172,437,188,64,87,68,35
55,191,436,199,72,103,69,40
56,178,402,177,66,96,79,46
65,195,395,207,60,99,76,46
65,183,393,215,62,106,80,46
65,192,392,224,67,120,78,45
57,166,348,199,63,110,74,41
50,155,340,193,63,110,62,34
41,128,330,164,61,101,59,32
41,123,336,152,60,89,50,33
44,126,338,131,54,70,51,36
45,110,388,146,52,76,57,35
50,154,449,160,54,108,57,39
48,153,462,167,58,118,57,39
47,152,462,165,57,121,55,36
45,141,480,181,62,126,52,34
43,157,455,170,63,120,45,36
36,125,440,177,65,95,42,29
45,142,438,176,66,84,44,31
55,173,496,204,70,83,48,33
59,179,474,197,68,78,53,38
59,167,453,191,69,75,62,38
64,202,466,190,68,78,65,39
59,190,467,194,62,72,63,38
56,179,409,187,62,82,67,40
54,175,415,186,58,86,75,40
55,175,439,211,54,86,69,41
48,123,375,201,48,80,71,41
48,121,322,186,501,83,73,41
44,125,391,164,602,88,74,37
44,126,397,166,641,85,64,37
42,126,379,139,646,86,69,34
43,149,437,153,649,95,66,36
47,156,495,157,418,99,65,38
51,147,485,209,257,111,65,40
49,144,480,210,136,110,65,37
51,141,458,211,112,115,61,40
54,145,446,202,99,108,60,41
54,142,400,214,89,103,62,42
48,135,329,163,57,70,52,39
48,134,325,153,58,70,53,38
46,130,336,143,53,59,46,34
44,113,349,165,56,65,52,33
40,109,351,147,57,69,56,32
45,114,360,166,58,74,58,34
47,130,381,176,52,70,60,38
55,139,422,194,56,72,61,45
55,134,410,204,53,67,66,47
60,143,399,222,56,64,68,47
66,160,438,242,73,92,78,52
71,167,450,244,78,96,81,51
68,166,441,247,77,99,89,50
72,183,464,275,85,107,92,57
71,186,541,282,94,117,95,66
71,178,525,271,101,118,115,66
66,166,523,264,110,133,118,70
66,178,569,274,115,137,120,68
84,227,630,320,143,136,136,74
86,238,629,324,489,132,134,72
82,236,605,309,620,115,118,69
85,245,649,333,651,150,147,74
84,241,633,331,658,156,150,76
64,186,579,262,658,171,139,66
56,161,537,246,464,175,138,60
61,164,579,264,260,174,137,64
55,143,530,240,167,139,108,54
54,155,517,230,137,126,106,52
58,159,506,212,114,109,100,52
63,163,483,222,111,106,104,52
59,161,452,217,114,111,101,46
60,195,445,214,108,101,96,49
62,187,442,224,112,112,91,55
59,188,504,232,114,111,87,51
55,181,528,209,108,103,79,53
54,186,594,219,111,105,78,52
52,159,587,219,110,103,82,50
48,153,605,221,109,96,88,47
44,155,549,202,121,109,88,48
50,174,538,218,150,112,90,51
55,194,531,259,175,124,102,57
66,223,566,286,192,149,110,60
66,221,522,272,207,149,111,56
68,221,549,283,246,148,122,58
64,210,567,288,233,147,123,60
69,206,577,280,234,156,117,58
62,186,600,297,222,134,109,55
64,188,631,317,217,146,98,56
66,200,587,315,164,139,88,57
65,205,581,300,159,139,97,55
60,179,533,280,134,114,97,66
58,175,555,237,137,114,96,76
65,209,580,208,125,102,95,81
61,191,574,208,121,95,102,81
61,190,583,215,130,104,104,80
59,197,572,187,124,107,103,73
60,213,502,182,148,122,103,65
54,186,505,192,143,121,108,58
61,199,524,189,144,120,96,63
67,203,513,208,151,123,82,65
65,201,499,228,156,123,80,60
61,167,486,229,132,107,82,59
64,174,450,238,139,113,75,58
55,148,408,228,143,118,82,47
56,155,442,242,153,128,90,55
59,158,440,220,152,128,93,58
59,163,458,215,155,129,84,57
55,157,532,195,150,123,89,60
61,164,548,200,146,119,89,65
57,146,532,176,120,94,98,61
63,171,649,226,127,103,97,66
67,171,631,220,119,97,110,69
68,158,536,219,117,97,114,69
63,169,588,247,133,111,122,66
61,172,556,234,131,111,112,60
48,135,405,179,110,94,111,52
47,127,388,180,110,97,115,64
42,128,381,183,112,98,131,64
59,163,353,240,111,412,132,77
60,158,380,241,129,486,140,79
63,155,442,247,141,487,144,80
60,158,465,252,146,489,135,68
62,162,462,246,145,493,116,67
50,114,447,152,129,286,123,54
50,131,474,158,112,130,113,51
48,178,525,156,108,132,109,51
46,183,552,161,105,124,105,51
46,205,571,166,104,106,101,49
45,205,549,165,104,99,79,51
44,197,503,161,106,96,102,55
49,184,422,195,100,85,98,56
50,183,381,187,106,93,105,58
50,164,378,197,110,93,106,58
47,172,369,202,109,89,106,54
60,229,379,202,109,89,79,62
57,216,385,185,123,104,109,66
62,220,368,192,113,95,107,65
61,218,338,183,104,90,112,65
60,203,322,175,106,90,110,65
49,143,320,185,119,99,114,54
47,136,320,165,104,85,89,45
46,138,332,166,107,87,82,46
49,148,378,198,114,93,68,46
51,159,386,201,114,91,76,48
49,149,384,184,95,79,77,48
53,167,375,194,119,101,77,49
54,165,396,196,116,100,79,47
51,151,381,175,119,100,82,51
49,142,392,166,111,100,75,50
56,159,408,172,111,101,70,57
55,148,380,168,84,78,61,57
51,141,371,152,86,78,58,55
50,140,386,150,73,74,55,51
50,140,375,161,75,69,53,49
47,135,351,151,86,76,59,40
42,122,349,146,81,70,62,42
48,143,348,158,79,68,72,46
47,144,337,166,82,63,75,46
51,164,373,169,85,61,76,48
55,182,373,193,107,80,71,58
59,183,369,196,120,87,70,57
53,161,373,185,120,88,60,54
52,158,348,161,119,89,53,55
49,150,315,164,124,97,52,52
39,120,340,157,103,83,57,39
31,113,383,157,92,78,59,34
39,123,366,171,100,83,72,49
43,126,366,187,115,98,71,52
46,139,380,198,116,99,75,55
47,148,364,185,118,98,68,55
50,149,344,188,119,98,67,57
47,148,338,191,113,92,61,54
46,141,336,176,97,77,75,54
52,144,367,157,126,97,72,52
50,131,343,151,120,92,75,62
47,132,320,145,122,99,81,60
50,133,331,140,121,98,81,58
59,173,387,167,121,96,75,59
52,151,336,163,90,78,78,59
53,155,378,168,98,82,96,51
56,164,410,170,111,88,93,58
60,191,511,205,142,119,101,56
54,165,486,186,150,125,96,56
58,164,492,194,151,125,96,56
59,161,456,191,143,120,98,53
60,160,448,205,155,131,97,47
56,124,389,174,131,111,87,45
53,112,387,184,127,109,92,42
54,110,377,176,126,108,93,60
56,111,411,179,128,109,80,63
54,120,432,167,98,84,77,63
50,117,383,156,89,74,72,63
50,117,354,148,81,69,66,61
42,113,353,135,77,61,60,45
40,104,344,134,86,69,56,48
42,94,291,137,92,77,58,49
47,99,279,129,99,81,67,50
47,94,277,121,98,79,66,50
50,99,302,146,104,84,65,51
48,105,303,159,100,83,60,43
44,88,294,147,95,78,52,42
42,97,321,141,91,75,43,43
44,112,345,147,93,76,52,38
40,108,329,130,79,69,57,34
42,101,317,138,81,69,53,39
41,102,332,145,73,62,53,42
40,95,321,157,77,64,52,39
40,100,331,175,85,67,49,40
40,102,335,179,89,69,41,50
38,102,327,168,95,74,45,46
43,106,406,181,112,90,56,49
42,111,408,195,106,87,55,51
40,99,402,203,108,91,54,53
41,122,411,206,110,92,56,44
42,125,409,197,99,84,53,45
38,127,311,181,81,68,47,41
36,117,337,174,93,79,53,38
38,117,330,157,86,74,51,40
35,94,326,158,92,79,51,36
34,90,326,162,97,82,54,37
34,83,334,165,101,84,52,33
40,91,271,151,91,72,53,38
41,87,257,135,98,77,53,34
47,97,274,137,87,71,54,38
52,127,295,142,83,65,48,39
53,138,288,132,88,72,56,43
64,240,326,137,101,81,53,44
65,255,309,142,105,88,57,49
65,258,276,131,108,89,56,50
63,253,264,160,121,103,60,50
68,268,334,208,125,106,61,48
63,234,422,233,124,111,71,51
65,240,520,264,124,110,74,52
68,303,594,299,151,134,82,57
84,389,745,340,213,176,106,63
84,392,779,352,221,183,111,66
85,390,770,362,231,187,153,76
90,403,753,357,236,192,163,80
95,396,781,344,247,200,195,94
84,318,652,293,191,157,192,92
86,310,645,273,192,155,201,93
82,296,640,251,191,158,188,87
79,278,602,249,196,159,183,80
73,230,521,262,159,128,151,62
73,221,509,259,163,131,150,66
69,208,436,237,162,135,134,71
66,181,383,232,156,124,104,65
59,155,391,207,142,113,100,66
51,131,370,167,152,121,102,69
50,192,415,197,194,150,94,67
55,245,489,261,195,152,98,56
60,260,493,263,190,151,106,59
85,331,523,286,226,175,129,76
103,356,575,396,266,200,151,91
110,386,693,436,251,190,187,95
141,477,783,526,258,198,194,111
147,519,800,547,266,206,209,114
136,497,860,564,269,216,206,105
144,549,888,539,268,223,212,91
142,516,809,545,261,218,183,91
113,424,709,435,293,246,200,79
118,405,726,431,307,252,185,82
128,413,682,433,281,231,184,83
107,337,625,375,253,208,169,82
113,361,671,334,251,208,166,78
109,363,734,348,192,156,134,72
98,322,682,318,216,182,146,66
87,305,675,282,221,185,153,63
85,291,687,293,216,179,147,64
72,252,661,259,211,175,151,68
75,242,598,250,216,180,177,81
72,237,647,278,197,164,173,80
81,285,710,329,192,160,159,83
83,284,730,342,202,171,158,85
82,294,696,340,216,182,160,80
82,290,675,328,215,180,148,66
77,287,643,302,187,161,149,68
68,242,592,241,194,166,156,77
77,266,596,253,180,150,152,80
77,257,617,258,160,134,147,79
77,259,643,253,175,138,132,84
83,270,649,258,185,139,132,83
85,262,640,284,190,141,120,78
74,231,573,255,185,141,118,70
89,284,594,308,203,152,140,86
85,270,550,315,184,142,136,82
86,281,601,373,195,154,139,88
82,273,548,350,173,137,150,90
100,327,621,405,176,139,146,98
91,287,582,371,196,160,128,84
97,315,592,357,205,168,143,83
92,291,515,294,189,157,180,89
87,282,515,285,206,171,176,85
69,238,428,187,222,187,184,74
63,232,459,167,192,162,185,73
59,202,471,223,195,171,188,72
64,209,482,220,187,166,141,60
67,226,507,257,188,163,136,54
67,210,487,258,169,147,155,66
80,207,486,300,212,183,163,70
86,219,539,296,197,165,149,72
93,247,596,340,199,166,150,70
94,259,613,336,202,170,156,69
95,264,656,341,199,166,135,64
85,275,636,333,147,119,121,60
87,276,620,361,157,128,122,67
72,249,563,318,152,119,117,61
71,224,510,302,126,97,104,60
70,237,500,293,130,101,118,64
82,236,558,315,142,122,133,68
72,212,482,254,143,120,132,59
73,211,484,250,139,120,132,62
71,222,507,256,145,121,153,73
69,194,495,266,144,120,148,78
54,200,445,204,139,104,145,80
51,219,511,207,145,105,142,88
50,221,522,220,147,108,142,91
56,223,501,217,137,102,127,87
59,233,488,208,131,99,111,75
65,221,470,207,126,97,94,75
63,217,503,216,123,102,98,63
68,218,489,231,131,107,101,63
62,201,494,217,133,108,88,66
59,214,516,218,141,114,86,64
58,238,510,213,172,142,88,62
66,251,481,211,170,140,96,73
66,266,539,188,186,153,102,71
74,276,567,205,190,157,114,64
76,259,536,234,189,156,121,64
77,234,573,253,179,146,119,61
75,224,564,253,178,145,107,55
76,213,577,257,172,134,98,62
71,203,599,274,174,136,92,61
69,205,637,244,173,134,113,67
63,214,599,220,159,127,126,74
61,196,556,216,157,127,128,72
62,182,478,210,163,137,138,76
64,197,428,184,162,140,135,76
68,228,442,186,173,151,113,95
72,205,428,202,183,156,109,97
68,203,434,194,185,158,118,95
67,225,464,207,177,154,121,91
66,216,523,226,178,151,121,95
63,193,486,237,160,135,123,72
56,200,508,234,148,120,113,62
61,202,519,241,145,118,108,98
70,189,497,238,133,109,93,94
67,178,445,216,121,99,91,90
69,186,494,211,120,102,87,92
70,182,446,199,111,101,86,95
71,184,436,214,109,96,82,58
56,177,468,201,110,93,81,57
60,200,440,201,114,95,87,58
63,196,384,240,128,102,91,52
63,191,392,241,132,101,115,59
62,195,388,229,124,95,106,60
67,211,420,279,176,138,124,79
60,183,425,279,173,134,120,78
55,170,441,259,170,131,119,84
59,182,569,327,184,142,120,79
55,167,571,325,184,143,121,82
62,222,653,325,140,102,116,70
67,234,647,330,145,109,131,73
66,227,628,315,142,105,134,72
62,225,581,246,124,93,120,70
69,242,600,252,135,99,129,66
58,183,509,230,161,124,125,60
55,181,542,226,187,143,107,57
54,195,589,265,191,146,123,64
56,190,533,269,200,157,118,64
98,357,610,290,212,166,123,71
103,375,605,266,199,156,123,78
108,377,570,258,173,137,129,79
108,370,531,224,171,137,109,77
108,379,555,220,153,120,112,80
71,243,488,197,180,133,105,108
67,207,458,195,174,129,109,106
62,201,468,194,177,130,118,107
65,213,461,186,177,131,121,103
69,215,499,189,182,136,116,104
64,180,464,169,136,106,110,70
60,175,432,167,126,96,102,63
63,167,452,178,138,104,103,70
65,161,464,194,142,106,111,75
64,137,423,192,142,104,113,70
63,149,472,210,137,105,120,70
66,157,551,223,130,104,120,79
62,161,551,223,116,94,107,74
57,146,521,203,108,88,90,68
60,174,543,241,95,79,94,78
63,177,524,253,112,90,83,76
64,200,493,240,119,96,79,68
63,190,479,242,117,95,73,64
66,199,477,246,130,106,74,66
59,170,439,203,144,116,81,58
55,155,408,187,142,117,96,86
57,147,431,209,146,114,101,89
59,169,475,212,150,118,111,97
58,193,522,231,149,116,117,114
59,199,539,248,144,109,109,124
82,215,603,355,145,110,116,115
103,214,592,351,137,107,130,127
109,209,578,353,143,117,151,127
108,189,557,351,141,111,176,127
108,191,540,354,144,117,181,120
101,194,490,243,152,121,178,116
78,173,464,242,156,122,164,118
71,160,420,240,156,118,145,114
70,161,451,245,147,116,113,103
68,157,452,221,140,110,111,99
56,160,444,219,119,95,104,100
56,155,417,201,112,88,101,77
56,181,443,192,100,78,92,77
52,177,450,208,114,89,87,84
56,208,433,224,118,94,92,87
61,205,419,241,153,122,90,90
62,208,442,260,161,134,95,91
71,217,436,260,176,141,101,92
76,237,386,229,168,136,100,78
84,240,442,239,170,139,86,78
82,235,438,215,141,116,84,68
87,247,428,215,154,120,107,75
77,225,406,201,136,108,105,69
79,222,453,231,143,110,115,69
70,202,445,232,141,104,117,63
76,231,489,252,147,108,113,65
76,240,538,245,137,108,101,60
82,247,560,268,149,123,100,94
77,226,525,244,141,117,88,91
79,225,476,226,145,121,86,91
69,183,433,211,139,121,85,91
61,159,375,215,154,126,83,90
58,153,367,216,147,117,83,58
59,160,397,238,148,121,79,58
51,141,410,231,141,115,77,60
66,174,424,225,144,113,82,78
63,167,420,213,118,100,76,75
61,177,494,225,115,98,88,77
63,174,510,209,112,94,105,80
70,191,544,236,128,104,110,85
59,170,532,233,122,101,107,85
67,187,533,234,121,96,113,108
64,169,466,200,123,96,106,107
73,207,470,192,127,103,92,109
72,197,444,151,110,90,89,104
72,198,453,164,124,102,98,90
68,183,450,162,123,98,91,57
70,183,457,153,126,103,91,59
74,229,498,245,133,102,99,53
77,228,471,249,137,103,98,57
79,232,492,250,138,108,92,57
79,239,509,268,133,106,95,85
82,249,510,277,127,102,97,90
69,160,416,193,115,95,89,93
71,170,439,195,132,111,106,90
71,184,520,197,134,106,116,94
72,177,502,173,132,103,110,74
65,168,508,186,137,105,107,64
66,176,515,201,146,116,110,82
65,206,612,221,150,112,105,94
71,186,573,205,143,108,104,114
77,200,598,217,163,122,106,112
83,229,596,238,158,119,111,116
83,240,602,246,153,110,109,102
85,233,614,272,140,111,112,98
78,230,608,282,130,105,106,82
73,224,596,274,119,96,106,89
70,217,622,260,121,99,105,96
72,225,657,285,119,98,104,97
61,199,561,250,112,90,90,96
57,195,510,249,116,91,82,86
58,188,486,242,105,83,81,85
55,170,462,244,117,96,81,71
48,135,414,205,121,97,88,76
51,131,429,205,118,98,108,104
56,140,450,201,126,107,116,108
53,135,486,228,131,113,119,106
53,132,469,215,117,99,116,108
60,166,489,220,120,104,116,103
60,186,491,233,131,115,106,71
73,227,547,305,153,133,102,72
76,245,577,318,152,133,100,65
77,261,609,318,160,141,121,73
80,254,598,324,167,146,118,71
84,251,605,337,179,152,142,79
77,230,647,285,161,135,147,73
78,219,659,270,164,135,148,83
75,196,653,266,162,129,134,78
75,214,646,253,149,120,138,85
72,207,688,243,146,120,125,85
69,195,604,228,143,119,129,92
71,183,542,202,131,113,129,138
120,210,537,213,148,131,127,190
123,219,543,235,147,127,129,229
131,275,552,276,164,138,121,231
132,292,623,302,173,145,109,233
135,333,691,351,212,171,160,214
102,317,681,343,219,172,160,185
100,293,701,353,234,183,160,137
91,243,647,301,224,178,178,145
94,231,609,311,225,181,182,136
90,187,685,322,205,165,149,143
99,219,774,384,185,153,173,138
100,253,764,363,178,150,194,176
99,254,768,374,154,126,179,184
100,251,743,354,161,128,179,190
97,252,640,305,171,139,183,183
86,228,542,259,205,164,173,178
102,228,532,289,224,181,158,164
101,222,499,270,228,183,148,146
109,269,534,281,233,183,146,152
120,259,510,278,217,171,131,176
128,301,549,318,183,143,110,171
114,275,574,294,161,124,97,150
117,283,636,345,171,134,105,150
107,247,684,348,158,129,109,139
119,344,762,415,172,142,113,106
111,354,722,390,175,149,136,114
112,370,753,420,179,153,140,116
111,376,741,407,182,155,138,116
126,376,671,387,180,156,145,125
103,317,608,324,176,158,147,118
110,268,596,299,174,155,130,118
117,258,532,260,172,148,119,136
125,268,557,299,177,158,132,149
109,270,552,322,183,163,131,146
108,242,548,340,181,157,127,151
100,249,649,374,178,156,124,158
92,230,687,380,166,148,126,136
83,212,670,372,150,130,129,123
84,204,704,358,128,111,119,127
117,206,694,334,124,102,114,134
112,183,598,303,123,97,116,117
112,208,647,335,136,110,118,117
120,187,631,321,137,113,115,131
144,256,620,409,157,128,112,132
120,266,656,421,160,132,111,122
135,288,699,434,170,144,128,132
136,284,697,449,180,152,126,129
129,304,714,451,181,155,111,117
107,249,722,404,183,161,112,108
108,249,695,414,179,157,115,102
117,247,729,408,188,160,109,92
119,236,627,351,184,154,106,106
117,231,607,319,194,160,115,109
121,227,585,298,198,159,120,115
129,204,545,276,199,161,119,125
111,201,477,290,188,154,108,123
115,196,515,305,174,147,108,111
123,200,560,380,168,147,124,120
129,180,564,381,143,125,135,119
124,202,629,387,143,124,138,117
117,188,628,366,144,125,139,124
105,202,648,366,159,131,142,121
103,191,592,289,143,114,116,113
80,206,593,273,143,114,97,122
98,220,621,282,145,122,90,122
105,239,665,288,138,115,88,121
105,234,634,295,127,111,86,123
117,224,627,301,129,111,82,116
119,213,592,289,127,114,90,103
111,209,512,301,138,117,99,103
118,218,516,302,142,125,114,122
118,245,543,281,137,119,118,123
101,252,552,270,140,121,131,131
95,260,567,279,154,132,127,131
96,273,586,279,140,119,122,134
91,252,535,253,146,122,110,112
95,229,509,256,161,137,110,121
100,229,557,256,168,142,105,111
104,218,567,251,155,127,99,135
90,185,560,224,152,127,105,131
85,199,619,243,159,131,105,133
91,192,627,252,147,116,112,127
90,209,621,327,183,146,112,133
90,223,664,337,186,148,114,124
94,240,662,359,196,156,108,124
88,217,594,362,185,147,103,120
83,226,626,369,185,147,87,123
80,204,598,306,134,108,76,116
75,186,520,304,133,108,75,90
81,152,489,275,144,121,106,95
86,182,519,310,143,119,120,126
92,166,467,302,152,128,122,132
91,170,452,308,174,145,122,128
93,177,496,319,173,145,127,136
83,192,522,327,162,132,108,127
77,168,483,289,160,131,94,93
71,161,496,281,147,120,91,72
76,154,489,267,122,98,89,102
86,158,472,233,118,96,76,110
97,141,476,245,149,123,72,114
99,139,472,236,145,120,69,118
99,166,459,233,162,129,76,116
95,174,514,249,165,131,79,102
89,182,550,267,174,139,88,83
81,183,530,262,139,108,78,85
99,190,524,272,165,128,83,104
94,181,555,275,174,140,108,133
94,185,560,271,173,139,115,132
90,176,547,264,169,139,109,135
94,168,554,227,169,140,112,138
77,169,559,258,158,132,112,125
79,155,502,245,137,115,82,99
80,143,492,246,134,113,74,111
77,141,455,248,126,103,73,113
68,153,474,255,137,115,73,99
59,138,466,205,146,124,72,95
66,146,541,252,140,120,83,98
69,197,531,257,166,139,89,91
78,204,538,261,166,139,87,91
78,192,516,251,152,123,87,97
84,191,506,261,136,110,99,108
81,186,454,229,154,126,104,110
71,118,407,225,138,113,136,107
64,100,401,256,135,114,141,104
65,102,398,255,134,118,149,101
66,167,409,256,139,122,143,93
62,189,415,270,118,104,132,90
81,240,528,275,175,148,126,108
85,246,514,246,183,150,140,106
92,261,539,251,196,156,159,119
96,226,532,245,193,151,157,140
102,210,528,226,193,151,158,136
103,160,414,199,133,100,135,135
102,176,441,199,131,102,117,137
103,165,440,196,120,97,78,130
103,185,523,197,142,118,79,118
104,198,507,210,157,129,89,147
97,192,531,228,156,128,85,132
98,201,569,249,170,135,89,133
88,199,525,247,167,136,85,129
81,189,476,243,162,125,82,116
71,174,476,229,154,116,72,108
60,196,470,236,162,122,67,103
58,165,386,203,137,107,58,101
64,160,415,208,140,104,75,101
64,164,429,205,121,91,76,108
67,171,436,204,108,83,75,92
70,146,416,182,93,70,73,101
66,136,412,176,95,70,75,96
71,141,403,175,82,63,63,105
71,123,329,180,75,61,66,95
79,119,332,209,95,80,69,101
83,121,344,202,116,98,79,99
97,142,400,225,130,107,83,111
89,135,453,267,149,117,81,114
94,140,478,272,162,126,77,117
105,136,466,260,156,116,102,135
102,148,454,260,148,108,97,134
94,165,519,291,146,110,97,133
107,169,473,244,145,113,100,128
101,167,480,229,134,106,105,123
81,165,500,230,134,109,80,84
92,171,496,238,127,105,80,107
88,135,401,176,123,100,75,101
74,125,392,190,102,85,76,100
93,124,370,210,104,89,70,108
89,132,368,207,111,92,75,108
89,119,372,208,114,95,79,100
87,118,328,197,103,87,77,103
86,119,319,187,105,86,69,100
66,141,315,198,105,83,67,96
74,151,346,210,99,83,59,100
65,143,325,194,101,83,61,84
70,160,416,234,108,87,64,75
72,158,434,250,117,99,64,68
74,137,441,229,112,97,65,67
74,124,422,236,108,95,67,62
69,125,479,262,113,101,70,59
67,108,423,239,118,103,73,71
74,114,431,232,119,98,74,95
77,116,424,256,127,102,72,107
78,117,396,230,145,110,75,113
79,124,334,217,141,109,68,128
82,126,323,208,140,111,62,126
74,128,345,217,138,112,64,108
70,132,366,189,132,109,64,96
66,132,407,207,130,109,58,86
64,131,499,205,129,106,59,58
56,134,511,209,130,107,66,55
65,156,511,197,135,109,62,64
67,151,494,193,136,109,61,62
68,157,495,196,130,106,65,66
77,178,459,215,136,112,68,72
82,180,482,206,133,109,68,69
75,182,476,201,129,110,75,61
75,193,481,226,127,108,77,64
71,186,458,221,122,99,71,68
59,168,424,212,118,92,68,77
50,178,422,230,116,92,62,76
54,186,467,248,119,90,54,79
51,179,463,232,122,96,52,79
50,181,477,220,131,104,53,73
58,194,530,234,129,108,54,77
63,188,504,230,132,111,60,102
72,174,452,219,124,110,70,105
73,170,472,220,126,110,75,104
80,175,450,228,111,104,75,104
76,153,359,201,121,110,71,94
78,144,356,201,131,112,70,69
70,126,335,195,135,110,57,61
77,132,328,190,143,119,49,79
71,124,319,175,147,121,49,77
71,125,333,175,150,121,50,75
67,130,346,160,149,120,50,71
66,135,351,161,145,119,50,78
60,138,375,174,134,108,58,69
64,154,491,228,134,108,60,68
68,166,551,246,122,100,59,68
67,159,569,252,105,88,57,67
63,151,587,250,103,88,57,57
63,158,551,253,137,118,59,50
66,163,497,268,142,120,58,56
62,166,426,253,142,119,56,65
69,180,407,257,145,121,56,68
70,180,390,260,144,122,67,71
65,168,417,253,118,96,68,65
58,147,363,200,113,93,65,60
60,143,411,214,101,84,64,56
55,132,448,214,100,81,64,54
56,137,453,202,105,88,53,51
60,134,471,222,107,91,48,57
61,140,463,210,114,96,52,66
59,123,423,190,114,98,55,62
60,131,402,208,113,104,57,66
59,127,402,215,112,97,59,72
63,132,379,222,148,124,77,73
57,118,383,229,144,122,76,64
54,118,409,234,148,122,76,64
60,138,431,238,153,122,76,67
59,140,422,243,151,120,75,69
54,136,412,205,123,105,62,67
56,139,432,197,113,96,60,73
57,143,447,200,131,112,62,70
59,120,454,208,141,121,64,64
59,126,446,207,146,126,69,53
60,131,458,213,135,114,68,56
60,133,546,229,143,120,70,54
59,143,592,226,132,113,67,54
50,149,580,202,133,119,67,53
52,138,578,198,132,116,65,53
52,131,573,202,130,114,61,65
62,152,583,247,143,127,71,63
61,145,530,254,139,122,70,73
61,142,539,252,130,110,72,75
58,145,554,247,123,106,70,77
57,162,577,251,132,115,72,61
49,156,506,212,109,96,62,58
57,170,558,253,130,111,71,50
54,160,524,244,127,107,62,56
58,168,524,248,132,110,65,62
56,158,492,255,127,107,63,63
52,143,453,234,141,121,74,62
49,124,418,184,125,110,69,60
54,120,394,199,121,109,72,50
52,106,455,218,127,116,69,40
53,103,449,212,124,113,66,41
55,98,478,225,112,96,49,45
50,91,466,228,102,88,49,51
45,88,475,206,103,84,54,50
45,94,410,189,108,87,55,48
45,98,421,207,102,78,61,50
47,104,424,221,115,92,63,48
52,121,395,247,116,95,59,42
50,122,398,257,111,94,51,39
48,115,394,251,93,79,48,47
51,128,413,254,102,89,47,44
47,131,395,245,88,76,45,43
45,131,382,217,103,89,48,41
49,145,393,224,107,92,65,49
49,150,375,218,107,92,66,44
47,140,346,187,103,86,66,52
51,177,534,210,108,93,70,53
51,179,555,205,102,84,68,54
52,171,553,203,110,92,62,55
55,177,617,237,119,100,65,55
62,178,625,242,121,97,65,51
67,165,501,238,115,92,60,56
67,166,529,244,125,102,61,60
65,175,536,270,123,101,55,56
65,176,486,252,120,101,51,59
68,201,539,280,118,103,51,58
63,182,520,266,127,109,58,57
60,170,458,255,105,93,60,54
57,160,463,230,111,97,65,57
56,154,488,229,125,109,67,65
49,140,463,204,131,116,68,62
50,136,434,196,120,108,61,56
54,154,462,195,133,113,58,55
58,173,499,205,138,113,55,49
55,173,473,210,134,111,55,32
55,172,439,202,122,100,52,40
51,173,492,220,128,103,55,43
49,163,464,219,124,103,53,42
43,138,413,204,116,98,55,46
44,138,425,193,113,88,51,47
41,114,410,183,122,96,62,47
47,117,396,189,121,95,66,71
56,131,421,202,113,92,67,71
60,137,461,221,105,89,64,72
64,137,534,283,105,98,66,75
62,145,543,311,107,100,60,70
67,168,569,363,117,113,57,51
60,151,557,366,122,118,58,52
58,150,533,358,127,120,61,61
55,145,478,329,121,112,58,58
59,149,493,311,122,113,66,61
57,142,502,267,115,101,69,57
60,153,518,266,122,104,71,57
59,179,580,257,117,99,67,43
59,178,554,237,117,98,69,50
58,171,566,244,117,99,67,49
53,161,512,199,115,101,63,47
56,164,485,197,108,96,59,47
56,132,371,191,107,98,61,46
56,140,403,202,104,97,62,40
55,150,430,227,106,94,51,40
58,163,426,227,100,88,49,51
55,156,525,235,103,89,52,50
54,155,540,234,104,88,52,51
57,155,513,228,106,88,50,50
60,152,442,182,97,81,55,50
54,128,444,180,112,89,58,53
55,142,332,166,104,84,57,57
66,155,340,186,111,91,58,65
65,151,361,213,109,90,58,66
64,138,354,208,110,91,52,67
67,144,331,206,92,82,46,55
63,137,351,210,111,94,47,50
52,125,395,212,119,100,52,44
49,118,382,179,120,102,53,46
43,117,385,178,117,98,52,42
37,128,445,193,117,96,53,43
34,106,418,171,99,82,58,45
38,107,394,166,97,78,62,45
42,112,364,170,96,74,90,50
46,123,386,175,105,80,93,54
49,102,325,179,110,88,99,62
51,131,367,200,121,98,102,62
49,137,355,197,108,90,108,79
45,135,367,205,114,99,88,78
43,135,351,214,118,101,89,76
44,146,356,201,126,102,96,69
49,145,340,216,131,104,96,70
47,145,344,208,145,116,89,52
52,148,367,207,147,118,98,63
51,145,377,204,145,119,99,61
49,131,378,231,155,127,92,65
41,116,393,199,149,128,83,63
44,128,395,193,136,120,79,58
41,120,372,175,123,107,92,55
43,119,407,172,117,103,91,77
54,161,501,149,110,108,105,82
56,157,511,192,124,117,128,83
61,172,552,211,136,123,149,92
69,183,582,228,143,127,155,87
71,195,607,232,150,138,192,78
68,196,624,247,134,120,195,77
70,196,591,234,124,112,183,82
69,183,565,233,122,113,168,72
76,188,577,276,134,128,156,75
82,202,550,282,145,133,132,84
79,174,439,257,165,149,118,91
80,176,502,288,178,158,128,93
82,193,530,328,188,167,141,99
73,192,551,289,196,170,141,95
67,192,558,290,196,173,124,84
70,199,633,318,190,168,122,73
69,200,611,289,177,156,120,70
66,204,598,248,172,146,103,65
66,217,556,248,157,135,99,67
69,227,542,270,183,151,100,67
66,218,478,246,184,150,102,67
66,229,494,253,194,157,101,68
63,213,468,249,207,166,104,69
64,199,504,259,206,167,111,74
59,178,480,228,177,142,109,75
65,254,497,225,179,145,113,73
75,318,478,218,180,147,119,80
85,357,481,221,186,153,130,89
87,371,444,216,182,146,143,88
87,368,471,217,184,149,144,87
88,336,417,216,177,142,144,90
81,280,410,210,162,132,146,87
78,246,486,229,130,108,136,78
70,223,470,236,129,109,121,73
68,218,437,230,114,94,121,69
65,220,579,284,104,88,126,67
61,222,591,303,94,76,114,58
56,200,505,278,95,85,108,52
59,202,598,277,103,90,105,55
62,198,599,277,114,99,96,53
57,176,514,244,125,104,89,50
70,217,653,302,135,110,89,54
67,215,673,305,128,101,92,55
66,214,621,300,132,101,86,58
66,223,668,298,131,102,94,59
69,229,638,274,118,98,86,62
60,171,478,176,111,94,79,65
75,180,496,194,142,113,79,78
79,170,474,176,129,105,78,80
79,161,407,184,135,104,75,94
78,158,505,224,139,108,78,104
76,156,521,218,144,113,87,103
62,165,518,203,115,96,86,103
54,168,498,202,117,95,86,103
67,231,595,254,105,91,80,95
68,230,515,222,102,87,79,84
68,237,510,248,90,77,65,82
68,216,487,254,84,68,61,68
71,225,533,272,88,74,66,70
59,176,457,223,92,77,59,64
58,165,434,222,86,74,61,63
56,162,439,209,91,78,63,62
58,172,432,205,112,98,62,66
58,169,397,200,113,101,64,56
53,161,371,198,119,106,67,57
55,162,390,201,142,122,66,56
52,153,376,211,150,128,70,63
50,156,390,197,140,118,67,58
52,157,411,197,141,116,64,58
51,156,475,206,137,111,63,53
53,175,548,224,117,97,69,55
51,173,535,227,107,88,70,43
56,168,523,247,103,85,74,69
56,158,501,231,98,83,69,77
60,140,436,234,91,75,66,84
59,142,325,220,101,80,55,86
63,163,317,200,110,91,58,87
62,171,323,183,126,103,57,70
61,170,339,198,127,104,62,67
57,176,380,196,131,109,64,63
53,160,401,192,127,105,66,56
52,158,433,190,120,96,58,54
51,154,513,195,101,83,57,55
48,176,509,184,103,85,60,49
58,184,484,162,94,76,59,45
61,180,496,182,115,94,58,55
66,219,535,190,122,99,62,59
69,220,457,190,125,101,60,66
69,206,443,185,129,104,54,65
63,220,515,196,135,110,66,71
60,218,487,171,114,92,63,62
57,170,459,175,111,90,64,60
51,166,496,191,115,95,62,48
60,218,579,217,120,99,68,69
62,195,522,234,120,105,73,66
61,202,551,246,120,106,77,70
60,198,522,246,114,98,73,74
61,196,485,224,107,91,73,75
53,145,405,225,95,83,65,56
52,156,426,199,88,70,68,63
50,148,388,202,85,66,63,64
48,163,418,199,93,80,66,57
53,163,447,216,105,89,71,57
64,173,475,220,114,93,80,63
64,162,431,235,121,102,62,53
64,162,453,227,120,105,61,45
66,153,484,251,121,103,72,65
71,163,517,295,158,136,71,68
72,171,524,320,202,163,79,80
70,175,533,320,202,160,81,79
74,188,548,324,204,160,83,81
72,210,509,302,222,174,82,68
63,197,467,250,200,151,80,72
57,182,460,210,156,124,68,68
58,180,461,209,170,129,65,69
55,167,511,214,175,131,65,69
59,145,558,231,150,113,54,70
59,146,527,239,140,106,54,71
59,131,512,235,135,100,54,67
58,127,558,245,115,88,54,67
59,169,537,249,106,87,57,70
58,184,517,224,125,97,57,68
61,189,527,220,126,100,54,63
58,201,521,227,121,99,51,73
63,214,540,224,136,110,57,71
66,186,496,213,140,112,53,72
64,168,459,223,119,98,55,75
60,156,463,218,133,112,57,73
59,164,493,221,138,116,65,54
60,154,439,201,130,111,61,57
64,151,434,206,126,108,63,62
69,207,517,255,122,103,60,59
76,229,520,270,109,92,64,60
76,232,547,279,118,99,60,61
72,225,523,274,111,91,57,62
73,228,518,269,106,87,58,67
66,184,435,231,112,92,60,67
65,181,485,234,137,107,65,69
62,152,409,205,124,99,59,67
59,159,415,213,125,98,63,70
52,165,466,244,136,106,67,60
48,153,461,229,139,108,71,56
40,129,431,213,123,98,74,66
44,137,433,208,120,94,77,75
52,151,448,218,120,100,74,74
49,141,428,170,111,97,70,74
55,154,433,170,107,96,61,73
56,160,402,190,97,86,48,62
54,161,439,202,110,94,46,53
53,143,424,193,108,88,45,61
59,153,496,251,129,101,51,56
59,147,514,276,146,115,53,61
60,152,510,267,150,119,48,58
60,167,461,254,152,121,61,64
53,167,466,258,152,122,65,49
52,164,404,236,147,117,64,54
59,205,492,238,134,101,66,49
61,215,521,241,133,99,66,51
68,217,564,256,132,97,65,49
74,232,593,269,136,98,66,59
72,231,565,256,148,112,67,60
67,187,464,234,141,110,65,76
64,161,428,229,143,113,67,79
56,130,361,215,129,104,61,75
58,124,344,187,120,99,57,69
64,175,389,179,100,85,52,66
61,186,397,173,121,103,55,50
62,211,458,174,126,104,54,55
62,211,469,187,141,113,59,56
55,203,531,219,151,122,64,58
44,165,495,218,142,116,63,55
48,159,479,220,127,106,64,52
48,140,461,229,126,103,73,43
54,157,491,219,118,102,68,42
58,161,412,196,112,96,64,41
61,159,421,208,118,101,66,46
60,153,428,207,124,102,63,48
62,159,414,182,121,106,56,57
58,163,397,181,119,101,58,61
54,156,407,189,116,100,61,64
55,160,402,177,133,111,64,66
54,179,485,182,127,110,67,66
55,171,465,181,115,100,66,61
55,160,457,187,125,111,71,63
53,159,442,165,124,111,76,59
57,175,451,175,108,101,74,66
57,164,360,174,113,99,76,64
55,170,380,178,121,104,77,67
55,166,347,175,109,87,66,67
63,169,378,208,116,93,63,71
56,135,343,186,105,82,65,61
54,140,356,192,106,81,61,60
55,141,408,228,111,83,63,58
55,141,436,223,113,88,62,56
50,143,399,196,110,85,56,57
50,151,437,211,133,109,58,60
52,149,476,216,153,123,65,62
51,140,421,192,146,119,62,56
57,142,387,198,142,114,61,61
55,138,389,203,139,112,66,62
58,135,365,202,120,94,63,60
59,133,352,202,106,89,56,60
58,128,357,194,128,107,63,60
54,133,387,216,131,109,63,62
53,139,403,221,139,116,73,71
53,165,431,217,140,118,70,70
59,226,434,205,146,118,80,74
64,236,449,224,132,109,81,76
64,241,442,195,139,116,85,69
65,240,416,195,133,112,74,60
76,288,523,209,136,115,81,62
71,253,498,229,118,107,71,57
74,265,547,226,133,112,74,58
72,261,540,228,130,109,73,57
73,257,598,245,133,109,74,57
65,203,553,250,129,103,67,54
66,198,577,242,124,98,65,63
62,172,513,238,115,96,53,64
61,180,564,244,124,102,46,61
61,185,531,225,117,97,45,63
57,175,473,222,122,100,45,73
58,168,431,227,134,112,57,76
55,159,428,207,124,102,65,75
53,141,377,205,113,97,71,76
61,146,362,221,134,569,72,69
65,162,421,204,136,732,79,63
61,152,411,182,134,759,75,55
60,165,429,201,152,785,71,53
71,186,454,271,156,789,70,57
63,191,463,260,140,561,72,59
57,169,410,254,144,330,68,52
64,179,448,278,142,262,63,52
68,174,432,277,143,188,67,60
57,163,434,206,136,167,61,57
60,172,448,219,133,141,54,56
62,176,429,222,119,117,48,56
63,181,449,235,115,109,44,52
61,200,545,231,92,75,32,43
62,193,505,227,88,76,33,43
60,173,478,201,91,76,46,55
61,178,518,200,90,79,49,55
59,165,465,164,104,97,59,63
61,144,384,154,106,98,61,64
61,148,448,177,116,102,62,63
62,158,482,220,150,124,63,56
60,165,483,224,150,124,64,69
55,167,484,210,146,112,59,67
51,163,471,216,149,111,58,69
51,168,437,208,144,109,56,69
51,163,445,187,115,87,56,71
50,139,393,178,119,92,56,61
57,142,427,184,109,90,63,60
63,147,410,177,110,96,64,57
64,135,436,182,114,99,69,58
61,133,417,190,112,98,61,54
69,181,425,190,124,106,65,53
61,174,416,175,123,104,57,43
55,174,429,185,130,113,60,43
57,180,381,191,138,115,56,47
61,189,328,170,144,117,62,47
54,148,374,195,142,116,68,60
57,154,368,201,156,130,73,63
59,164,336,190,140,115,72,65
57,159,335,173,125,108,71,64
57,153,367,175,121,111,68,78
56,168,331,165,111,101,61,66
59,172,338,197,124,109,68,64
61,172,420,211,125,107,62,82
65,178,429,218,137,115,64,89
65,173,454,212,133,109,63,80
71,160,476,221,147,117,60,88
69,180,514,200,131,100,47,88
66,174,516,196,134,104,52,72
67,191,536,184,132,106,56,64
69,192,500,179,141,112,60,61
64,192,480,154,128,107,60,57
65,185,476,191,131,111,61,68
65,176,412,173,133,111,60,69
66,177,389,198,141,112,57,71
57,176,410,208,132,105,52,70
59,188,444,249,132,105,50,66
59,181,419,226,124,100,47,57
68,187,435,233,142,114,55,77
61,162,445,213,125,104,56,72
69,179,466,222,140,116,61,79
65,162,420,174,132,108,59,78
68,160,447,195,148,131,72,78
61,159,428,198,127,115,70,55
62,171,396,199,125,116,70,59
59,146,357,190,106,102,64,55
64,165,433,202,124,114,73,56
57,148,374,179,101,80,58,55
57,176,442,178,124,98,56,54
54,168,460,179,131,104,63,50
55,169,491,207,136,108,68,61
53,174,445,192,140,108,65,67
53,178,444,188,140,113,66,70
50,146,431,234,124,102,64,72
51,148,426,235,120,98,54,70
47,155,384,206,117,97,50,60
41,125,393,216,101,87,42,58
41,126,384,216,96,83,43,55
37,126,322,161,92,77,41,56
43,119,333,192,105,80,45,61
44,128,375,202,102,81,50,68
49,164,375,203,108,89,58,64
51,160,365,205,107,89,57,65
61,171,382,204,113,92,57,67
57,172,369,167,111,96,57,69
58,172,377,161,112,94,52,67
56,139,368,148,107,90,43,68
55,148,385,144,146,113,67,82
58,163,469,166,150,117,68,81
58,168,507,190,160,123,73,78
57,162,525,202,164,127,77,74
55,172,556,214,163,126,80,72
57,181,548,215,137,110,70,59
48,160,484,209,130,109,72,54
64,211,496,224,114,100,72,63
76,232,477,224,117,102,73,67
85,239,423,224,114,97,78,70
92,279,515,264,151,127,85,73
91,286,529,289,158,130,85,73
80,252,489,285,157,134,81,74
72,236,506,296,167,141,81,77
77,245,621,317,202,165,83,74
68,183,595,310,173,139,70,84
84,228,619,333,213,180,80,92
86,227,663,320,236,188,88,83
86,221,608,295,223,180,88,80
79,219,564,318,216,176,87,89
81,234,557,320,228,187,88,73
71,202,617,288,190,150,82,72
69,208,572,298,159,132,77,70
65,213,608,329,163,135,76,69
63,205,551,286,145,124,77,75
60,196,515,254,126,111,74,85
62,176,373,237,122,109,70,83
64,178,434,235,122,106,66,84
62,186,487,285,139,114,65,85
57,164,463,278,128,106,56,69
56,174,475,282,131,107,60,56
50,183,518,293,139,111,61,48
45,162,467,282,141,111,58,53
47,149,406,191,120,98,57,58
50,149,422,183,132,111,65,63
52,140,418,181,127,106,65,67
47,119,385,151,120,102,63,67
48,135,387,148,135,119,69,63
49,137,355,147,136,120,67,61
49,141,332,148,125,105,55,58
45,130,341,154,129,105,50,52
51,164,362,177,141,110,57,53
54,158,406,207,127,96,52,50
52,162,471,241,129,94,50,42
50,161,499,258,130,94,49,40
55,181,513,259,130,99,53,39
49,149,483,246,106,85,46,34
48,143,466,233,110,88,44,33
49,137,426,207,107,90,49,33
56,166,491,208,102,85,50,31
55,145,461,228,96,80,47,36
58,149,467,226,101,82,44,38
58,147,457,228,93,76,46,40
62,167,499,237,96,82,51,45
56,152,438,228,97,85,50,44
51,144,458,203,98,85,52,43
48,142,463,200,105,93,55,43
49,150,443,196,100,88,57,45
41,122,426,211,99,86,49,39
47,147,434,202,103,92,53,43
48,148,405,196,112,98,52,41
47,146,384,194,99,89,47,42
45,139,378,204,103,94,43,42
56,181,355,179,131,111,51,43
52,161,388,194,135,114,56,41
53,166,399,199,130,108,56,42
53,166,400,194,135,112,56,39
51,164,411,173,129,106,55,39
48,152,452,182,99,84,46,47
46,138,384,159,87,70,38,44
55,148,390,169,86,70,38,46
56,151,413,174,85,65,44,47
58,159,448,193,103,81,50,47
50,122,383,183,126,107,66,40
48,123,419,182,126,112,68,40
39,112,477,183,156,137,77,37
44,115,484,186,158,140,76,40
43,106,494,157,163,144,75,37
43,111,484,161,146,125,62,34
50,115,460,169,142,123,60,37
51,114,385,167,112,101,53,38
52,117,368,167,115,101,53,49
54,145,342,171,102,91,51,49
54,150,318,161,106,93,50,49
52,145,323,152,111,93,50,48
49,142,357,146,116,94,50,48
49,163,402,139,115,98,55,36
45,138,354,159,108,97,53,33
46,128,361,166,112,100,59,37
45,139,352,186,111,99,58,39
46,145,299,182,101,92,53,43
39,111,206,183,92,82,45,43
45,139,243,162,88,76,46,49
53,171,299,155,74,63,36,49
53,170,349,136,96,84,53,47
51,162,357,131,99,87,57,43
53,163,399,130,98,88,56,41
56,145,381,134,105,94,65,40
48,109,373,139,104,96,67,39
48,109,365,157,78,75,54,42
52,129,389,161,79,74,52,47
52,130,349,161,84,76,55,46
48,129,347,154,72,68,45,43
50,137,363,161,80,71,42,41
50,135,341,139,84,75,44,44
48,120,300,142,88,78,43,39
46,118,309,145,84,74,43,40
53,126,337,156,90,77,43,51
53,120,303,131,113,100,50,51
57,135,310,144,118,102,50,49
57,136,335,137,116,101,50,52
59,141,355,150,127,108,47,51
55,152,399,178,134,115,47,43
53,148,391,198,113,97,42,43
53,149,431,214,111,95,40,39
50,144,425,222,116,102,48,37
52,144,409,219,105,95,48,47
49,133,356,214,116,99,50,46
47,132,364,197,121,102,53,46
48,134,349,183,133,111,55,50
51,139,349,173,125,103,48,48
53,136,362,165,138,115,55,43
50,126,376,151,130,111,52,37
52,123,359,152,128,108,50,42
44,90,307,132,115,99,48,39
53,160,468,165,116,102,56,44
56,176,473,174,101,86,51,42
56,177,491,156,101,86,52,43
56,188,492,192,113,100,52,44
60,192,502,209,115,97,52,56
51,144,431,181,123,100,45,55
47,137,440,181,120,99,47,55
50,131,405,188,115,94,45,56
55,140,433,172,99,78,41,52
54,147,435,176,112,95,44,43
53,133,348,177,97,83,39,40
52,141,380,187,104,90,36,37
53,158,418,196,118,106,48,39
51,140,399,188,121,108,48,36
52,132,397,169,119,116,53,45
55,146,418,186,130,120,58,46
53,138,396,180,129,118,58,48
53,141,358,164,108,100,50,47
53,173,383,187,104,100,52,51
52,175,360,192,90,75,46,45
55,169,352,179,77,72,43,43
55,171,348,179,87,84,45,41
59,187,373,186,91,88,51,45
54,160,347,159,96,89,51,40
54,158,356,162,99,90,48,38
50,159,338,161,100,92,48,39
52,158,346,160,87,79,45,45
49,119,318,156,89,78,37,42
49,121,304,142,90,78,39,42
51,123,316,142,89,75,42,39
49,125,357,155,91,81,43,43
45,105,300,144,97,83,44,47
40,104,284,134,100,82,45,45
53,123,306,152,96,81,42,46
50,132,350,166,100,84,41,49
50,127,312,157,93,71,37,46
52,133,316,152,90,71,37,37
52,138,361,177,85,73,33,35
40,115,363,180,80,67,34,36
44,116,324,182,80,73,31,31
48,114,351,176,88,79,33,37
51,115,357,203,100,91,44,44
53,111,333,200,103,95,45,45
52,121,322,203,110,104,54,46
49,107,328,192,106,100,54,48
46,106,322,201,108,100,54,44
43,112,362,191,104,94,51,40
42,120,387,187,107,95,53,42
46,131,453,195,121,106,46,41
48,142,457,195,125,106,50,44
48,154,460,195,121,107,52,41
50,150,433,179,110,101,46,37
50,150,427,204,116,102,45,33
47,134,344,194,95,82,45,36
46,166,395,186,88,79,46,32
46,166,407,183,86,74,43,33
43,161,406,186,100,79,47,39
41,148,365,144,85,72,45,49
41,157,372,131,85,68,41,46
48,130,323,136,85,67,41,50
54,128,340,149,90,73,43,53
56,149,361,153,82,76,45,51
57,171,389,172,87,79,47,42
57,163,388,167,87,82,46,42
49,146,389,174,84,81,40,40
47,157,362,169,88,82,41,37
43,145,357,171,90,79,41,39
39,123,331,161,94,82,42,41
40,125,320,172,99,86,47,41
45,148,354,197,103,88,50,39
39,123,330,183,97,83,48,36
39,119,319,182,93,79,44,35
38,114,355,186,95,76,40,32
42,129,390,190,103,84,43,48
47,123,390,163,119,100,53,49
49,130,389,177,124,103,52,49
58,147,421,173,123,101,55,53
59,163,495,175,117,101,56,54
56,153,480,167,113,96,51,41
51,146,471,152,108,85,39,55
52,150,478,149,102,84,41,56
50,141,438,152,103,84,37,54
49,123,319,138,102,85,40,55
63,113,299,129,90,76,39,76
67,108,308,146,77,71,40,70
70,106,314,142,79,68,38,72
67,104,319,133,87,78,41,70
68,107,328,135,93,74,38,68
55,112,346,152,100,77,40,44
49,109,310,143,98,74,38,37
44,106,365,134,101,80,39,36
42,107,394,138,103,79,43,39
42,110,453,158,106,88,45,43
48,157,463,149,113,97,47,49
53,163,459,169,112,96,48,49
59,162,475,216,111,94,47,53
57,157,453,215,108,91,41,49
59,168,414,223,115,96,44,46
53,122,402,220,107,90,41,39
53,125,396,211,112,96,44,41
52,126,340,181,110,98,45,42
54,122,325,180,111,96,46,43
52,99,294,155,95,86,43,49
53,102,293,153,90,82,42,48
45,86,272,142,87,77,39,46
37,98,254,125,87,75,43,43
41,123,318,169,81,71,43,44
44,135,328,168,80,68,43,43
43,133,313,165,85,70,42,45
50,141,321,171,84,69,42,51
52,140,368,184,101,88,46,49
47,123,355,182,98,87,44,47
44,111,330,192,93,83,41,42
47,126,354,198,95,85,46,43
42,116,347,193,88,84,44,41
48,124,300,182,70,64,41,43
48,116,254,141,70,64,44,46
49,123,281,143,73,65,45,47
50,104,273,146,69,62,40,47
49,103,321,144,76,62,42,42
42,112,349,159,86,71,36,36
46,133,371,175,93,78,34,34
48,143,395,167,95,81,37,35
45,142,375,166,95,80,37,35
45,148,375,197,90,77,36,36
43,149,417,215,88,73,41,40
40,132,408,204,82,66,38,40
43,133,426,249,89,75,37,43
47,145,450,250,92,80,42,45
47,138,436,237,99,85,47,49
47,115,407,228,100,92,48,46
49,117,421,235,101,94,50,45
47,121,430,188,94,88,52,48
47,120,433,203,93,87,51,46
51,143,437,218,99,92,46,43
55,159,414,200,87,79,43,44
59,172,421,210,95,88,48,52
57,158,365,213,91,86,46,48
59,150,338,195,91,86,46,47
60,159,345,179,84,84,53,48
58,147,333,184,92,92,50,49
56,146,343,191,107,101,50,41
57,165,356,204,110,102,50,40
57,194,366,205,112,102,51,46
53,173,346,210,110,99,47,49
51,166,348,217,105,96,49,46
51,175,348,200,81,76,45,48
52,164,370,175,76,74,46,49
49,139,373,196,79,78,45,44
54,145,404,187,92,87,52,43
54,145,390,170,88,79,51,45
60,145,393,213,118,107,59,47
61,142,395,231,126,112,60,52
60,147,478,220,124,109,60,51
57,155,465,226,119,107,53,48
62,159,511,232,129,116,54,52
53,136,480,181,99,89,44,47
56,145,481,183,99,90,43,42
61,154,425,178,98,91,42,43
58,138,435,168,92,82,41,40
63,142,438,178,79,72,41,45
64,142,434,199,85,74,40,46
60,146,419,197,87,72,41,48
58,130,412,216,87,73,43,47
58,127,384,217,89,73,44,47
43,114,311,202,95,76,41,36
43,110,382,197,96,79,44,43
47,101,371,180,94,84,42,45
43,118,359,148,91,83,43,48
46,130,399,140,93,86,43,48
47,128,426,150,88,87,46,50
50,128,370,127,99,96,50,48
47,136,420,144,98,95,49,44
47,120,443,163,108,101,48,41
46,111,416,170,105,97,48,43
48,115,404,185,108,101,49,43
46,124,479,198,96,90,47,42
45,108,428,190,100,92,50,40
56,131,393,181,94,87,50,47
55,134,421,203,96,89,52,46
52,134,430,202,104,95,58,48
57,145,370,209,103,95,55,50
56,143,401,207,95,87,52,50
46,130,422,201,96,86,54,50
49,130,382,189,93,84,51,52
52,136,419,174,81,71,41,50
49,125,423,168,82,72,42,48
50,122,426,174,91,83,45,49
53,108,414,190,90,82,40,43
54,123,431,181,98,92,45,48
55,117,394,188,98,91,48,52
53,114,371,176,98,92,52,51
53,117,346,175,93,85,55,51
49,115,344,168,92,86,56,48
55,126,379,184,85,77,52,48
55,136,377,185,88,78,54,42
57,148,380,194,87,76,52,39
57,153,416,223,92,80,58,45
61,179,464,262,98,85,55,45
52,158,433,243,103,85,58,43
53,150,432,240,114,95,57,46
50,134,445,236,120,99,59,49
48,127,416,216,119,102,50,52
44,96,401,176,123,102,50,50
47,98,394,176,123,105,54,51
45,99,417,182,108,91,54,49
54,117,425,183,108,88,48,47
54,124,405,164,105,82,47,36
54,118,359,150,92,74,47,41
57,139,426,175,87,73,38,41
55,139,413,159,88,74,37,40
45,135,403,162,83,76,38,42
47,139,416,182,89,81,36,48
58,171,440,186,95,88,42,46
55,163,384,172,95,85,50,43
60,163,392,183,100,91,53,43
64,181,453,225,136,119,63,42
66,181,464,218,140,124,64,43
60,180,461,208,136,117,60,45
58,175,500,205,138,120,56,44
55,176,500,196,137,119,54,48
51,168,458,145,97,85,40,48
46,162,465,140,91,82,43,44
44,128,443,132,91,88,44,43
47,139,465,163,100,92,46,47
58,191,479,166,99,90,45,49
56,179,524,198,111,96,51,48
56,176,500,200,103,84,48,48
59,193,505,220,104,90,50,47
63,196,439,214,100,86,48,47
53,137,405,236,101,85,46,48
55,133,309,204,91,80,40,50
59,136,327,238,94,82,40,52
55,123,380,250,102,85,41,53
49,99,370,232,102,87,48,52
48,134,356,204,108,94,57,48
49,153,381,221,116,105,56,52
49,153,356,182,117,107,57,50
47,147,279,140,106,96,53,51
48,147,291,138,102,93,44,48
50,123,306,172,95,88,29,49
48,110,308,162,82,72,32,42
44,107,328,161,83,76,38,42
54,130,376,184,82,74,42,45
52,134,394,195,81,77,43,43
50,133,436,166,77,73,45,39
54,143,430,178,90,87,47,41
54,147,436,177,93,86,44,46
51,129,407,164,100,93,44,49
51,126,395,153,97,90,42,48
54,128,379,161,101,89,42,51
55,132,403,164,103,89,39,51
53,125,383,161,97,87,36,48
51,124,387,171,111,99,41,47
54,125,367,170,118,108,46,48
59,141,375,183,130,120,47,47
53,117,332,164,115,109,46,48
59,119,371,195,120,111,45,46
58,146,404,195,107,98,43,45
54,144,425,198,100,87,38,44
51,134,405,186,79,71,38,43
51,136,481,207,86,74,40,42
53,142,499,216,86,70,44,42
64,169,547,241,90,73,45,52
65,182,573,253,107,90,48,57
65,193,583,257,120,100,56,60
65,203,548,247,145,125,63,60
66,208,561,236,153,137,70,67
56,176,511,210,148,134,76,55
56,167,500,207,140,127,77,51
52,147,473,207,151,138,81,46
57,136,437,209,130,122,78,47
55,128,391,210,145,136,75,39
56,134,439,240,153,143,67,42
57,144,432,248,148,139,67,42
62,174,509,258,129,127,59,49
62,184,546,261,126,122,62,51
59,185,589,273,99,95,62,48
54,177,541,264,93,87,62,51
56,177,614,286,101,95,64,57
53,158,560,273,118,111,64,62
51,170,573,274,127,122,65,60
60,190,597,300,131,125,64,65
61,188,600,289,129,126,61,64
68,191,548,279,126,123,59,68
69,185,543,283,113,107,57,67
79,217,580,312,110,99,56,68
76,222,603,290,109,96,59,65
76,228,637,300,105,92,62,66
69,225,626,285,107,92,63,57
66,224,640,299,110,95,62,49
53,173,611,259,104,92,62,48
45,142,524,236,96,84,55,48
41,126,474,217,108,98,55,43
49,198,523,232,117,104,59,45
47,204,516,218,114,106,64,41
49,202,475,224,126,115,59,45
55,229,519,222,136,125,59,43
55,243,551,228,126,114,62,45
52,186,494,195,123,112,57,46
54,202,527,192,119,104,51,47
59,209,518,179,105,93,54,42
68,205,546,244,103,89,56,43
69,188,511,241,103,90,51,38
67,185,481,237,89,83,49,46
68,177,432,230,97,87,54,48
62,166,438,240,104,97,54,49
50,127,348,164,89,90,55,56
54,154,355,139,96,95,58,58
58,155,374,168,100,98,59,51
57,154,435,186,96,97,58,53
57,168,448,196,92,90,51,51
53,169,446,211,94,88,50,44
59,162,438,219,101,95,50,44
55,158,467,213,106,93,52,42
53,146,414,203,107,92,49,44
60,137,396,196,122,111,59,48
65,142,361,184,128,117,63,51
57,123,359,184,115,105,61,53
64,166,351,191,111,106,67,61
66,163,368,183,108,106,65,57
59,158,361,174,91,83,62,59
53,156,358,177,86,77,59,56
55,167,404,175,89,82,58,57
52,122,368,160,90,80,51,53
50,125,332,162,112,95,53,50
54,164,414,176,122,113,49,43
58,183,435,160,126,116,49,45
54,176,394,190,130,118,49,40
55,182,463,214,132,122,47,37
56,183,506,226,119,111,46,38
51,162,468,220,113,100,46,39
54,153,460,234,105,92,42,37
52,150,499,249,113,99,41,36
48,153,463,231,111,95,44,40
50,152,411,212,102,90,51,42
51,145,403,221,93,83,50,42
50,144,419,251,100,92,50,41
53,145,438,260,90,83,49,44
52,132,412,258,99,95,45,42
54,141,426,275,114,104,41,47
52,132,423,260,118,105,44,45
46,128,427,230,121,107,47,45
52,138,428,197,131,123,62,46
56,139,428,208,125,115,69,43
61,147,470,197,126,116,75,42
66,161,459,201,127,119,73,46
72,170,489,223,129,118,74,48
69,167,431,208,127,109,67,46
64,175,437,198,129,110,61,45
58,163,450,193,125,108,52,43
54,151,446,202,119,104,50,39
50,132,394,167,108,95,46,44
44,129,394,157,98,89,42,41
48,137,461,183,112,101,52,45
52,136,421,195,112,102,49,43
52,137,423,184,116,104,55,43
51,144,453,187,116,106,55,36
52,145,510,198,116,108,56,42
50,138,470,178,100,96,47,42
44,141,479,194,98,90,49,40
44,146,497,211,109,94,46,39
44,147,483,222,114,101,49,41
44,140,449,220,109,98,45,36
43,152,481,212,128,116,51,35
45,146,462,191,128,118,55,38
54,159,453,193,120,118,59,47
54,166,454,172,112,108,58,55
59,189,451,162,119,110,59,58
62,171,389,177,103,93,61,58
60,171,375,186,101,90,57,58
50,160,371,169,109,96,58,51
53,152,396,176,113,102,58,54
59,120,396,183,114,103,64,67
61,127,412,184,106,95,58,68
61,137,478,178,101,93,55,67
61,134,485,175,90,81,53,68
56,120,461,174,88,78,56,57
46,118,445,170,79,78,53,42
47,140,544,174,87,88,58,49
47,131,524,171,95,94,90,71
58,156,544,166,128,126,129,85
62,175,552,185,127,124,131,94
68,236,670,224,140,131,135,97
70,240,656,249,183,164,139,95
83,269,693,345,202,190,164,94
82,258,685,364,201,185,157,90
79,249,696,362,209,195,156,85
78,204,615,365,203,191,158,84
75,191,623,365,177,174,157,81
60,157,583,283,151,142,118,68
62,176,604,276,156,154,99,64
62,177,615,284,157,151,98,60
57,165,589,272,165,158,94,57
54,157,524,269,158,150,106,56
59,164,557,294,176,171,100,53
55,155,577,343,166,154,98,64
60,161,591,338,166,162,115,70
71,193,696,360,184,179,119,72
77,212,762,352,215,205,123,93
75,205,755,337,208,195,147,105
78,231,769,281,214,203,144,115
81,229,769,320,219,214,151,153
77,221,734,353,212,206,154,157
74,216,667,407,188,191,143,155
75,220,670,409,206,204,124,149
73,185,622,424,213,207,136,144
79,219,636,413,222,202,121,105
80,219,604,384,235,214,113,100
76,211,640,333,232,208,137,87
76,219,641,345,227,207,145,84
73,235,677,372,207,193,137,68
63,203,652,354,204,191,141,57
58,207,643,354,180,171,139,52
57,198,614,371,173,165,117,49
65,211,627,379,156,154,111,53
66,197,621,344,164,161,112,66
68,204,590,358,141,143,94,67
69,182,563,356,144,146,97,71
70,182,522,323,138,139,103,74
65,150,480,301,129,128,96,86
61,131,412,290,126,126,86,77
59,111,381,265,127,123,88,87
61,100,397,258,118,118,84,92
68,130,464,299,141,144,98,100
67,121,443,297,152,154,114,86
84,136,458,296,144,148,117,86
84,150,534,331,153,158,118,80
80,153,535,309,147,149,126,74
88,153,522,296,131,132,109,81
86,145,511,288,117,118,86,85
69,136,528,294,118,116,84,83
71,142,546,272,121,112,88,82
81,162,575,328,126,119,90,83
69,150,576,347,125,116,88,68
82,221,658,398,135,139,108,74
90,241,646,409,140,143,116,82
93,269,626,413,130,141,116,80
87,266,607,377,150,159,112,76
84,265,574,369,161,169,119,83
75,215,486,341,164,158,111,87
72,200,464,325,157,152,106,85
63,143,451,313,180,183,127,84
68,126,422,380,170,164,121,87
77,138,563,415,188,180,120,81
74,132,548,391,181,176,115,80
71,113,530,404,180,180,110,74
73,119,526,408,153,145,75,75
65,115,518,356,153,146,74,73
53,88,371,294,113,109,65,69
61,96,370,297,115,112,72,65
59,106,383,298,114,107,71,69
53,105,350,325,113,101,76,68
54,108,344,300,102,101,78,68
56,103,343,283,104,105,88,71
46,124,356,284,107,103,84,59
56,159,405,300,127,118,96,55
65,163,407,277,127,121,92,59
65,173,455,298,127,121,91,71
68,186,447,304,135,126,81,68
68,176,463,329,125,120,75,69
57,146,432,316,114,101,55,68
53,148,460,296,135,117,84,73
57,153,461,324,133,117,84,62
60,147,491,344,131,116,87,74
61,139,482,324,130,117,93,75
64,153,486,303,127,121,97,77
69,158,450,339,108,103,92,76
72,157,467,328,109,98,92,87
68,160,456,311,118,100,98,80
65,158,447,307,123,103,96,78
74,141,438,306,116,98,97,87
68,123,449,267,115,94,77,79
61,102,397,238,114,96,79,64
58,105,438,221,102,82,72,58
59,113,438,202,93,74,71,63
48,117,451,202,94,79,65,50
43,114,428,201,85,76,73,48
40,110,419,178,81,74,75,51
40,96,425,235,80,83,66,53
42,93,448,256,83,86,69,51
37,96,476,277,83,81,73,45
39,106,519,280,96,91,71,50
41,110,520,283,97,90,65,48
45,115,476,246,91,80,62,44
43,119,498,279,107,105,71,42
45,110,457,262,107,105,73,44
48,109,427,287,120,122,67,39
53,128,415,309,134,136,69,43
50,134,421,306,132,140,72,43
57,134,425,257,123,125,73,52
59,141,442,261,138,135,74,67
63,157,521,224,124,117,78,78
64,154,539,191,114,104,78,85
66,144,547,195,133,111,77,94
60,143,513,198,136,119,72,98
59,155,510,198,124,117,66,94
55,151,414,199,131,126,91,89
49,141,390,195,130,130,99,82
50,150,394,199,120,123,110,72
51,157,408,237,128,128,112,63
54,149,394,221,135,128,117,62
51,141,421,235,126,116,97,61
61,179,461,244,122,110,108,66
62,199,487,250,126,124,113,69
64,204,471,216,118,119,110,70
62,195,467,210,116,120,108,70
64,194,473,195,116,119,111,70
57,159,484,199,120,128,108,64
58,158,432,176,119,122,106,75
56,151,444,179,115,114,111,70
53,158,528,203,101,101,112,67
55,153,505,201,106,115,123,71
51,152,498,215,110,114,129,72
46,144,521,219,110,112,118,58
44,130,512,209,120,118,111,58
61,202,501,222,165,161,112,57
58,209,518,232,159,148,98,48
61,213,476,232,173,157,77,45
63,207,492,239,178,161,79,47
64,209,484,244,170,157,77,45
49,141,399,213,141,128,67,40
52,129,376,214,143,131,76,48
54,129,394,201,119,109,71,52
52,131,470,234,118,112,65,50
58,160,591,338,114,109,86,56
58,161,665,383,130,128,97,58
61,174,740,394,152,150,98,68
69,195,760,446,173,175,104,75
83,209,772,502,179,188,155,104
83,193,713,462,183,191,152,106
89,196,682,465,175,182,148,108
87,185,608,458,165,169,144,101
78,155,574,400,146,149,142,96
62,107,452,307,127,125,81,66
60,110,461,315,135,131,82,68
60,111,513,345,133,127,100,72
61,122,535,348,132,131,111,73
61,123,534,368,130,132,111,76
62,142,530,381,131,131,117,77
64,146,517,363,156,152,118,79
64,140,444,305,153,150,104,87
63,132,415,312,169,162,96,92
63,137,437,302,180,165,114,88
70,165,511,345,202,184,113,91
65,162,498,342,181,166,104,83
58,158,501,354,178,163,106,67
60,166,532,359,164,153,111,58
57,160,527,348,161,155,115,63
47,109,485,281,131,130,113,52
51,99,495,304,163,155,127,59
51,108,496,335,166,154,122,57
51,99,494,335,156,141,117,74
54,97,472,336,143,126,91,73
55,108,517,361,141,127,89,77
55,105,473,323,101,90,70,74
58,102,487,285,94,85,68,75
51,96,466,257,95,88,59,54
53,107,511,328,104,100,68,62
59,116,450,310,124,113,66,64
59,128,474,316,122,111,64,65
57,124,463,305,128,116,66,63
59,126,439,324,125,120,68,67
57,121,405,248,126,117,64,55
47,103,405,244,102,99,67,48
52,96,447,290,104,106,71,53
54,105,420,292,100,104,70,56
55,109,430,286,108,103,71,68
60,119,426,292,100,98,67,70
61,119,421,284,120,118,65,71
56,126,404,271,123,116,59,64
52,117,381,247,121,113,60,63
48,116,412,255,118,110,53,46
42,110,477,282,137,132,63,50
41,114,488,306,130,124,64,50
43,97,466,288,120,118,64,60
52,106,501,298,118,121,64,63
53,102,455,269,115,118,66,63
53,94,376,253,101,96,54,59
56,90,346,227,94,91,51,58
53,93,361,234,101,104,55,51
43,92,334,217,96,98,62,46
46,94,358,243,103,112,70,58
47,93,343,226,101,113,69,56
45,91,343,223,95,109,71,57
47,91,303,218,94,99,65,54
46,76,281,208,96,98,57,55
48,78,276,184,91,84,49,43
53,105,338,198,87,84,50,45
53,108,362,205,89,83,49,48
54,106,371,199,96,90,54,56
62,122,395,254,114,104,52,59
60,129,417,263,126,114,57,61
59,122,416,278,125,113,57,61
61,122,471,287,128,116,53,56
60,126,559,313,119,109,51,48
56,121,594,293,101,98,55,46
66,151,633,345,100,96,58,55
59,150,617,322,104,99,57,55
56,159,581,308,119,109,60,56
60,163,518,277,127,115,61,55
62,163,513,270,134,117,64,57
58,161,513,219,131,119,68,49
64,174,545,276,137,125,70,50
73,177,558,307,124,113,72,68
69,179,546,304,115,105,70,69
72,205,522,304,114,107,69,68
69,184,480,289,109,98,54,65
61,164,435,234,98,88,51,63
52,152,450,198,93,87,43,43
56,157,440,242,102,95,42,44
45,111,412,224,96,88,37,38
51,136,430,243,91,87,40,41
55,147,434,264,109,98,49,41
55,150,379,268,126,116,57,39
55,162,400,224,116,108,55,35
59,179,443,260,130,121,56,38
57,172,404,238,130,119,55,43
55,170,406,218,115,107,50,43
54,174,437,247,90,82,40,43
51,158,422,263,110,103,52,44
49,157,434,263,106,100,52,40
44,147,434,262,111,104,53,36
43,139,418,256,110,103,51,35
42,127,384,222,121,116,53,35
41,118,404,218,119,110,50,37
40,100,339,181,105,97,47,36
54,122,342,226,106,102,48,39
56,125,354,240,106,101,49,44
58,133,386,257,99,92,50,45
59,145,395,246,96,86,45,44
58,142,431,250,97,93,47,45
48,130,442,243,93,88,42,45
51,131,485,243,98,90,44,51
53,135,481,227,96,88,41,53
51,130,478,255,96,88,39,51
53,133,500,266,96,81,37,55
52,139,507,227,88,74,36,49
50,150,528,286,83,71,34,42
48,151,528,285,87,73,36,41
55,173,499,258,94,81,41,45
56,216,503,250,122,110,48,44
55,212,473,252,130,119,52,44
54,219,460,182,135,122,54,43
66,254,501,206,143,129,58,44
63,256,566,217,134,127,57,40
65,220,548,204,118,114,52,47
67,238,640,234,138,130,54,48
66,241,644,222,145,136,58,47
52,194,598,198,137,132,53,43
60,192,546,182,135,127,53,45
54,200,541,206,135,123,53,38
50,193,474,176,129,114,54,36
50,176,427,182,121,109,47,38
51,179,483,196,122,110,50,39
34,154,532,198,127,112,49,35
31,140,499,177,131,122,50,30
34,104,448,176,108,104,44,36
36,104,499,200,109,106,48,33
51,143,551,225,126,118,50,35
55,146,523,231,119,114,48,35
58,144,528,237,103,98,48,35
58,150,535,250,105,98,49,31
62,165,488,229,107,98,47,40
51,155,450,190,85,77,47,39
49,150,471,209,94,82,50,42
53,176,476,209,98,83,48,42
50,169,464,193,106,92,50,40
40,151,474,206,98,86,47,32
44,150,441,235,95,86,40,31
53,168,415,226,86,79,41,33
54,172,480,226,91,79,41,35
63,208,502,255,100,90,40,35
63,214,497,241,107,95,41,34
60,197,449,206,107,94,44,35
51,182,439,186,104,94,43,29
53,160,354,180,102,95,42,36
45,122,378,161,90,86,45,36
47,110,367,178,91,91,45,38
46,115,376,194,99,99,47,37
45,109,333,189,103,103,46,36
35,103,329,181,105,106,47,29
33,87,300,157,103,103,40,28
43,110,368,156,101,102,43,32
43,111,369,150,94,95,36,31
43,110,384,157,92,92,38,33
42,113,469,182,89,90,32,29
43,115,459,183,91,91,32,31
35,118,408,175,90,85,31,24
42,131,422,181,94,88,39,30
42,141,429,185,96,87,37,29
45,137,369,180,97,87,40,32
47,147,359,181,99,87,41,31
45,138,353,191,94,84,42,32
45,125,342,184,84,77,38,34
47,120,355,184,83,79,38,37
52,148,366,184,94,91,46,37
50,143,395,180,89,90,46,40
53,157,427,172,95,97,50,41
48,155,405,164,95,95,49,38
48,150,395,155,103,104,55,36
42,122,366,133,106,102,48,35
47,143,366,143,113,107,50,36
41,119,336,141,107,101,46,34
51,131,361,160,115,107,48,34
55,147,358,170,110,100,40,34
55,152,355,177,101,94,42,34
51,123,326,162,93,88,39,32
52,121,296,157,89,83,37,31
43,112,289,156,92,83,43,27
44,149,285,169,95,86,46,33
41,145,291,172,100,93,46,33
44,152,288,174,99,93,49,36
44,153,335,189,102,96,48,38
47,157,333,173,95,92,43,38
38,107,336,170,89,89,41,33
41,122,355,163,78,81,39,34
46,132,343,166,73,76,36,30
45,134,336,152,73,77,38,30
43,130,358,156,66,73,35,30
43,134,354,139,64,69,31,27
43,143,385,135,65,63,31,27
34,129,401,135,77,73,34,25
37,135,411,151,78,73,35,29
38,132,394,164,95,87,38,29
38,128,383,159,99,89,38,32
33,101,326,160,98,88,36,28
39,117,348,158,94,84,35,30
34,107,321,146,94,81,33,27
33,108,310,125,85,73,31,29
34,114,325,138,90,85,34,28
38,116,350,169,90,83,33,31
32,106,350,180,86,81,33,31
32,105,333,177,86,83,32,30
31,102,334,189,83,79,32,30
33,98,351,196,70,64,30,30
35,130,407,177,78,76,37,30
35,125,367,161,77,76,36,28
38,130,380,180,83,81,40,29
37,131,373,171,78,78,39,28
36,135,372,156,80,80,39,29
37,120,271,150,67,70,32,33
41,129,286,167,81,80,37,35
43,130,274,149,75,75,32,35
44,128,328,162,75,75,34,36
44,126,332,157,76,76,32,34
42,117,344,170,84,79,32,32
46,122,340,161,68,66,27,36
44,116,342,145,69,61,31,36
43,117,322,143,68,62,30,34
45,113,279,149,70,64,34,39
44,123,288,153,71,63,40,38
38,108,345,149,83,77,41,36
45,109,339,183,90,87,38,38
48,119,350,181,93,90,39,40
46,116,372,191,94,90,39,34
46,106,348,179,90,91,35,36
45,109,314,184,80,81,33,33
39,105,326,151,74,74,36,35
35,89,279,135,70,70,33,35
36,90,254,115,74,75,33,35
41,105,261,136,82,84,38,38
43,112,308,146,85,88,42,38
50,125,295,176,85,87,42,39
55,140,322,189,98,102,42,39
54,138,324,191,95,95,40,39
49,121,352,171,91,90,37,35
55,135,338,181,97,96,44,38
48,122,337,157,103,103,45,33
46,142,359,159,96,93,47,38
46,153,371,159,92,92,47,37
48,156,361,170,85,87,43,38
40,138,343,159,84,85,33,36
41,147,352,155,73,72,30,37
39,122,341,160,75,77,28,32
38,109,323,157,74,78,26,32
37,103,300,146,74,76,27,31
38,104,269,130,72,74,29,31
39,99,284,153,77,82,35,29
39,96,332,145,73,77,37,32
43,108,352,156,83,82,41,33
41,113,361,161,82,85,42,33
43,115,371,187,90,95,42,34
43,113,417,183,92,93,37,37
43,112,367,191,92,95,34,33
39,115,352,189,94,95,37,33
38,108,358,205,96,95,36,33
32,96,339,176,85,80,37,30
29,92,249,168,82,84,39,28
32,88,235,145,77,74,39,29
29,68,254,133,68,68,33,26
30,67,226,99,63,64,34,26
31,68,237,109,64,63,31,27
32,69,271,105,65,56,34,30
33,96,326,133,70,61,34,31
37,98,308,143,65,61,34,36
39,104,372,169,78,84,36,35
40,113,391,167,81,88,36,36
42,116,430,191,92,98,33,33
40,96,411,182,93,101,34,31
37,102,424,182,108,108,35,26
39,103,382,185,111,104,31,30
41,101,392,191,111,102,30,29
38,102,340,173,96,88,28,28
37,103,334,191,106,94,25,30
39,105,377,195,96,90,23,33
35,105,368,167,89,79,26,33
33,98,336,162,85,77,28,33
40,102,356,187,87,78,29,34
43,134,410,179,81,74,33,36
44,126,384,183,86,81,37,35
50,121,379,182,91,86,36,34
52,138,419,198,109,101,37,34
52,156,427,188,114,107,37,34
53,145,371,181,111,107,38,32
51,154,384,206,114,106,37,32
47,161,387,209,109,104,37,33
44,152,372,217,96,90,37,34
42,137,431,234,94,88,37,35
34,121,422,230,95,82,37,33
40,117,385,201,91,81,42,34
38,116,407,206,92,76,41,32
40,121,440,211,99,89,40,33
39,118,375,176,104,92,41,29
47,140,436,214,104,95,41,33
48,143,445,211,104,94,38,31
51,152,456,207,102,95,40,33
52,153,417,185,89,83,41,34
52,148,388,184,80,81,40,35
46,125,307,134,74,74,39,33
43,129,318,134,64,69,37,33
43,122,288,164,68,76,35,31
41,113,277,155,72,76,34,28
43,111,282,152,75,78,35,28
44,122,291,157,74,76,32,27
48,121,283,167,73,73,31,37
45,113,287,147,71,69,31,36
44,113,295,150,73,72,31,38
43,131,300,157,89,84,40,43
44,124,288,161,95,90,42,41
36,114,280,143,101,91,41,33
39,119,275,125,98,87,40,36
44,129,348,151,95,84,41,36
41,115,368,154,86,71,34,31
40,117,368,139,84,70,32,33
44,125,368,140,74,67,33,39
43,130,414,173,81,71,35,40
37,116,370,150,79,69,32,37
42,122,396,158,75,69,40,42
44,128,405,170,79,76,40,43
41,124,396,178,87,84,42,38
38,112,343,150,85,82,43,33
39,115,363,152,92,88,46,35
33,98,316,139,92,89,40,28
33,84,320,137,93,88,41,27
35,92,384,149,88,85,39,29
37,118,443,178,93,90,41,30
39,126,424,189,93,92,40,30
41,132,424,192,91,90,37,30
41,134,437,194,97,93,38,30
42,153,391,188,108,102,41,30
42,147,350,164,104,98,37,30
43,146,398,185,101,95,39,32
44,150,399,193,112,107,40,32
43,146,368,188,106,101,38,34
43,116,393,208,98,94,37,36
50,124,370,220,108,104,42,40
46,122,299,187,112,107,43,37
48,123,318,174,101,92,45,39
48,138,342,170,102,94,46,37
44,142,308,139,99,89,44,35
41,129,328,149,93,79,41,34
43,129,342,167,106,94,41,35
41,124,368,167,109,94,38,34
45,125,369,186,106,92,40,36
48,128,385,197,110,96,42,36
42,122,379,180,103,92,41,33
46,113,381,163,84,72,38,33
45,120,365,198,81,75,37,32
45,131,393,185,87,78,38,30
44,122,377,177,83,83,35,28
47,120,362,198,91,88,33,37
45,125,354,217,95,90,32,37
45,121,329,192,91,85,32,36
46,102,294,193,86,84,30,37
45,107,333,212,91,84,33,38
51,129,373,218,86,82,35,36
56,128,357,212,86,84,36,41
58,140,362,206,87,84,37,40
57,143,407,227,94,91,37,41
56,154,414,206,119,107,42,42
50,144,398,190,118,107,43,38
40,142,417,183,123,111,46,32
37,133,413,182,126,112,45,32
31,126,406,156,132,116,44,33
32,119,378,162,116,107,37,31
34,129,397,158,123,113,37,31
35,130,393,159,115,106,34,31
37,126,410,190,119,113,36,32
41,135,363,199,117,114,45,32
43,131,396,207,111,106,46,33
42,116,377,203,116,114,44,33
46,130,382,202,119,116,48,36
45,124,357,177,114,111,49,37
42,116,378,159,105,101,42,33
40,116,352,153,105,105,41,31
42,114,328,149,100,97,41,37
48,116,359,178,114,119,42,41
53,134,384,188,114,118,43,44
53,129,379,206,114,118,43,45
61,173,434,236,118,121,44,47
59,182,440,234,112,116,46,43
54,176,410,222,98,97,42,38
51,176,450,235,123,118,44,34
53,176,441,219,118,112,41,36
51,155,550,251,129,124,41,33
51,157,614,275,130,123,37,32
51,153,651,278,128,124,43,32
49,143,617,262,114,118,42,33
50,150,644,297,132,129,45,36
46,164,541,245,121,116,47,36
49,172,471,252,134,130,52,37
53,182,440,251,141,379,51,38
55,184,454,254,139,458,50,37
54,194,422,227,129,461,54,30
57,174,500,310,125,465,56,42
54,157,498,289,109,466,53,41
50,148,469,281,98,299,50,40
54,156,501,291,91,151,46,43
54,148,519,290,81,130,42,46
47,136,400,193,75,108,34,37
44,128,436,201,72,87,30,37
47,126,462,201,79,93,33,37
47,133,437,188,75,79,33,34
45,131,470,221,92,86,33,30
47,132,469,216,90,83,31,29
53,149,449,211,100,93,36,33
53,153,437,217,92,81,33,33
60,184,459,242,112,102,38,35
59,180,388,202,99,93,36,37
59,184,399,200,104,100,42,38
54,179,378,189,95,93,38,36
53,177,392,183,105,103,44,35
45,147,362,161,95,92,42,34
48,156,415,156,103,101,43,33
45,153,403,168,118,115,45,32
46,162,433,182,121,116,48,34
56,225,500,211,110,107,45,36
48,211,464,197,104,105,43,33
53,207,456,214,101,101,46,36
71,207,446,203,89,85,41,57
72,197,413,195,83,82,38,58
66,125,361,141,90,88,40,58
67,138,403,165,86,80,39,60
64,139,374,168,88,84,40,60
48,138,394,168,75,77,40,40
46,145,439,168,77,79,40,39
46,145,396,181,71,73,39,38
47,143,374,166,82,82,41,38
48,141,368,161,78,79,38,36
46,143,366,163,76,77,36,36
45,134,327,160,81,85,39,34
48,131,435,196,106,104,41,34
50,123,438,197,99,100,38,34
44,109,431,183,95,94,41,32
47,116,451,207,118,112,45,36
47,111,458,215,115,105,42,38
42,121,380,179,99,93,41,37
46,152,426,192,100,97,44,39
48,156,423,202,108,106,43,39
44,145,400,177,86,92,37,35
44,155,468,220,96,105,39,32
45,142,459,225,96,108,39,33
38,120,439,215,95,104,36,29
47,150,488,213,87,96,31,32
47,151,489,215,94,99,37,32
51,143,412,183,91,96,38,33
49,143,388,169,87,89,36,30
50,142,348,160,86,89,37,34
42,113,316,161,92,95,39,33
50,142,384,196,85,89,38,37
47,142,410,194,79,81,37,35
47,155,437,210,81,81,37,37
49,165,468,233,82,84,38,35
50,161,438,228,78,80,38,38
45,146,403,216,81,80,36,35
47,157,389,212,99,103,41,36
47,145,381,207,99,102,40,35
54,154,397,204,113,112,42,38
52,153,389,202,115,112,41,36
52,154,361,191,113,110,39,34
51,143,388,179,94,87,33,34
53,159,381,195,99,94,36,34
49,159,348,185,84,82,33,30
51,158,348,185,76,78,32,30
50,160,402,195,82,82,32,33
51,166,381,210,84,81,34,35
50,155,371,197,81,77,34,35
47,131,346,193,96,96,42,33
47,141,356,194,98,98,42,33
47,130,302,175,99,104,47,35
53,136,310,148,103,110,62,38
53,128,305,144,102,112,62,37
55,123,302,139,99,103,57,39
52,110,312,141,102,107,58,36
52,121,321,168,96,97,54,33
49,108,306,172,99,97,38,29
46,112,365,182,98,93,37,31
40,120,396,185,92,85,37,28
45,129,391,182,107,97,39,29
42,124,409,164,121,110,40,28
37,120,395,164,114,105,42,26
45,144,356,168,123,113,43,27
54,171,370,171,116,110,40,30
54,179,370,181,110,105,41,33
59,187,321,175,97,95,40,32
58,186,363,175,102,97,37,33
54,171,395,179,85,81,35,33
47,142,388,174,89,84,36,31
48,133,390,163,86,85,36,30
51,140,455,214,92,90,33,34
53,146,437,219,91,91,33,34
54,144,406,201,100,99,32,36
56,150,386,215,103,100,34,36
53,148,373,214,100,95,32,34
42,123,339,170,91,88,33,30
43,123,390,171,104,98,36,31
39,121,423,183,103,101,38,29
46,123,413,146,99,102,40,30
50,123,448,156,101,109,38,33
55,128,458,157,103,111,41,36
54,129,414,146,87,99,38,35
56,138,402,125,83,92,37,34
47,123,413,141,82,89,34,33
46,122,386,140,75,80,37,34
43,129,425,155,75,76,35,33
50,138,420,193,86,88,39,36
48,124,407,195,94,96,42,37
54,131,401,208,113,111,46,39
50,130,412,206,114,113,44,35
49,129,364,191,116,114,46,39
42,120,402,171,108,108,44,37
40,120,442,181,97,99,40,36
34,123,446,158,89,89,38,34
33,124,448,162,100,100,43,36
32,120,461,188,98,100,40,30
40,110,454,176,94,95,38,30
41,117,428,173,102,103,38,31
44,118,437,193,96,96,35,32
46,117,437,195,86,82,28,32
49,120,397,166,92,91,33,33
51,140,399,193,98,95,32,36
51,149,383,187,92,88,34,37
51,147,355,170,84,86,35,36
51,145,338,169,77,79,37,35
51,150,364,198,81,78,39,36
44,135,359,167,74,74,40,34
43,135,358,170,76,78,37,33
46,132,382,175,83,79,36,33
45,151,386,169,87,84,33,32
45,145,363,134,97,92,43,33
47,149,322,136,107,99,44,32
50,152,337,133,104,95,44,35
52,153,358,125,104,98,48,35
51,133,418,139,101,95,49,36
51,134,439,153,82,78,39,32
48,132,437,155,70,69,38,33
47,118,426,185,89,84,43,30
40,114,457,204,92,88,41,32
39,112,435,200,99,94,40,32
37,120,438,198,99,96,37,33
37,125,480,216,111,106,37,33
41,138,481,205,103,101,31,34
41,134,439,182,99,95,30,32
44,150,454,210,95,92,31,32
47,149,448,209,96,92,35,34
47,146,419,192,88,86,38,33
42,133,440,179,84,82,38,30
40,130,411,183,90,88,38,29
40,116,345,147,92,91,37,31
36,102,320,128,88,88,32,27
37,101,343,150,87,82,29,30
39,92,301,148,92,86,32,32
37,89,300,143,85,78,32,32
39,131,401,212,92,84,32,32
40,129,411,222,95,87,32,32
39,135,447,215,95,91,37,31
36,144,448,215,91,86,34,27
39,148,492,216,99,91,35,28
36,122,427,151,96,89,42,28
42,154,450,168,97,92,46,32
51,173,459,212,101,94,43,38
53,179,522,225,96,92,43,39
53,190,530,228,101,104,47,40
58,197,549,249,96,100,41,39
75,270,607,283,105,109,45,46
79,285,665,314,121,125,53,44
91,315,644,346,134,134,60,53
96,321,627,380,131,133,73,55
95,319,630,371,132,133,87,55
86,250,549,340,133,131,89,54
80,221,462,300,116,115,87,52
67,186,429,264,114,111,86,43
63,178,442,222,112,106,78,42
61,180,418,212,110,104,77,44
56,180,426,215,101,95,78,37
57,184,409,199,105,99,78,39
53,163,476,207,103,99,75,40
54,182,569,213,100,95,71,41
53,177,579,220,113,104,55,37
54,189,642,234,113,106,51,40
54,201,658,241,125,116,51,40
59,206,657,238,121,116,49,41
60,188,609,235,140,133,52,40
59,185,593,237,134,130,52,41
56,169,562,235,140,138,50,39
53,141,558,212,126,128,47,36
53,144,546,215,127,127,51,39
51,145,526,208,104,108,51,37
55,168,592,217,129,130,60,34
63,184,572,200,119,117,60,41
73,197,544,228,131,128,62,49
75,201,545,242,132,129,62,46
73,205,554,250,140,137,58,47
75,191,474,246,128,128,58,65
78,194,499,325,153,150,59,93
77,180,468,306,141,137,56,97
73,176,447,286,152,148,62,99
85,197,424,304,156,146,68,108
84,208,452,295,152,140,89,109
75,197,399,236,139,131,91,88
73,227,418,265,156,150,100,81
74,233,459,285,144,136,100,85
69,244,470,275,144,138,100,78
69,237,490,280,144,142,78,64
68,245,550,267,139,135,77,59
68,224,551,246,143,137,72,61
64,217,488,222,142,139,69,60
59,177,466,204,135,134,62,52
59,203,465,239,132,128,65,53
60,191,471,227,124,121,60,53
65,217,528,250,98,97,52,55
66,217,522,247,99,106,52,54
62,207,496,248,100,103,52,56
73,169,472,212,111,118,55,57
73,156,408,225,127,131,55,58
65,121,372,191,138,139,64,56
68,144,446,200,153,154,69,51
69,147,454,193,152,155,69,52
61,185,501,198,138,139,65,51
64,195,487,182,144,148,77,49
65,183,441,173,137,142,76,49
69,166,413,168,110,112,70,54
69,175,493,192,116,116,75,54
65,144,445,206,121,119,72,51
75,220,586,258,120,119,68,56
87,232,590,271,140,139,65,61
80,229,596,278,160,154,65,58
82,231,560,282,171,166,62,58
84,245,590,272,194,190,79,62
84,198,529,259,186,181,74,58
72,202,563,264,168,165,69,49
73,217,574,262,152,154,74,52
73,222,548,267,145,145,73,53
69,213,533,282,149,146,75,52
51,197,531,258,143,141,78,50
61,243,589,278,151,145,98,52
65,244,570,280,149,142,103,52
64,233,623,255,137,130,104,59
86,282,644,273,106,101,96,62
89,287,606,271,112,105,92,60
81,244,545,248,116,112,82,62
77,238,608,288,139,135,73,56
76,243,572,298,139,135,72,51
55,186,539,268,130,129,66,49
54,181,527,269,127,127,64,49
55,173,548,260,118,118,58,52
55,165,527,210,96,98,57,57
57,167,529,198,122,120,57,55
57,161,512,183,119,117,57,50
58,159,510,191,118,113,61,51
58,170,486,199,121,115,60,44
58,185,423,189,130,121,65,40
62,201,449,196,106,96,63,45
64,205,483,251,119,113,63,46
60,192,489,232,117,113,62,46
59,184,494,233,110,108,63,42
58,165,484,237,97,101,57,45
57,185,490,237,103,106,60,49
50,177,493,185,97,91,60,49
51,185,481,184,96,89,64,50
61,214,516,218,102,95,56,56
67,213,550,230,102,94,54,59
65,193,524,216,104,97,52,54
65,195,499,226,95,95,56,55
66,190,519,234,114,112,50,53
62,151,438,190,105,101,52,51
66,173,440,192,108,104,55,45
60,145,419,192,100,97,54,40
66,141,430,216,119,114,53,50
73,168,443,256,109,106,54,54
70,171,458,265,117,114,51,53
62,146,412,253,121,118,47,56
65,163,411,271,130,125,50,56
60,161,386,250,116,112,55,48
53,154,399,208,112,104,54,50
55,164,434,228,110,100,55,52
51,165,427,220,102,94,54,48
47,149,426,201,97,93,51,49
49,164,449,191,98,97,48,47
58,155,401,215,109,109,52,50
55,143,365,180,109,110,50,47
57,155,430,195,112,112,52,46
59,155,423,203,107,106,50,46
57,139,418,206,107,104,44,46
45,138,447,182,101,98,41,42
47,156,546,239,104,99,40,47
45,142,500,235,97,100,39,48
42,164,555,233,108,109,43,48
49,176,584,274,127,125,49,55
54,184,564,265,127,130,56,51
53,184,536,255,124,127,59,50
54,189,568,261,126,124,59,49
56,177,527,270,115,114,60,51
51,171,478,227,85,87,55,43
50,162,500,237,82,78,47,48
59,167,439,242,94,89,45,50
67,175,403,230,103,99,50,56
65,165,380,217,111,106,47,56
66,172,395,212,116,113,46,55
66,188,401,212,113,111,45,57
59,171,370,152,103,100,45,55
48,160,366,157,98,92,47,47
47,161,379,153,114,105,49,52
44,147,391,147,109,99,47,51
52,128,356,139,113,103,47,51
56,128,365,147,109,104,47,53
59,128,379,153,112,110,41,54
64,133,372,156,93,95,40,53
69,130,418,176,103,103,45,61
62,152,475,197,99,100,51,56
57,148,490,194,99,101,52,54
61,160,514,211,90,93,49,55
57,157,556,209,88,94,47,53
54,169,551,229,79,88,43,46
60,146,489,232,83,90,41,54
66,148,510,230,86,89,42,53
62,132,465,204,81,82,47,53
62,125,405,207,83,81,57,52
59,117,350,187,81,79,59,51
55,135,383,155,77,78,55,47
48,134,406,177,86,90,53,46
48,137,438,188,96,97,47,53
48,138,437,178,95,94,41,51
48,138,422,162,98,95,45,54
47,113,409,174,95,88,47,52
46,108,357,144,85,80,52,50
49,119,355,163,102,95,54,49
48,126,372,173,106,105,50,47
53,139,409,179,106,106,52,47
50,131,402,159,103,104,52,52
53,138,410,182,112,110,52,52
54,135,421,155,102,105,58,47
58,138,409,142,97,96,61,52
61,120,417,162,100,102,67,55
60,122,399,169,105,107,67,48
63,120,375,160,96,97,66,52
59,116,345,167,83,84,59,50
56,110,352,192,87,89,58,48
52,113,300,167,84,78,46,43
50,109,333,181,82,80,47,48
48,105,349,197,85,82,52,48
49,99,316,191,87,82,54,51
55,134,350,173,86,80,55,51
56,131,374,186,81,83,55,55
56,144,393,189,85,82,56,52
52,145,394,186,89,89,53,51
51,147,413,192,82,85,52,48
47,119,367,200,80,79,47,53
47,113,333,193,82,82,46,50
52,96,281,174,79,79,43,58
54,101,319,170,70,73,40,58
57,116,300,163,83,85,45,62
53,108,304,150,82,87,47,56
52,116,330,150,85,86,51,53
46,127,343,158,84,85,50,45
49,122,333,136,88,87,47,50
44,109,354,145,91,89,47,44
50,146,384,172,102,99,61,53
54,144,365,168,108,102,63,53
53,135,352,172,111,107,64,52
53,146,310,183,113,112,64,48
51,143,300,173,102,101,65,48
48,113,267,149,90,93,51,41
42,115,320,174,91,96,46,44
43,122,321,172,91,91,57,47
36,104,330,163,91,86,57,51
41,135,333,183,98,91,59,62
58,200,398,206,117,111,62,64
61,199,349,184,105,101,68,64
63,213,450,218,103,99,59,60
67,231,451,231,95,92,59,54
64,213,437,213,87,86,52,49
51,161,384,188,65,62,56,44
48,162,411,197,70,70,51,48
48,144,303,148,62,68,60,50
47,125,295,137,70,74,62,55
50,127,316,170,75,76,66,60
48,113,334,181,79,78,61,68
51,120,316,172,76,74,61,64
49,122,330,175,86,82,48,63
50,112,354,190,86,85,47,61
47,111,333,161,85,87,46,50
47,117,339,162,86,88,46,48
53,120,360,177,101,101,43,48
52,112,350,184,93,95,48,52
55,119,299,160,90,89,49,52
64,160,376,219,93,91,49,55
63,156,350,211,86,87,47,50
59,159,338,217,84,81,49,53
66,194,348,212,101,93,52,55
62,194,400,219,104,96,56,55
52,167,336,164,101,91,55,60
57,171,357,175,108,99,57,71
61,158,369,153,99,92,56,74
58,121,367,151,106,98,53,72
56,132,332,149,109,102,49,72
54,127,386,156,114,108,47,65
54,127,404,154,110,104,42,57
52,138,376,153,115,108,52,58
48,129,368,150,96,94,50,56
52,126,396,161,94,90,56,58
54,123,353,165,92,90,55,59
53,120,304,156,91,87,57,55
54,119,321,163,88,84,51,53
55,120,318,175,87,83,51,57
52,99,270,168,89,82,42,54
52,106,262,159,85,77,44,55
48,107,303,166,88,77,46,50
47,111,294,177,94,81,47,52
45,116,305,184,92,83,53,47
48,128,291,179,91,86,54,47
52,123,291,180,92,89,57,45
59,148,304,201,84,84,56,47
60,144,339,188,74,78,55,45
58,139,330,180,81,85,46,45
60,141,370,188,75,79,44,47
58,142,414,192,76,80,41,47
53,123,411,184,89,92,46,49
51,125,384,185,90,91,45,40
55,135,414,176,85,84,45,45
58,136,406,183,95,87,45,46
59,145,358,178,99,91,43,58
56,136,332,154,94,84,42,56
53,131,325,142,97,87,40,60
59,169,352,186,106,92,45,59
60,157,330,176,101,92,44,67
62,162,365,197,97,86,44,58
67,166,379,199,99,87,44,60
65,163,405,212,102,90,47,57
58,115,330,172,87,82,43,57
50,124,336,165,79,73,46,51
48,116,321,155,100,98,46,50
49,103,316,154,102,102,42,50
50,104,309,155,105,104,41,52
49,115,333,163,111,110,44,48
51,139,348,161,114,110,45,54
51,131,331,147,108,100,45,54
46,136,328,146,105,95,43,56
47,139,316,153,100,95,42,55
51,155,317,142,98,91,41,59
53,150,342,153,106,103,42,52
64,213,419,166,133,127,54,62
65,215,405,174,134,129,55,57
64,218,418,156,134,130,57,55
60,202,429,160,135,132,57,52
60,191,422,152,127,123,57,50
51,139,374,168,89,90,48,39
48,131,384,168,82,85,58,41
46,130,375,172,86,86,61,43
49,150,421,201,88,88,62,49
49,164,421,201,105,100,57,52
52,171,484,200,111,107,57,54
60,215,549,218,114,109,47,76
61,211,578,216,122,113,51,76
63,206,570,203,127,114,53,73
65,206,567,240,124,114,56,73
57,186,491,227,118,109,59,72
55,145,430,215,135,127,59,59
63,172,428,228,123,120,57,78
59,161,407,231,118,118,51,78
65,191,406,200,113,116,51,79
66,191,418,196,109,112,46,79
63,194,418,193,89,93,48,73
53,175,394,180,97,95,52,52
55,175,357,169,95,95,55,50
39,121,357,161,98,95,53,46
43,120,368,163,100,96,57,50
49,105,341,164,98,93,56,48
54,122,332,167,93,94,51,51
54,142,360,168,86,87,50,47
60,162,363,170,83,82,53,56
69,192,365,191,89,91,48,60
65,189,380,184,90,90,51,59
69,204,407,194,87,84,49,60
74,209,425,218,92,89,49,68
69,197,408,208,94,89,46,63
59,174,382,189,85,80,49,60
65,201,433,225,86,84,48,65
60,179,445,227,88,90,51,70
56,157,399,202,104,102,57,67
59,156,410,229,107,106,56,67
60,158,425,231,110,109,63,65
56,131,365,202,115,111,61,70
57,162,361,217,118,109,58,63
56,168,434,220,112,104,55,65
54,173,511,221,106,97,60,63
58,183,509,236,113,100,54,65
54,190,530,253,105,94,51,57
53,185,522,233,105,94,51,58
58,192,485,232,102,90,53,53
61,189,400,217,120,106,59,53
59,208,451,206,117,105,58,47
61,211,432,186,125,115,58,44
68,228,406,235,121,114,64,49
64,237,400,236,124,121,67,49
61,236,380,233,107,109,57,48
56,206,325,222,102,104,54,48
53,193,333,211,100,98,54,47
43,154,363,164,118,117,51,57
42,130,362,152,108,104,50,62
47,144,440,151,137,131,57,67
48,168,449,161,154,151,59,68
55,177,453,176,153,152,59,69
52,168,427,168,144,143,56,53
52,163,458,181,147,144,48,53
51,151,385,216,121,119,43,44
57,145,353,224,101,96,47,45
52,134,346,224,97,91,47,42
54,145,346,229,88,79,57,44
50,144,302,220,80,76,54,36
49,141,298,177,79,76,53,44
48,138,336,175,77,75,51,51
48,144,323,168,76,74,58,52
47,133,333,148,89,90,59,53
53,146,327,173,99,96,60,54
53,151,365,172,98,94,58,60
50,144,345,150,103,96,69,53
52,143,353,157,100,94,67,54
54,148,345,171,95,88,59,52
50,133,345,155,91,88,57,57
52,138,321,173,96,94,64,50
54,162,331,181,89,91,67,51
55,157,336,169,88,92,64,50
55,154,347,176,85,87,65,52
53,151,342,164,82,80,65,46
50,162,329,146,92,88,71,45
47,132,306,135,93,88,58,54
45,138,446,170,101,94,59,53
43,130,417,154,100,93,56,52
44,133,414,155,101,95,58,52
48,104,425,170,85,83,48,52
50,110,470,219,87,84,52,55
51,146,346,198,101,95,51,57
51,150,343,193,97,94,52,58
58,165,409,221,115,111,50,60
55,167,406,211,116,110,45,56
57,181,386,202,119,116,42,50
59,144,362,200,107,104,42,54
64,153,405,205,114,106,46,55
58,141,369,182,102,100,51,51
58,140,371,193,117,116,52,53
61,110,343,151,106,106,49,59
57,110,395,207,109,111,50,59
52,93,357,220,105,110,45,57
53,95,361,242,104,105,48,60
55,135,404,266,88,88,54,59
54,166,432,283,106,103,55,53
55,175,391,256,105,105,52,47
55,177,391,239,102,101,54,47
54,179,384,227,98,97,49,45
54,154,341,191,103,100,41,45
47,131,335,179,87,85,37,37
47,123,367,163,84,82,41,44
47,119,387,176,84,85,43,46
50,116,373,166,77,80,41,47
49,107,362,163,71,79,40,50
50,107,341,146,76,82,45,50
54,123,321,145,87,86,43,51
56,153,380,172,98,92,42,48
58,163,427,171,103,98,47,50
56,161,420,168,111,101,47,47
53,178,487,208,114,106,45,50
44,163,478,217,110,106,44,47
51,158,428,205,111,110,47,48
45,149,395,208,111,109,43,45
46,155,461,219,105,106,54,49
47,128,381,184,97,99,54,47
50,127,387,181,94,94,55,45
43,97,396,189,80,83,51,48
50,120,412,181,81,87,51,58
56,130,346,179,80,89,38,54
55,133,376,194,81,90,39,52
58,146,426,194,84,94,42,53
59,149,399,166,85,90,42,55
54,130,426,189,83,89,41,44
49,122,440,178,79,84,41,46
49,118,411,161,79,85,43,51
49,107,350,166,80,80,53,58
45,108,426,199,86,87,55,56
47,108,365,175,84,83,56,55
48,100,344,174,85,81,54,53
52,116,397,199,84,77,49,50
48,115,431,195,83,80,38,46
49,109,370,173,78,76,47,46
48,112,382,183,76,74,46,47
51,126,391,202,80,76,47,51
50,120,349,182,85,83,51,51
54,126,358,183,94,89,61,54
52,128,353,183,104,98,58,50
53,145,362,175,102,99,60,51
55,158,407,198,103,102,60,52
63,165,408,216,105,102,61,57
61,164,377,220,97,97,56,54
64,166,402,227,108,112,51,56
63,147,379,223,109,113,55,56
60,127,359,205,116,117,61,54
48,118,369,184,118,118,67,51
46,109,348,170,111,112,62,49
47,109,363,192,106,103,69,46
54,130,396,211,120,120,65,50
52,125,357,208,116,119,61,46
51,127,400,231,114,117,55,41
51,131,429,236,116,117,55,41
49,125,392,218,118,119,46,43
41,128,388,219,122,113,46,51
41,133,441,210,118,108,44,53
42,129,394,188,120,114,45,55
54,157,400,225,130,123,47,57
54,161,398,209,114,107,44,57
57,172,387,225,100,101,46,55
62,172,356,226,107,106,47,60
62,169,344,218,102,98,47,59
54,166,339,170,87,83,46,54
53,164,341,181,91,90,48,56
49,130,327,145,86,83,46,57
45,123,337,157,77,75,42,54
52,133,336,173,92,85,38,56
50,101,308,173,90,88,35,57
55,99,305,161,86,82,38,61
55,108,327,157,87,82,43,51
52,116,309,140,96,91,45,50
51,109,316,155,103,101,51,54
53,108,330,158,106,101,52,57
49,119,354,171,116,113,49,50
48,116,329,172,113,112,47,50
49,125,346,183,104,103,49,50
43,120,335,161,80,84,46,41
50,149,355,171,105,103,49,48
56,147,322,155,98,91,48,53
58,146,359,172,110,99,51,57
58,128,326,153,116,104,46,58
56,127,332,148,114,102,51,59
51,92,320,138,99,86,49,53
49,101,337,144,113,106,51,64
48,112,323,127,99,96,46,58
56,123,368,172,98,96,49,58
57,124,390,188,106,102,42,57
56,147,408,189,97,95,41,54
53,150,428,191,89,82,37,40
65,231,435,193,107,96,45,42
61,232,414,178,111,96,48,42
59,235,398,160,107,92,47,43
58,223,360,161,110,94,46,45
61,235,323,157,108,93,57,47
50,162,322,167,99,86,55,49
56,185,317,159,110,106,51,44
61,189,313,169,107,103,51,51
61,185,305,156,105,102,53,51
56,155,289,154,98,95,42,46
54,137,241,127,89,89,39,46
44,91,215,113,63,61,37,47
46,88,289,117,60,59,49,48
48,98,338,157,75,77,49,45
52,117,366,182,78,80,48,48
53,133,417,204,88,87,50,47
53,136,418,208,90,87,53,46
48,136,362,203,93,92,47,39
57,151,328,191,87,82,50,46
54,141,340,170,96,91,49,43
61,139,325,155,96,92,47,62
62,137,344,155,100,97,48,62
58,135,388,153,97,93,50,61
54,116,383,136,92,90,48,56
53,110,372,126,83,78,49,60
45,105,344,115,76,71,53,44
47,112,388,115,73,71,54,45
51,104,400,143,82,79,49,47
48,107,422,156,85,79,48,50
49,106,400,160,82,81,48,54
46,103,414,164,82,83,52,49
48,96,353,166,90,88,51,54
44,95,349,150,92,92,48,54
44,91,334,143,98,99,47,55
44,90,359,147,98,99,50,52
46,89,389,154,109,111,46,56
42,89,388,149,111,111,44,55
42,99,368,154,110,112,46,54
41,114,449,193,104,105,48,51
41,112,449,188,106,105,41,50
40,113,412,177,92,88,39,47
39,119,416,172,70,70,36,52
45,116,398,160,69,61,37,54
52,111,322,102,68,62,33,57
52,119,313,128,67,65,35,55
52,117,320,141,71,70,34,55
55,117,328,144,75,77,38,57
53,114,423,155,75,78,37,57
45,99,396,150,77,78,38,55
45,121,392,141,82,80,37,54
49,124,381,142,81,81,36,53
49,128,368,139,83,81,31,55
46,134,234,132,90,89,36,58
45,135,222,139,92,94,40,58
44,109,279,151,94,97,37,56
43,111,328,165,100,100,39,59
37,101,338,178,97,96,40,46
44,95,366,185,90,88,47,49
44,103,397,184,87,81,43,46
44,117,378,183,91,86,47,52
43,127,336,165,85,83,46,51
42,123,326,143,86,83,46,49
48,117,294,130,84,81,42,48
49,125,299,127,87,85,45,52
49,121,286,126,78,71,41,47
49,110,293,126,85,74,44,45
60,133,306,144,92,83,48,50
53,133,315,154,92,84,41,45
54,125,300,158,92,83,58,44
54,134,352,154,94,87,61,49
55,137,337,169,90,87,62,57
47,118,321,166,84,82,58,58
46,132,331,165,82,80,59,59
45,143,332,175,83,83,41,59
45,130,250,161,80,80,44,63
46,121,274,150,78,76,42,60
45,126,339,183,79,76,43,56
52,131,334,191,85,83,43,69
69,128,399,213,83,78,46,73
74,135,483,246,78,76,40,72
73,136,490,247,86,79,43,70
72,129,461,223,89,85,44,70
70,112,475,217,84,80,45,61
56,94,469,218,84,83,42,60
50,81,408,183,84,83,43,62
49,86,431,192,74,80,40,59
49,84,427,195,65,74,39,61
47,87,411,197,70,76,41,56
46,106,403,196,75,74,40,55
47,113,408,202,82,79,43,52
56,134,394,201,88,81,46,57
59,152,397,195,111,101,54,57
60,169,450,193,112,101,56,61
56,157,391,156,113,104,55,58
52,151,376,140,113,102,54,52
48,126,366,124,121,104,50,48
51,116,401,157,103,85,44,56
48,96,342,165,101,83,39,49
53,121,340,171,96,78,37,50
55,128,348,191,100,88,50,53
53,142,358,197,97,93,52,57
49,133,315,170,103,99,54,60
51,147,332,156,103,100,55,61
49,141,355,169,111,105,61,64
51,151,400,163,110,102,53,64
48,140,366,154,101,93,50,64
47,149,378,167,118,108,50,56
45,136,381,160,117,111,51,55
42,126,410,144,111,106,45,50
45,120,357,134,104,99,54,50
55,124,370,154,108,103,57,55
55,115,346,136,79,79,53,52
53,100,334,154,81,73,52,53
60,96,283,165,99,85,55,54
55,80,308,188,105,91,50,55
50,75,321,178,118,97,81,63
52,74,347,200,122,100,105,81
56,75,328,209,119,98,125,90
55,76,361,216,112,95,141,98
61,103,387,209,115,104,187,105
60,103,383,204,97,93,180,101
58,102,369,183,102,98,177,90
60,132,398,190,102,102,166,82
57,140,463,228,107,106,153,73
53,140,503,264,110,107,93,61
51,136,503,266,111,107,88,58
53,137,500,271,101,99,81,52
47,113,482,253,102,99,77,52
48,128,448,212,96,91,78,52
47,105,350,163,86,79,79,49
52,115,387,174,100,88,74,56
57,128,385,193,115,102,75,61
57,125,388,190,113,101,77,63
56,102,325,191,112,106,75,63
59,106,361,197,113,105,68,68
55,107,336,192,103,99,66,57
50,88,374,176,87,86,54,58
53,94,407,193,90,90,47,53
52,87,401,172,84,86,50,61
49,89,395,185,83,87,48,63
50,73,406,194,78,83,48,64
50,81,395,199,78,82,53,60
49,80,365,205,82,89,53,61
49,96,403,216,87,90,47,52
47,90,389,191,86,89,47,44
47,89,375,175,90,94,51,40
45,93,371,165,86,94,47,38
45,104,447,155,92,96,60,42
51,119,422,181,104,105,62,52
59,151,438,211,116,117,65,61
62,161,472,263,126,127,62,69
64,162,517,280,142,143,68,69
85,337,664,394,212,205,74,84
88,361,745,452,246,228,87,122
92,361,768,457,252,233,105,126
91,363,746,432,247,225,108,124
90,368,741,427,241,218,106,125
75,260,633,337,187,165,96,116
67,231,536,253,140,128,90,78
55,222,575,232,134,118,69,64
57,225,623,244,149,126,63,61
56,216,607,242,151,125,59,57
56,173,566,235,142,113,78,66
58,157,572,221,150,132,83,60
56,141,504,214,136,120,84,64
52,125,459,200,119,112,91,63
56,146,497,219,120,113,91,66
61,149,517,228,138,122,79,60
58,143,527,225,111,90,70,66
63,148,511,221,118,98,67,67
65,162,494,216,122,104,63,69
63,141,416,186,117,99,59,70
55,136,354,156,114,107,55,71
58,135,352,146,116,110,49,64
57,131,335,149,114,109,48,61
55,123,364,148,114,107,45,59
60,155,376,146,127,122,46,60
64,152,371,187,115,111,45,70
60,159,366,188,114,109,48,70
68,195,388,212,131,122,51,68
66,191,382,228,128,119,53,70
64,173,422,232,109,100,53,74
72,214,532,230,115,104,48,62
72,212,525,231,115,104,48,60
64,188,530,207,92,85,47,62
68,195,509,217,92,91,51,68
65,193,488,217,95,92,51,59
58,146,367,184,82,80,62,62
59,153,424,199,115,108,62,62
61,144,411,203,121,115,62,62
57,131,395,173,144,138,64,53
58,129,389,169,142,136,63,53
52,126,367,172,138,133,61,46
53,112,305,154,115,114,66,59
52,111,322,156,107,108,69,54
54,114,323,158,70,69,64,58
51,103,314,150,74,73,65,57
49,88,315,145,75,78,64,55
46,88,304,152,69,74,61,40
46,93,273,158,76,78,56,49
46,100,280,163,76,81,54,45
49,104,284,177,87,90,58,48
46,103,357,183,104,102,53,53
49,108,364,182,108,101,46,55
56,128,392,194,106,101,48,48
61,170,508,221,124,114,48,51
59,170,501,211,120,111,58,51
61,176,457,201,110,104,63,50
61,187,486,220,110,109,69,54
51,177,483,196,109,107,70,57
47,144,357,160,98,97,69,54
49,147,364,168,105,99,63,55
50,159,436,204,117,108,57,59
49,146,396,191,126,118,55,58
56,148,453,257,130,121,56,57
52,138,462,261,122,116,59,59
55,145,478,270,115,112,54,59
56,132,421,254,114,109,52,54
57,139,444,248,101,96,60,51
52,126,366,175,90,86,59,51
52,125,348,175,98,91,57,57
48,127,406,170,107,104,57,58
48,131,423,161,93,95,65,55
48,123,415,157,97,98,55,55
44,123,410,167,100,100,58,56
53,127,469,186,100,105,56,71
62,131,425,195,93,90,55,79
61,116,391,195,95,91,47,77
62,148,406,206,93,91,49,78
66,174,430,219,107,107,49,85
63,172,373,198,98,97,53,70
57,168,362,195,98,101,53,73
70,220,457,194,107,108,57,81
72,223,436,181,106,107,53,81
70,206,408,165,91,91,47,78
69,205,422,161,93,91,45,75
66,195,406,143,88,85,51,71
52,140,311,166,68,66,46,65
51,106,359,189,64,65,50,76
51,98,349,180,63,66,50,69
55,92,330,177,82,83,51,70
55,87,314,170,79,82,44,65
54,77,293,140,82,81,44,75
49,63,228,126,90,87,42,72
48,98,329,151,96,89,44,94
50,123,377,175,84,80,40,97
50,129,394,179,91,88,41,96
50,133,403,202,95,94,36,88
48,143,401,193,91,86,33,85
47,123,334,195,92,87,36,65
49,100,276,180,93,86,39,81
48,96,291,194,88,78,39,81
48,98,299,175,82,74,43,79
54,97,266,169,84,78,42,74
55,105,253,146,76,71,45,89
48,112,301,141,72,78,46,73
48,117,297,116,70,77,46,68
49,135,300,114,71,79,49,78
44,128,313,116,66,72,50,83
49,131,339,132,76,85,51,74
46,124,289,133,74,75,47,89
46,123,266,143,75,77,47,89
44,93,236,136,69,72,42,82
51,107,297,157,73,79,45,80
49,121,282,153,111,112,40,71
53,131,298,152,116,117,45,53
53,129,304,157,118,118,44,58
51,135,324,160,128,124,48,59
45,130,282,145,129,124,45,57
40,106,274,137,94,84,41,61
42,109,302,136,90,80,39,58
43,106,301,125,87,79,44,55
47,105,336,148,75,68,43,58
46,93,325,144,69,61,46,54
49,116,348,174,61,58,46,51
43,104,320,172,57,135,44,56
42,110,345,181,67,597,45,58
40,111,295,162,66,666,44,53
45,118,309,196,77,699,41,58
40,94,265,168,76,718,41,53
45,93,258,174,78,722,43,57
46,86,201,163,74,430,38,60
47,87,208,174,79,312,52,70
42,80,232,143,69,230,53,67
49,85,278,167,73,163,54,69
50,82,276,161,73,81,53,71
51,93,338,195,76,77,52,74
50,95,353,189,76,80,38,68
50,92,327,182,75,81,37,68
45,91,298,161,75,77,37,72
40,93,309,162,71,72,38,66
35,80,255,122,61,59,44,69
37,92,299,153,55,56,43,71
41,107,300,160,54,53,41,75
41,102,301,159,53,52,41,72
46,116,317,159,67,62,45,73
45,123,305,153,67,64,47,71
45,111,263,126,70,64,47,65
45,103,291,132,75,73,46,61
48,106,284,132,81,78,45,59
43,89,255,131,79,78,40,55
44,86,270,134,79,77,30,43
43,88,258,129,83,81,43,50
45,85,261,128,85,84,46,50
42,88,272,124,79,81,51,49
45,89,284,129,75,78,50,51
45,85,299,148,87,90,50,49
46,83,307,147,87,90,49,50
41,78,293,151,82,80,49,57
43,81,301,165,82,78,46,62
40,78,299,165,79,75,46,61
43,85,300,166,64,60,44,65
45,81,306,179,59,54,41,63
49,79,284,168,59,55,39,74
49,83,285,169,59,54,38,70
53,98,296,184,65,59,39,75
53,106,347,172,81,74,46,75
52,120,341,165,81,73,42,81
53,118,332,155,78,71,45,72
49,107,316,138,79,72,44,71
50,99,319,129,80,73,44,69
50,116,325,140,73,72,41,67
48,109,319,144,75,74,41,54
49,112,356,148,78,76,40,47
55,116,379,156,85,80,43,56
52,116,372,151,84,84,44,58
49,92,296,132,76,71,41,57
54,109,307,139,85,80,41,63
51,109,271,140,86,80,45,61
48,111,278,134,77,75,43,63
46,110,285,126,81,73,41,57
46,109,307,147,91,84,42,57
44,85,325,151,85,80,40,57
48,85,324,155,83,78,36,64
46,85,353,164,97,88,37,56
47,87,338,169,97,90,40,64
49,89,308,163,90,83,38,64
48,85,262,141,89,82,38,62
40,84,285,143,91,84,44,57
54,85,234,155,97,93,42,67
51,79,225,148,89,84,41,58
50,81,242,137,89,85,45,63
54,82,264,133,86,80,46,62
55,90,276,157,104,96,39,61
45,86,264,132,84,79,39,61
50,94,349,174,87,82,40,63
57,97,370,194,90,82,36,61
55,98,405,201,89,83,36,62
57,95,399,194,87,82,44,64
52,93,416,196,88,84,43,49
50,89,370,164,90,88,44,53
42,81,402,148,93,91,46,59
40,74,367,143,95,96,45,56
39,71,346,126,87,90,43,59
40,69,350,123,93,96,45,60
40,67,333,139,94,95,51,66
40,63,272,131,91,92,49,80
40,70,261,128,87,85,50,81
37,75,309,152,82,80,47,81
38,88,297,177,82,81,46,84
37,89,308,167,79,81,39,75
38,89,288,165,88,88,44,50
40,94,294,176,88,86,44,55
41,93,278,166,86,86,45,56
46,82,258,143,78,75,45,59
50,86,265,168,79,72,45,65
50,91,311,174,67,61,40,67
50,86,337,180,72,67,42,62
48,84,345,187,76,72,39,54
47,91,365,206,80,76,40,46
45,96,353,185,86,79,38,43
42,95,359,189,89,84,37,41
46,100,342,188,89,82,34,38
46,97,303,170,88,79,45,51
43,91,324,148,86,79,43,53
40,77,329,145,77,73,44,50
39,81,286,133,76,69,44,50
36,73,271,106,74,70,46,54
34,72,274,98,67,62,34,43
44,89,234,121,73,69,39,39
46,88,228,134,76,75,38,39
45,83,218,130,71,68,39,35
43,83,204,131,70,70,38,31
45,86,214,129,70,73,41,33
34,73,211,115,61,65,36,30
30,77,306,105,60,63,40,31
31,76,323,112,59,64,38,31
31,71,326,119,63,66,41,29
31,92,326,137,68,70,41,28
31,90,332,134,70,76,44,32
34,93,253,148,72,81,40,32
32,97,270,156,78,85,45,33
36,103,313,168,81,89,44,35
39,84,318,159,82,86,43,37
37,78,311,153,86,90,41,33
36,77,355,145,87,83,48,31
38,81,332,136,85,79,47,34
39,94,332,171,82,72,61,36
35,96,393,230,87,84,64,35
36,111,390,233,92,78,69,35
37,119,382,237,90,81,66,38
36,115,408,245,86,80,67,36
34,101,384,212,88,83,55,32
35,100,338,177,81,72,55,34
38,89,331,179,73,69,50,36
40,71,298,174,83,74,46,37
40,68,261,167,93,76,44,39
40,74,288,182,101,88,48,38
37,71,248,148,102,86,46,37
34,65,247,151,100,86,54,36
31,62,242,143,89,77,55,33
31,65,243,138,93,85,58,30
30,62,239,112,89,79,52,30
32,66,237,111,91,85,53,28
32,67,240,90,94,88,50,27
30,67,234,94,94,90,52,30
28,67,224,87,80,79,54,30
32,74,251,152,72,74,59,31
28,70,274,169,64,65,65,32
30,68,304,168,68,64,66,31
30,70,296,186,66,60,66,30
29,71,330,201,69,61,64,29
35,75,286,174,75,67,72,34
38,86,295,173,80,70,62,33
37,90,269,175,70,67,63,33
39,97,288,158,74,68,61,32
40,92,249,137,77,72,64,34
34,86,262,147,71,66,53,29
31,74,236,130,68,62,53,29
30,74,228,141,79,67,49,28
32,66,216,135,76,68,47,32
34,75,227,145,74,72,47,32
32,69,219,147,71,69,45,33
35,94,327,185,72,72,46,34
43,98,341,178,71,77,49,41
41,101,336,185,75,80,51,41
42,102,339,184,75,76,47,41
43,105,369,176,74,74,46,39
42,87,293,149,73,72,46,42
36,77,274,148,63,62,42,37
38,70,268,143,61,58,41,33
37,66,258,133,72,61,43,31
37,60,237,133,74,61,46,36
37,59,246,127,76,70,45,34
35,57,265,132,78,74,49,36
38,67,266,132,76,75,51,39
41,89,272,136,68,79,50,40
41,92,287,114,72,85,47,43
42,91,298,113,72,81,46,43
43,94,296,133,76,84,44,41
43,94,319,147,77,82,43,41
37,71,325,149,72,74,39,43
37,69,282,148,65,65,38,35
36,77,237,147,64,60,41,34
35,78,236,135,61,50,35,34
34,76,246,126,67,56,35,34
38,75,236,136,70,57,40,34
38,77,251,141,73,61,46,39
39,69,285,141,72,62,47,40
40,67,306,130,76,69,52,43
39,63,291,126,76,70,54,44
39,98,329,125,71,68,52,44
36,97,328,128,70,68,50,39
35,102,307,125,68,66,50,41
34,106,320,129,63,63,47,39
36,107,378,128,67,67,42,37
36,78,350,116,75,72,43,35
39,78,351,113,76,70,41,35
40,73,347,109,78,70,42,32
40,64,328,100,74,63,41,30
37,65,249,113,63,51,43,27
35,66,248,110,58,51,42,27
33,64,268,117,57,59,45,34
33,67,300,122,52,58,41,34
37,71,307,146,59,64,40,37
35,76,312,129,61,66,41,40
36,78,351,158,61,63,41,40
36,77,355,156,64,63,36,35
36,75,348,165,75,74,45,39
34,75,331,143,75,73,48,35
33,67,332,148,75,73,47,36
36,64,305,130,72,72,47,38
38,62,265,122,69,68,52,38
41,69,278,132,70,68,48,36
42,70,264,139,70,69,43,36
44,71,341,154,73,72,45,34
46,90,328,153,75,71,42,42
49,90,328,156,80,77,55,47
45,83,290,137,68,65,51,46
43,79,285,136,66,64,53,47
45,84,173,115,73,72,54,49
39,62,165,104,70,71,55,40
33,63,164,98,66,62,45,34
38,78,192,124,79,78,50,35
44,78,193,133,79,79,54,48
41,73,191,133,78,80,59,45
42,74,185,127,80,83,61,45
45,73,183,129,87,88,66,51
47,62,220,126,84,81,67,54
43,64,260,132,94,85,65,46
42,59,269,142,91,77,64,46
42,58,267,143,90,73,64,48
42,65,288,148,83,69,52,42
44,88,266,146,80,71,53,42
48,100,281,155,75,71,55,45
46,102,288,149,70,69,48,44
48,108,323,153,80,80,45,44
49,110,314,150,82,81,45,46
44,88,310,144,79,77,40,45
39,72,296,126,73,74,38,40
42,72,276,131,82,80,40,40
41,64,255,134,81,82,40,37
40,71,322,170,85,89,44,39
41,75,316,163,84,85,43,39
42,75,306,159,83,82,41,38
42,76,309,163,79,77,41,37
42,77,315,168,79,75,41,39
41,64,264,135,74,69,40,35
41,73,269,150,79,79,41,30
37,72,270,146,81,81,42,30
35,87,283,139,81,84,42,31
34,86,264,134,72,75,41,29
30,86,235,124,66,71,40,28
27,77,290,116,67,68,38,29
27,90,276,123,74,72,38,28
29,81,259,115,67,62,36,27
30,78,245,109,70,65,40,27
29,80,246,115,77,73,41,27
31,79,195,124,71,69,39,26
30,67,193,120,78,73,42,27
27,55,189,120,80,78,40,26
47,93,283,209,87,88,43,49
51,92,286,211,84,81,40,49
53,98,269,208,85,82,41,54
53,97,262,210,68,73,38,54
54,105,290,219,78,79,45,54
38,76,224,136,70,67,39,35
35,75,216,144,75,75,40,36
33,75,264,176,78,78,41,30
35,81,278,182,87,87,41,29
34,75,256,175,82,80,34,33
39,83,262,182,86,84,34,38
41,96,273,183,84,78,33,38
42,98,252,162,82,76,36,38
46,103,298,166,76,67,45,39
48,100,296,175,85,81,46,37
44,92,274,165,89,83,47,33
54,80,273,155,84,82,46,35
53,69,252,140,84,79,41,34
48,54,181,123,83,80,32,37
46,55,272,108,68,63,32,40
52,70,296,119,62,60,35,42
40,71,310,117,67,64,38,41
44,76,315,115,62,63,39,42
45,74,326,117,62,61,36,39
45,74,275,125,68,66,38,37
42,75,263,120,67,65,45,37
41,76,253,115,63,60,43,44
37,76,247,129,60,57,45,43
38,89,224,128,71,67,48,47
39,93,210,123,67,64,47,49
35,82,199,130,65,61,36,46
32,76,211,137,69,65,36,36
36,71,224,120,69,66,34,35
36,56,232,120,65,61,34,33
38,54,229,116,68,63,31,30
42,54,242,104,69,67,33,30
44,56,223,92,65,66,39,32
41,57,246,106,72,68,41,35
40,57,250,113,73,67,40,34
38,58,274,116,72,67,41,35
39,63,270,117,66,59,46,41
37,64,277,116,71,64,44,40
42,66,244,101,72,68,43,40
45,63,247,92,66,66,43,42
44,57,206,86,64,66,41,41
39,65,232,86,77,73,38,36
39,62,248,105,78,71,36,37
32,58,285,110,79,68,36,33
32,63,275,108,79,67,35,34
30,70,287,110,78,64,37,33
38,63,275,115,73,61,33,36
39,63,261,101,68,59,36,35
40,62,204,92,58,53,37,36
37,59,221,101,61,56,34,32
39,80,258,147,72,71,34,33
35,92,296,148,72,70,37,29
32,95,286,153,74,72,34,31
36,98,360,168,81,78,38,34
36,98,351,172,77,77,46,35
45,88,331,143,69,66,45,35
44,79,301,145,67,66,43,34
48,99,331,151,61,63,42,33
47,103,313,161,63,68,37,35
49,105,362,190,70,73,30,36
40,99,366,183,73,72,30,40
40,100,356,180,74,73,29,40
38,75,339,173,79,75,29,39
41,74,288,150,71,65,30,37
42,89,269,154,99,92,30,33
44,89,295,169,102,98,31,30
44,88,302,175,101,95,31,29
44,93,307,175,97,93,32,29
41,96,347,204,99,94,33,29
36,77,313,173,66,59,36,27
35,79,305,172,57,51,41,29
35,78,316,175,57,55,41,29
36,76,321,176,65,64,41,30
36,66,290,151,67,65,38,30
40,66,298,149,67,71,36,35
38,59,301,136,70,71,39,33
38,55,282,121,69,69,41,35
38,54,255,121,62,63,39,34
36,55,235,110,58,64,38,33
35,62,274,104,67,69,42,30
38,62,224,97,68,69,33,32
35,63,250,108,67,67,32,33
35,63,261,110,72,71,31,31
37,65,279,118,88,83,37,34
35,64,237,120,85,76,34,33
33,62,239,130,86,77,34,36
34,60,270,139,88,76,33,36
38,64,266,135,85,74,37,39
37,76,260,142,86,69,34,37
35,76,255,143,81,69,32,36
36,81,287,141,81,71,31,33
36,80,258,125,82,73,42,32
35,79,268,121,81,73,44,31
42,87,355,182,68,65,43,37
42,84,370,178,71,65,43,39
43,81,394,173,78,74,45,39
43,85,404,178,74,73,37,36
42,91,424,187,78,78,43,36
40,76,350,115,81,77,45,35
42,78,338,113,77,76,48,34
40,74,321,120,77,69,45,35
43,70,319,130,80,71,46,41
41,63,302,119,77,68,39,41
35,59,307,126,71,72,39,40
35,64,329,137,74,75,35,39
35,72,307,152,76,80,34,36
39,71,294,146,85,87,36,28
39,68,298,158,85,87,34,25
42,82,405,200,90,89,33,22
48,81,395,206,92,88,34,32
48,81,425,207,91,90,38,34
44,82,412,202,81,81,36,34
44,86,402,203,88,83,43,37
42,80,311,176,89,84,47,41
42,83,315,163,85,82,48,41
42,80,258,147,79,70,45,42
40,82,303,158,81,74,44,44
41,80,312,142,73,69,36,42
43,76,314,115,74,64,34,39
35,75,334,120,72,63,36,33
35,71,336,113,67,61,37,32
36,68,293,92,68,64,38,31
33,62,286,104,77,64,36,32
33,57,278,125,65,62,33,31
33,51,244,119,74,66,29,33
37,56,247,135,80,73,32,34
36,57,242,145,82,72,29,36
36,72,272,141,74,70,31,35
42,84,280,120,77,74,31,35
43,89,333,147,87,88,32,35
40,90,347,146,83,85,30,32
40,89,347,141,84,87,31,29
42,95,343,161,86,90,30,30
36,85,340,170,89,90,30,36
34,78,288,149,81,75,29,35
40,92,295,168,101,87,33,42
41,94,319,175,104,85,34,42
39,79,308,162,105,85,35,41
37,75,294,154,105,81,37,37
38,75,299,163,103,84,38,42
30,57,285,133,86,70,37,37
33,70,323,131,79,67,36,39
37,72,307,132,76,68,36,40
36,75,388,154,78,72,38,42
37,77,373,142,71,63,40,38
43,110,392,166,66,63,38,40
47,107,400,163,73,65,40,44
44,107,407,163,78,66,42,44
51,130,361,169,77,67,43,43
50,131,378,170,81,71,40,41
48,103,344,150,85,76,45,39
42,101,291,146,79,73,43,35
43,102,319,152,75,74,45,32
37,73,292,126,66,66,42,32
43,76,313,134,75,74,42,34
43,83,344,127,70,72,36,38
44,78,341,122,73,80,38,37
44,75,295,104,67,73,35,40
42,78,301,103,70,79,36,41
37,73,268,84,58,70,37,40
36,63,249,94,60,69,37,35
39,106,284,107,63,63,35,44
42,121,327,111,73,71,36,46
46,158,333,105,86,72,36,45
50,163,341,115,90,74,38,52
52,171,340,115,97,76,40,54
53,160,342,114,98,81,39,50
55,160,307,114,104,89,42,49
55,141,316,139,96,89,41,49
51,141,301,133,93,87,38,43
49,136,306,130,85,85,39,41
46,130,270,134,80,83,45,50
44,139,299,132,71,77,41,47
41,138,291,130,78,81,45,49
41,132,295,132,81,85,46,49
48,134,299,147,93,95,52,55
45,135,298,141,101,95,46,45
46,114,283,153,102,95,46,50
47,120,241,141,104,92,41,48
50,121,264,140,106,93,41,53
44,116,233,131,104,93,31,45
44,111,225,127,96,89,38,50
38,114,240,109,88,84,37,46
36,82,249,105,86,81,41,51
36,93,290,104,92,85,41,52
34,96,329,114,86,77,41,52
39,96,339,114,87,81,37,47
42,99,320,123,98,90,42,49
43,102,333,122,94,92,38,44
41,97,314,123,91,87,42,44
41,92,271,101,85,81,41,47
39,91,270,114,89,82,42,47
40,100,270,112,96,100,39,51
40,111,259,120,95,101,49,52
39,115,234,121,89,101,47,47
39,117,246,127,91,102,48,43
44,120,249,123,87,101,46,41
41,113,238,116,76,77,46,35
41,108,306,104,77,77,41,38
43,96,291,106,79,75,40,37
44,101,315,111,82,80,39,37
40,100,338,110,82,78,41,42
43,98,345,117,74,71,38,43
42,95,286,134,71,71,37,41
42,97,316,130,75,75,38,42
47,111,335,130,76,76,41,50
44,105,306,121,80,78,40,50
39,96,325,108,84,83,43,49
40,103,330,91,84,81,44,45
41,132,394,126,89,82,45,50
39,118,357,121,87,82,46,44
41,119,355,122,83,77,47,42
50,177,373,146,86,79,45,42
53,173,365,144,96,83,44,54
56,161,280,133,94,85,44,52
57,165,279,133,93,82,47,54
57,167,285,139,92,83,49,57
49,108,222,122,92,80,49,55
46,108,233,127,79,73,45,45
43,100,245,111,71,64,43,51
40,92,268,130,86,75,39,55
39,84,254,120,88,77,43,52
40,81,266,123,80,75,43,53
45,112,263,126,88,81,46,53
44,113,273,131,102,95,49,46
43,120,271,126,88,87,47,40
44,122,271,127,82,85,44,43
47,128,273,126,87,87,44,45
42,109,279,118,77,79,40,41
42,101,285,117,58,63,38,39
40,91,279,96,57,64,39,43
44,94,299,110,63,67,35,42
44,103,327,117,60,65,37,39
44,93,324,120,61,67,42,40
45,104,377,151,68,75,48,39
45,106,400,159,78,80,55,32
40,100,404,156,80,80,58,31
37,85,380,152,80,80,54,33
33,85,395,155,81,84,52,31
30,68,305,114,75,79,45,29
30,64,260,106,63,69,35,31
28,84,241,101,55,61,34,29
26,88,260,104,65,69,36,25
28,91,223,96,63,62,33,26
30,98,219,95,69,61,38,30
32,99,221,100,69,63,38,31
36,100,293,139,78,70,51,36
37,98,290,137,70,63,50,38
43,104,295,146,70,64,50,43
42,101,297,145,63,60,46,42
42,104,296,162,68,63,50,43
41,100,284,146,58,55,33,38
41,97,272,140,60,53,33,36
33,85,270,148,67,62,38,36
35,86,274,162,68,62,36,35
33,91,316,147,66,63,32,33
32,87,271,133,64,62,32,35
31,93,278,136,61,59,31,34
34,95,291,117,52,51,28,31
36,109,299,118,64,64,40,33
36,101,270,119,65,67,40,32
39,102,254,117,70,70,42,36
40,102,250,114,72,72,45,37
40,102,256,127,80,75,43,35
39,105,268,129,69,68,37,34
39,106,274,126,68,65,39,34
36,108,332,140,67,65,38,30
37,106,327,155,68,64,39,39
36,112,324,158,66,63,39,39
35,102,315,149,72,62,38,39
33,99,301,146,69,58,43,44
33,96,313,138,66,56,42,43
32,91,321,121,61,55,41,36
32,94,332,108,53,53,43,39
30,88,336,103,53,60,43,38
28,91,331,99,56,62,42,36
30,97,291,90,60,65,43,38
32,100,291,98,65,65,42,39
30,96,289,91,66,66,40,43
33,98,288,97,60,60,42,45
36,100,280,102,68,65,40,48
35,94,296,108,69,64,40,46
33,95,319,109,71,68,47,47
38,99,326,122,72,64,46,43
37,104,308,112,75,66,45,44
36,107,316,111,68,61,45,44
38,113,322,141,67,60,48,44
40,127,368,158,68,59,44,48
39,118,348,148,73,63,45,48
39,119,354,155,74,64,47,51
40,119,379,158,72,65,42,48
37,107,351,124,76,71,42,48
36,86,259,93,75,73,47,46
35,89,245,103,68,71,46,41
34,93,251,98,66,70,47,36
36,94,202,112,74,75,49,38
38,92,190,122,70,70,50,39
38,88,236,135,79,75,48,39
38,99,274,129,85,79,47,45
41,96,267,145,82,76,46,46
38,98,276,132,90,84,46,44
40,110,312,127,90,86,44,43
40,113,279,114,82,82,46,40
38,114,258,119,80,82,48,38
38,107,265,109,81,83,48,41
40,107,266,118,63,68,47,43
39,115,250,132,61,64,46,43
41,115,248,134,62,63,37,46
42,100,247,127,53,54,36,44
39,100,252,130,58,60,34,39
39,100,255,128,64,64,34,43
37,85,231,116,69,65,33,41
36,88,246,124,68,64,32,37
35,96,232,129,68,64,35,40
36,103,251,120,70,63,40,41
34,98,302,121,68,62,41,35
36,93,296,117,70,64,39,43
35,89,298,106,74,73,42,44
35,89,317,101,89,85,39,45
38,88,302,108,87,84,36,48
38,95,264,94,88,86,34,49
35,102,289,110,91,90,34,42
36,109,295,117,90,84,34,41
37,113,295,118,83,75,39,38
37,112,292,114,84,72,40,37
38,108,307,130,91,82,42,35
39,99,308,124,88,75,40,37
39,98,321,133,84,71,38,37
38,93,310,140,83,72,32,35
37,94,319,147,80,74,30,32
34,89,299,145,77,68,28,30
33,100,308,145,71,67,29,30
33,102,317,140,78,72,35,28
37,103,322,157,80,79,35,29
36,95,345,164,81,79,34,32
41,98,354,175,80,77,35,34
43,91,353,170,80,75,38,34
42,84,331,175,71,70,34,40
38,82,346,161,64,61,35,41
36,77,303,145,60,55,35,40
36,95,317,127,51,53,34,42
36,107,341,140,55,57,31,42
36,118,349,134,60,60,33,38
38,120,329,120,60,58,32,36
40,134,340,122,59,58,30,38
43,122,307,130,63,60,30,45
43,110,278,120,68,64,31,44
46,116,280,120,64,61,30,46
45,114,293,145,78,77,30,48
43,99,294,144,95,97,33,44
39,97,289,136,92,95,33,41
35,96,274,137,87,93,33,41
35,81,256,142,90,94,36,40
42,94,280,127,84,86,39,44
44,113,309,125,67,67,38,43
42,119,377,125,68,67,41,37
42,118,367,119,67,67,41,37
39,113,358,107,65,68,40,46
37,108,342,113,56,62,40,45
37,103,386,129,61,66,44,49
35,100,338,124,63,66,65,50
35,103,351,125,64,66,79,49
36,101,378,137,69,67,81,40
32,91,358,127,77,71,80,42
31,75,263,107,75,66,79,44
32,69,243,118,70,64,65,44
34,70,245,123,75,66,52,45
37,82,273,112,77,67,47,48
36,80,286,108,76,69,46,44
34,79,306,109,74,69,45,37
38,88,340,100,79,70,47,45
38,99,362,114,76,69,41,47
38,93,335,132,73,72,42,43
38,90,324,133,67,62,41,42
39,93,319,134,67,64,38,44
36,99,345,146,75,75,36,34
34,83,308,130,71,70,35,37
31,76,290,111,73,66,36,39
31,79,299,110,74,70,37,40
31,94,326,113,87,85,38,38
32,90,271,105,79,77,38,40
38,101,287,109,83,81,36,45
41,102,292,104,74,77,34,45
43,108,323,108,75,76,33,48
44,98,287,122,59,57,34,50
44,90,274,119,58,56,31,46
40,85,250,118,56,52,32,37
41,82,244,116,70,66,34,40
42,87,217,120,83,78,38,40
41,82,213,103,83,79,35,38
40,89,213,104,82,78,36,43
43,91,274,127,84,82,41,43
38,91,272,132,78,76,40,41
41,101,291,134,61,60,36,42
40,101,292,132,62,58,38,40
40,112,395,170,70,65,36,39
40,104,366,159,69,67,33,40
42,118,385,171,98,92,38,43
35,104,381,182,102,97,40,39
37,106,385,183,103,100,38,41
35,93,279,146,101,100,39,39
38,109,326,163,117,115,40,39
40,105,324,159,97,100,41,34
39,106,308,144,103,105,41,38
39,113,388,165,107,107,43,39
43,113,394,163,102,102,44,41
41,100,352,145,91,91,42,43
39,89,349,130,85,85,42,45
41,94,399,130,82,80,41,44
40,84,336,106,84,81,40,41
45,97,355,125,99,94,40,43
43,98,416,124,95,89,43,40
51,113,425,123,98,92,42,52
54,141,406,119,110,104,48,56
57,147,423,117,106,100,51,57
53,148,436,99,105,99,50,53
63,207,449,121,105,99,49,56
59,231,491,129,111,105,46,39
55,222,486,133,97,93,40,33
54,226,474,148,96,96,35,33
56,239,464,149,93,88,38,33
49,192,412,130,93,89,37,37
48,171,362,130,87,85,37,36
54,189,334,129,89,86,41,40
56,201,349,120,91,82,45,41
56,180,341,117,86,86,51,42
53,193,345,123,89,85,50,38
51,188,328,129,86,81,50,41
46,159,349,135,93,88,47,42
48,151,358,143,91,92,48,44
52,179,365,158,91,90,40,48
54,173,343,151,93,91,42,51
59,180,355,147,99,96,44,53
59,191,358,137,92,90,49,49
57,176,355,127,90,86,49,47
67,181,410,127,102,92,48,43
75,275,421,123,103,93,53,39
74,279,406,126,101,89,53,39
78,280,434,139,101,89,51,41
76,281,430,137,100,88,49,45
66,262,375,137,92,84,55,44
57,177,391,166,84,80,54,45
56,163,391,167,81,80,58,49
50,154,344,156,89,80,57,49
49,158,363,177,92,83,58,46
47,154,348,175,90,82,57,50
46,138,371,158,85,78,54,58
42,135,376,153,88,78,47,55
49,126,367,152,80,74,50,56
48,116,313,130,93,90,57,54
47,120,314,121,95,88,53,53
48,115,267,118,109,101,51,44
49,109,263,121,106,99,52,45
50,126,304,129,103,99,53,44
52,138,353,148,92,83,51,49
57,136,385,155,90,82,48,50
56,134,366,152,70,63,53,52
56,147,370,152,75,67,52,46
52,146,364,154,75,64,49,48
62,137,336,137,80,72,51,44
61,159,330,131,78,71,53,45
61,156,338,137,92,80,53,48
60,144,365,159,94,87,53,48
60,137,365,167,94,88,50,45
50,150,352,170,91,86,41,51
58,125,336,179,93,89,43,112
60,140,336,177,81,83,43,133
70,153,293,159,74,72,45,148
85,170,270,163,77,80,52,155
85,162,277,162,65,71,54,156
76,159,252,155,64,69,53,121
77,147,251,157,72,76,51,100
70,141,260,156,81,84,51,88
58,124,288,162,83,77,44,85
58,115,265,157,83,78,46,83
63,118,264,149,80,76,43,85
57,111,265,139,72,67,43,90
54,105,327,168,70,61,44,94
51,93,292,138,63,59,52,89
50,107,322,146,73,63,50,89
55,134,352,158,71,60,48,89
57,131,343,162,73,65,54,85
58,124,285,124,66,60,59,70
52,125,303,138,69,66,57,61
52,127,274,129,69,71,76,60
45,103,250,123,72,73,123,75
45,111,254,131,71,71,125,79
54,121,263,146,86,84,122,79
53,117,245,134,81,78,123,81
55,110,263,140,71,68,113,84
54,111,350,165,77,73,71,92
62,114,369,164,83,77,64,90
59,101,374,155,66,61,66,110
61,119,376,156,76,70,62,118
