55,135,291,178,268,152,53,55
50,117,270,184,259,151,51,36
55,118,296,223,249,144,40,33
50,115,297,214,265,123,42,34
47,112,304,214,239,121,42,38
45,109,311,212,224,110,59,61
48,103,295,219,226,119,65,63
40,86,206,167,218,110,66,65
31,71,189,159,155,98,65,65
32,96,193,137,123,85,63,62
34,101,167,139,141,88,46,40
37,141,245,127,144,71,40,39
39,160,283,135,165,79,37,37
38,160,290,150,197,79,35,33
37,144,276,152,196,77,35,31
39,138,285,148,183,72,36,32
36,133,312,140,179,81,32,30
34,117,288,189,240,72,34,26
35,119,283,178,225,84,35,27
36,124,273,182,241,89,34,28
35,126,265,196,246,86,40,26
34,116,174,200,257,83,44,28
33,125,184,148,186,79,42,27
34,125,182,170,214,72,48,36
35,125,177,164,201,77,59,61
34,132,196,140,192,76,58,62
32,121,230,140,192,70,55,61
40,114,231,145,185,76,68,129
40,121,243,114,143,81,97,158
54,155,352,140,135,101,276,247
72,155,387,159,129,112,317,315
75,162,426,158,99,141,330,348
91,268,486,166,110,145,343,352
95,285,500,166,134,147,345,352
89,277,465,150,136,133,230,298
85,286,440,128,140,128,175,262
87,294,405,122,139,99,155,247
71,211,343,102,127,87,119,219
66,185,337,105,125,84,86,201
68,188,371,115,135,98,151,209
58,174,386,116,138,99,161,165
61,181,371,127,142,104,173,118
65,213,368,132,148,111,181,124
68,224,347,134,140,110,183,123
80,235,263,113,127,100,161,153
82,255,251,121,139,99,158,151
80,239,252,114,133,104,149,159
75,211,231,119,147,109,142,151
80,246,257,118,145,111,144,161
70,226,269,118,144,117,110,148
66,219,272,109,120,115,104,148
61,233,282,117,153,109,104,144
61,229,283,112,173,107,104,141
61,191,287,106,169,102,98,173
67,200,293,108,180,94,103,149
70,179,268,101,182,95,92,164
73,154,238,94,165,90,80,159
77,168,236,88,143,84,76,160
72,153,221,85,133,79,79,161
68,168,248,97,118,74,76,153
67,169,263,113,120,84,77,156
63,165,256,118,124,93,78,156
61,164,265,125,112,90,82,154
63,182,286,145,140,95,80,139
56,151,237,136,149,95,73,147
55,154,236,128,164,89,72,125
56,171,238,120,172,89,83,124
53,167,320,145,167,95,82,129
43,153,299,128,158,92,79,89
54,158,296,134,158,91,86,99
56,157,303,137,157,100,82,143
54,143,313,142,151,93,65,146
54,130,218,111,160,86,67,145
54,136,201,115,170,90,87,154
44,127,209,113,157,88,80,139
43,123,184,116,151,75,88,88
40,121,159,106,137,66,119,81
36,109,161,105,129,68,116,73
39,104,160,110,132,76,111,43
44,119,175,105,149,73,120,115
43,119,195,113,156,69,121,134
46,118,218,117,161,73,109,140
47,142,219,112,159,72,110,140
48,138,232,109,139,59,106,141
47,131,233,122,128,68,97,94
43,135,232,98,118,71,91,63
43,138,245,105,130,70,71,47
40,115,237,106,133,66,79,45
39,110,228,109,135,64,74,59
34,97,217,94,132,56,73,61
39,144,216,102,123,57,72,62
40,159,169,91,124,75,71,63
44,177,215,101,132,80,63,65
40,182,230,111,143,84,60,45
50,195,276,130,158,84,70,54
54,167,287,131,178,87,72,116
53,157,308,139,174,74,75,120
53,183,325,136,167,71,87,121
56,179,319,122,150,68,105,123
49,183,336,139,136,73,105,118
44,176,318,143,106,66,206,64
46,173,317,135,115,64,219,82
45,155,281,134,124,64,227,86
44,162,278,132,133,69,252,85
70,206,245,114,128,63,278,87
78,237,286,123,131,65,241,81
77,233,280,137,121,71,300,56
77,214,307,157,130,71,302,45
79,220,310,157,141,70,277,61
63,189,308,149,142,72,254,62
53,174,303,163,159,81,240,63
59,212,326,157,149,79,186,65
67,233,324,160,145,85,192,66
66,231,328,162,134,94,206,48
62,215,311,153,134,93,198,41
64,200,300,127,121,84,191,40
59,172,282,138,138,91,157,39
46,143,257,121,134,90,138,36
46,133,284,133,133,74,116,35
44,126,294,143,137,73,127,35
38,133,296,141,135,73,118,31
35,124,308,128,114,63,111,31
34,131,305,115,119,59,111,29
36,141,279,100,132,65,123,29
37,149,262,90,134,65,113,31
40,132,227,85,126,66,123,36
47,131,196,97,152,71,135,35
48,127,232,97,183,74,141,38
47,107,228,93,178,69,131,38
46,104,236,94,171,67,141,70
46,123,275,119,179,70,135,71
43,129,269,116,193,64,128,69
42,130,219,114,154,54,105,68
37,130,219,116,160,68,102,68
39,142,205,114,212,83,84,35
35,145,189,94,210,78,71,29
41,184,254,78,180,89,61,32
43,183,265,81,179,88,85,30
44,187,272,74,166,79,84,26
46,185,286,77,135,67,87,27
48,175,266,65,135,68,87,28
44,128,204,62,132,57,77,27
44,140,205,66,138,70,67,28
43,132,188,73,139,70,70,30
40,117,165,69,101,75,67,27
45,122,209,93,99,76,69,27
39,111,214,95,101,75,67,24
42,110,203,88,90,65,55,23
42,108,193,84,159,63,51,23
46,123,216,85,164,60,51,24
41,118,182,61,159,54,48,24
40,117,174,65,160,51,45,25
38,110,175,77,182,54,36,26
41,111,182,79,151,53,34,26
41,104,157,77,145,51,32,26
45,103,146,77,152,58,34,27
46,102,151,83,160,70,35,26
47,95,148,85,140,72,40,25
45,98,159,81,117,73,41,25
41,92,148,89,126,76,40,24
35,81,152,91,117,72,38,21
37,87,149,85,104,58,36,22
35,92,148,79,138,52,31,22
36,90,150,85,137,49,30,24
35,99,169,76,132,40,30,25
32,98,151,75,153,42,27,26
35,106,148,82,159,41,28,25
31,97,152,88,138,44,27,24
31,99,138,91,180,74,27,22
29,85,127,93,198,84,26,21
31,106,156,92,186,85,27,19
26,100,162,88,186,88,25,19
27,104,178,84,192,86,25,19
27,102,175,90,161,61,25,19
28,105,173,113,162,58,28,18
30,91,155,115,168,57,29,21
30,89,157,117,171,58,31,21
30,90,139,115,172,59,30,21
28,100,168,107,165,63,29,20
28,98,170,85,158,68,25,21
26,98,174,87,159,65,23,18
24,92,171,84,160,66,22,18
28,92,161,82,144,66,22,18
28,84,144,77,141,61,21,19
30,84,161,78,127,55,24,18
29,74,163,79,125,86,25,19
34,84,168,74,114,91,28,19
31,86,176,88,128,93,28,20
37,93,172,98,156,102,31,21
35,91,150,93,158,107,31,21
38,112,139,86,151,87,31,23
34,112,140,94,157,86,29,22
40,123,153,92,181,94,30,26
34,115,141,82,163,89,27,24
36,119,149,80,154,79,26,26
32,100,172,87,155,77,26,24
35,95,166,100,196,80,30,26
27,69,141,104,198,79,30,22
30,77,154,116,257,84,31,28
31,113,171,119,262,86,31,26
34,123,177,130,276,104,37,30
33,123,169,122,255,98,37,30
33,128,172,113,236,90,36,31
32,127,173,101,165,80,35,26
30,98,159,105,166,77,34,26
33,109,152,94,170,58,32,25
35,122,174,93,182,57,28,25
36,122,184,101,200,68,29,24
36,115,175,111,222,76,31,24
34,113,176,107,227,74,31,23
34,92,158,101,208,75,27,20
31,82,150,96,184,74,28,19
30,75,142,92,165,66,28,20
31,99,174,79,142,58,26,21
34,98,166,75,126,64,29,25
28,105,185,87,135,63,28,24
27,97,183,103,152,63,27,25
26,98,180,106,149,66,27,24
25,79,166,108,143,75,34,26
27,100,164,116,156,73,32,25
29,96,148,116,160,73,33,25
32,108,186,123,158,82,34,26
36,123,215,120,165,83,35,28
40,150,227,117,175,78,61,31
39,141,247,110,168,86,69,67
40,150,295,120,171,101,71,74
41,143,273,108,169,102,73,75
44,163,265,105,152,101,72,76
39,142,280,118,138,105,66,75
38,140,309,133,148,109,73,72
37,131,264,125,149,111,76,66
36,133,284,135,143,134,81,67
33,127,296,146,149,149,85,67
36,131,284,141,167,159,76,68
42,148,294,132,154,158,68,40
43,157,322,140,151,150,71,39
48,181,346,130,158,125,86,64
50,170,348,123,159,109,87,149
51,173,341,128,153,103,113,154
46,170,323,136,160,105,120,155
45,170,323,124,149,105,117,158
43,160,310,136,140,108,108,154
48,233,307,143,184,105,107,84
52,246,311,140,181,109,96,79
56,240,275,129,177,109,91,79
55,235,241,130,182,107,98,75
61,253,222,114,174,105,93,62
57,202,220,96,130,113,110,52
55,206,282,109,125,104,95,44
54,205,288,108,123,96,94,38
55,212,315,109,116,101,86,37
46,179,308,112,119,108,87,37
54,207,302,111,118,106,65,35
57,209,261,97,119,102,62,34
56,225,297,102,146,108,73,32
62,243,306,100,140,100,74,32
61,248,331,106,155,93,77,31
51,209,332,108,159,94,72,28
46,199,337,115,159,94,71,28
47,187,336,121,141,86,53,29
43,171,307,129,154,84,56,30
44,172,307,127,144,90,71,29
46,170,300,139,147,81,78,58
48,171,286,133,144,78,78,60
55,185,271,122,132,74,82,61
54,196,280,114,118,84,97,63
57,207,300,119,122,85,90,64
57,214,302,110,147,99,153,67
54,207,301,120,153,114,160,67
53,213,306,136,170,120,167,70
53,207,311,142,184,119,159,69
55,213,278,130,186,118,171,70
56,211,282,125,161,108,121,45
65,228,270,117,157,103,137,47
62,214,257,111,155,102,128,68
58,230,249,102,139,93,137,68
62,232,272,108,129,83,121,69
60,236,277,105,124,81,115,70
60,251,287,112,145,88,93,68
57,242,281,106,160,103,98,41
65,229,290,104,168,113,84,39
58,213,257,99,163,114,92,34
60,234,265,108,163,117,101,39
52,209,266,105,159,106,95,38
54,215,261,96,133,91,87,38
45,193,235,91,124,80,83,36
45,189,232,85,122,80,65,36
47,160,204,88,155,79,49,30
43,136,177,80,139,74,47,29
42,138,189,83,148,71,49,29
41,156,200,92,155,74,61,29
37,150,198,94,173,75,61,28
33,140,197,97,161,73,64,25
33,145,205,98,160,73,67,26
33,141,196,95,146,66,63,25
37,131,192,99,185,88,56,26
39,134,183,101,182,87,55,28
45,144,187,89,168,83,54,28
49,153,186,91,171,94,65,31
56,207,219,113,191,104,69,35
55,216,218,104,144,86,66,34
63,224,223,102,127,89,71,35
59,230,226,110,135,100,69,34
57,230,232,105,127,90,69,32
68,253,290,100,97,82,69,34
67,256,302,105,98,81,72,33
61,245,295,108,103,74,70,30
62,241,290,97,90,60,68,30
64,235,287,100,97,58,61,30
76,183,219,103,119,69,63,37
80,164,212,103,148,84,61,38
85,175,234,101,154,87,75,42
99,196,287,104,148,84,84,47
101,197,284,101,141,81,97,48
89,216,292,105,149,82,104,45
92,263,308,113,124,65,127,46
90,279,310,121,126,70,121,44
73,259,260,125,136,79,133,39
71,279,281,134,145,81,127,39
60,259,288,124,119,68,121,34
51,228,285,117,118,70,97,32
50,210,275,105,103,67,94,31
51,219,283,101,90,61,75,30
47,190,265,94,87,60,67,29
49,173,222,91,95,64,67,27
49,153,201,90,97,65,67,29
46,147,192,92,111,65,69,29
46,130,177,104,130,71,74,27
53,161,186,101,126,70,74,28
55,187,245,98,115,69,71,25
53,188,243,93,106,67,77,24
52,194,251,98,92,69,76,25
54,209,301,108,68,63,63,27
47,188,291,112,86,68,58,25
46,178,252,115,90,68,63,27
48,190,267,123,107,68,57,27
49,183,290,122,105,60,53,26
46,172,231,99,114,65,52,25
54,194,248,97,122,68,53,28
56,217,244,92,127,68,42,27
55,231,238,81,117,68,42,27
55,233,221,106,157,81,41,27
57,228,224,124,165,80,38,28
51,220,214,127,158,78,47,23
44,199,240,131,157,81,50,23
49,182,280,137,156,79,65,26
46,176,273,119,127,71,67,25
47,199,277,103,116,70,66,26
51,202,283,103,119,69,61,30
50,190,259,103,158,66,61,29
49,190,222,93,165,73,37,25
51,187,212,88,158,71,33,25
48,169,216,87,154,67,36,24
46,149,203,80,141,62,41,22
45,141,207,74,100,61,41,25
40,120,173,81,126,69,43,25
47,139,201,92,137,77,47,30
50,141,201,90,143,86,46,31
49,171,219,93,153,92,38,29
58,205,227,88,152,92,35,27
62,224,236,82,129,94,52,29
55,214,219,75,126,89,48,24
55,225,236,76,133,80,48,24
62,262,259,87,143,78,51,30
59,248,276,101,138,78,51,31
57,236,276,103,144,63,40,31
63,269,284,105,146,61,42,34
60,254,261,104,136,63,42,33
52,238,229,96,121,56,39,30
51,227,189,91,131,54,50,29
48,223,181,88,119,52,45,27
53,246,210,94,110,55,48,25
56,248,209,103,120,50,46,23
59,209,194,104,126,58,47,24
59,227,215,104,126,79,57,31
64,237,227,107,130,81,58,30
60,205,193,99,131,79,58,31
58,223,211,93,126,82,59,32
53,235,211,90,120,82,63,30
53,246,219,86,115,63,49,24
50,245,226,84,111,59,47,25
43,216,236,84,112,56,52,24
52,230,225,88,106,58,54,27
61,229,239,97,104,59,50,33
60,209,219,95,109,64,56,34
61,203,214,100,114,67,55,37
63,212,207,106,109,69,55,37
60,191,234,100,104,66,57,37
58,186,230,111,117,62,57,37
63,204,231,114,118,64,49,38
62,201,226,108,113,60,48,35
63,200,226,111,109,60,37,35
57,180,194,125,135,63,42,35
49,169,189,108,128,63,43,32
42,135,185,102,116,56,45,29
40,138,180,102,124,59,47,29
38,132,179,93,126,58,56,29
44,150,204,73,115,72,51,27
44,144,202,77,124,73,50,27
45,150,201,89,139,74,50,28
46,162,211,92,158,81,50,30
50,168,195,86,161,82,46,31
49,179,197,84,177,92,43,31
51,192,208,91,167,91,42,30
49,189,229,85,154,88,40,28
52,172,217,86,129,81,47,27
48,181,238,98,131,83,47,29
52,191,231,102,112,59,49,29
55,183,221,91,108,54,51,31
56,203,222,115,143,64,62,35
54,209,236,115,140,63,57,34
58,206,215,114,147,65,54,36
53,181,204,110,139,65,60,35
55,218,216,143,174,75,61,37
58,216,199,123,153,69,50,35
62,243,217,122,165,73,54,36
70,316,280,129,158,72,58,38
78,347,295,130,159,72,52,41
77,339,302,97,120,67,51,39
79,348,314,98,121,68,58,41
76,333,300,107,109,67,54,40
67,270,278,94,105,64,61,36
57,229,258,91,102,66,66,35
54,217,288,97,102,65,64,35
47,218,295,112,101,65,60,33
54,230,314,118,103,64,60,33
49,211,285,116,115,60,54,29
50,214,304,116,110,51,49,28
53,210,252,110,118,49,48,26
57,181,219,92,110,49,47,27
53,160,177,73,107,46,46,27
51,160,169,69,91,46,34,27
55,173,151,72,88,48,40,26
52,166,157,66,69,41,42,26
47,163,175,73,74,45,41,22
43,155,171,71,69,47,41,21
44,153,164,79,71,51,41,22
35,124,144,83,85,52,35,22
37,128,158,85,95,54,36,23
36,115,130,82,98,49,43,23
38,114,143,76,95,51,46,24
39,123,157,79,133,55,48,23
55,214,225,82,147,59,57,29
57,231,245,86,145,62,74,30
61,265,269,85,151,68,83,34
65,271,291,95,160,70,84,36
74,289,322,91,135,74,99,77
74,261,317,103,119,79,116,81
79,255,311,104,126,80,111,84
84,278,319,109,115,85,106,84
82,273,296,111,110,85,138,86
77,266,264,114,108,79,140,55
68,241,224,104,118,74,129,48
60,234,228,106,114,74,128,45
51,171,197,98,112,63,129,48
57,170,191,93,111,69,112,60
71,236,241,102,118,75,100,63
73,232,237,91,102,79,107,72
75,226,293,117,100,77,105,74
73,217,309,135,105,79,100,74
75,214,326,137,104,69,78,67
60,98,313,132,88,61,71,62
73,186,390,192,98,50,47,53
74,189,354,193,96,44,43,47
79,218,341,184,90,40,41,47
97,251,358,197,91,42,53,58
101,255,337,213,102,51,69,69
94,202,262,189,105,55,73,70
97,206,238,171,108,55,71,70
95,178,226,171,121,64,78,72
84,125,172,153,124,63,71,63
82,120,180,127,128,63,68,59
78,118,166,83,113,60,65,58
75,121,172,80,109,62,71,64
76,128,179,80,96,56,76,63
81,217,236,96,103,71,117,60
92,247,310,98,87,69,124,60
118,338,411,138,109,71,130,63
131,410,476,178,123,73,133,62
134,433,506,189,142,89,145,60
130,431,537,192,133,78,149,88
122,454,550,195,135,84,144,86
101,397,496,168,118,85,178,87
82,329,441,131,110,87,196,82
76,303,427,117,88,84,188,85
75,312,413,112,97,86,212,69
118,361,412,115,107,80,238,73
131,388,471,154,112,88,236,73
174,496,525,169,123,113,287,191
190,538,533,180,124,110,290,204
189,520,508,183,124,113,280,213
173,504,533,207,130,138,258,215
168,523,514,190,130,146,251,215
159,523,528,191,119,132,213,145
143,490,549,193,119,136,299,133
153,520,585,203,115,136,310,128
144,485,523,176,102,118,347,125
142,472,561,174,107,104,344,126
107,364,516,156,114,112,337,103
109,349,485,141,108,121,308,101
101,299,469,146,114,138,308,104
109,322,485,139,112,135,279,99
103,285,552,137,106,134,276,97
101,303,619,147,98,128,271,94
104,365,663,157,99,126,228,87
98,393,666,144,83,107,198,71
119,440,695,175,92,115,186,77
121,434,580,179,96,126,219,82
118,433,550,173,91,136,241,83
116,405,499,162,93,137,236,81
112,388,476,161,100,138,251,72
90,368,496,138,96,135,250,68
100,418,504,137,114,134,260,67
101,407,459,146,115,136,234,68
105,396,475,144,113,123,290,192
104,392,458,126,107,121,272,204
105,384,428,126,102,114,271,210
103,377,507,136,85,116,276,214
103,364,483,120,82,99,296,213
107,405,475,123,76,99,255,116
109,411,480,126,75,99,272,86
153,452,473,136,85,111,322,81
148,421,387,118,74,111,302,84
150,452,436,122,73,117,338,85
146,444,440,126,82,122,360,86
163,506,484,131,91,131,372,94
128,467,485,117,90,124,331,85
124,461,473,114,101,116,337,66
123,444,444,124,102,114,326,81
135,458,503,134,106,108,310,80
112,377,469,130,99,102,310,73
98,339,518,144,95,98,334,69
102,372,559,157,95,98,343,71
118,453,686,165,103,138,421,63
115,494,696,170,96,158,575,72
132,541,796,182,97,159,592,89
138,546,763,176,92,166,614,93
142,526,779,163,80,169,609,91
131,457,686,145,66,131,534,86
137,424,670,135,67,108,512,103
132,404,557,117,62,101,490,92
136,410,548,107,64,109,474,91
132,415,561,116,70,105,463,92
129,412,531,110,69,102,461,89
116,359,462,96,69,113,359,70
108,333,446,106,83,146,368,90
124,433,512,124,94,145,400,99
132,468,472,129,95,143,432,102
152,514,496,136,107,153,517,114
150,542,533,142,103,180,647,131
155,576,552,150,99,167,702,120
146,517,494,129,88,162,677,119
152,518,465,130,99,169,672,119
147,499,452,130,91,161,632,113
146,464,424,130,95,124,513,102
144,437,483,146,104,130,455,100
138,426,475,154,103,133,475,91
138,468,502,171,106,140,481,93
122,439,505,167,101,145,474,97
118,455,561,176,102,192,407,90
114,459,523,159,97,178,366,85
113,438,515,162,99,172,315,86
91,354,513,136,83,160,277,78
116,422,517,152,88,161,302,73
114,408,492,152,80,101,281,56
112,408,493,150,68,97,292,58
125,441,487,141,63,101,299,61
170,599,531,175,87,107,364,71
163,569,523,164,86,102,330,63
162,570,472,154,88,117,328,70
156,539,423,142,85,119,318,70
161,564,437,163,102,131,321,73
122,403,327,123,84,124,236,66
120,417,330,129,87,147,283,82
161,571,516,197,115,140,281,84
170,593,535,208,128,145,273,99
152,540,513,200,123,138,268,94
144,537,542,201,124,141,292,94
142,555,610,207,120,124,235,81
103,439,546,163,97,138,261,72
91,417,538,149,82,138,251,48
98,428,541,147,76,136,263,56
97,429,522,155,86,136,249,53
109,407,463,146,97,127,261,58
102,363,383,126,92,106,243,58
100,362,395,136,89,98,244,67
103,378,420,136,91,96,239,59
103,365,422,128,77,104,214,58
90,342,421,124,67,107,203,57
100,397,488,159,78,118,212,60
118,433,518,179,91,120,217,60
132,502,511,174,92,130,217,69
142,521,526,176,98,127,224,82
148,524,554,186,103,133,206,82
141,470,523,170,97,120,236,81
155,556,572,155,93,125,256,81
144,495,594,165,91,114,241,75
171,523,578,163,96,126,250,67
171,571,563,164,95,115,245,63
175,596,542,157,93,116,205,62
161,542,529,149,90,117,183,55
157,531,506,130,87,117,215,67
124,503,547,126,77,101,206,64
136,501,550,119,81,106,204,70
130,468,529,107,86,102,222,69
115,394,466,100,86,101,240,65
110,393,440,101,81,96,218,55
106,374,385,104,77,88,217,54
71,293,346,94,65,80,236,49
86,376,444,135,64,78,233,53
90,388,437,140,61,66,203,55
93,393,456,146,69,62,195,50
92,393,486,146,73,63,190,51
100,380,512,151,74,66,167,47
94,321,454,112,68,72,123,54
106,350,447,111,76,73,128,53
104,331,464,121,81,75,123,54
112,336,414,122,82,85,133,55
108,364,370,114,82,85,123,53
106,347,349,124,87,84,126,45
95,310,320,118,78,83,111,44
93,307,271,107,66,82,130,45
101,382,314,118,78,86,136,50
101,377,347,124,87,96,152,53
110,431,429,145,96,105,172,54
113,454,453,155,103,105,185,81
123,473,455,157,104,106,172,84
106,401,449,153,95,95,172,81
100,366,436,145,86,87,197,80
84,299,373,118,71,71,187,80
80,272,356,101,65,72,180,58
69,236,353,98,70,77,174,52
62,214,334,87,77,79,183,48
71,239,309,103,84,75,152,45
71,232,319,107,89,83,146,37
72,213,302,109,97,91,149,30
74,237,310,102,92,90,179,33
73,242,312,98,82,91,168,31
77,273,350,95,82,99,160,35
78,280,339,92,78,90,157,36
77,283,359,95,68,83,173,39
91,332,392,110,65,80,155,39
94,368,446,124,70,75,154,38
88,344,412,114,69,67,154,36
98,390,409,116,68,68,158,39
99,393,406,118,72,94,166,40
81,343,356,102,73,93,159,38
80,315,328,89,74,100,155,40
77,309,359,89,72,111,208,46
67,258,353,83,75,118,219,46
76,272,336,76,75,102,199,46
80,293,345,78,84,111,198,46
76,280,284,73,81,109,194,44
78,265,266,74,80,111,159,40
78,242,277,81,88,111,142,42
72,254,285,82,83,108,135,42
66,215,279,77,75,95,144,41
73,249,298,80,73,89,138,43
78,256,291,87,85,91,220,45
78,278,268,90,75,86,221,38
77,260,259,90,92,90,230,39
78,256,259,105,93,89,230,38
78,266,284,123,94,94,232,39
78,265,285,121,84,77,127,38
75,275,335,133,96,81,124,38
83,301,363,144,88,72,133,34
85,308,362,137,93,72,121,35
78,265,322,118,101,73,156,36
74,269,305,114,97,69,173,33
85,280,314,115,95,70,177,41
85,298,338,98,91,71,161,44
83,296,351,96,85,75,174,45
85,300,365,108,75,78,166,42
85,306,385,114,80,92,150,42
79,275,345,94,77,91,142,39
64,214,309,94,81,88,140,33
65,204,289,106,84,92,131,36
63,228,314,99,85,86,99,35
70,241,290,93,83,76,91,39
66,232,264,95,77,70,91,38
68,224,274,108,92,84,115,41
69,237,294,102,95,80,104,39
67,209,257,100,94,80,103,39
58,172,281,113,97,74,114,34
54,180,295,104,92,72,123,30
56,207,283,101,76,65,105,31
54,207,289,109,73,63,104,31
57,217,294,114,84,67,110,34
53,211,266,101,80,70,113,33
57,227,282,112,82,68,99,35
55,203,287,103,76,65,101,32
53,187,251,87,69,74,159,32
55,191,251,88,60,80,157,33
61,228,295,87,77,81,160,33
56,208,289,73,77,83,160,32
50,207,300,87,77,81,162,29
67,237,332,103,92,72,105,36
68,245,393,98,89,66,108,39
65,223,380,113,79,59,85,41
69,220,373,118,79,64,98,41
67,212,347,106,82,62,87,41
60,216,337,103,71,62,89,37
54,194,276,107,78,70,82,31
50,180,240,90,82,73,86,27
46,183,239,97,103,75,84,28
49,195,272,106,106,90,89,33
41,174,298,97,107,94,89,31
51,188,299,95,103,87,98,33
58,206,318,100,99,90,98,35
56,197,308,85,90,84,89,33
57,195,306,95,102,74,89,31
55,184,290,98,99,73,87,32
50,196,274,97,97,69,82,31
43,177,261,99,95,63,80,31
44,180,254,112,88,63,75,31
44,178,218,93,69,59,70,30
48,191,286,115,66,54,70,30
45,160,299,123,67,51,67,30
45,172,310,122,70,54,67,30
50,184,325,120,69,58,66,32
56,184,334,126,70,55,75,31
54,173,315,117,87,68,76,31
53,171,308,117,87,71,69,29
54,164,310,114,87,75,66,28
53,157,303,104,87,81,80,26
41,146,334,99,85,87,82,26
42,159,335,95,69,76,78,25
47,192,358,86,77,76,80,27
46,197,368,92,79,69,79,29
43,190,362,96,79,62,94,31
50,205,336,94,80,53,87,34
51,219,318,89,86,58,90,33
54,226,347,90,88,63,92,32
52,222,321,81,90,69,93,30
53,218,315,78,89,64,77,28
48,202,312,80,90,61,74,27
47,185,324,83,89,59,71,26
39,180,265,82,82,57,70,25
39,178,275,83,81,52,74,28
44,190,279,87,79,58,78,30
48,206,288,90,80,72,78,30
47,187,228,78,75,74,80,34
57,175,230,87,95,72,78,34
58,176,229,89,87,72,93,32
54,173,242,94,89,70,82,31
59,170,253,102,97,71,84,30
59,183,266,112,106,66,82,27
52,188,268,114,90,65,90,26
57,193,260,114,92,64,71,28
56,185,254,110,86,62,66,28
54,204,263,107,85,51,73,29
56,210,324,116,70,52,73,59
54,229,388,109,74,53,60,64
55,226,411,114,75,60,68,66
55,227,418,112,80,60,75,66
51,197,399,118,71,56,70,68
50,194,386,129,74,61,72,72
49,175,325,130,79,61,83,70
48,186,321,135,82,61,88,70
50,192,318,133,90,80,83,70
64,243,346,127,92,85,89,70
69,247,303,97,90,85,88,52
69,232,329,105,78,85,83,67
67,248,315,94,78,82,77,65
71,250,313,103,65,64,76,65
57,200,283,97,57,64,85,64
51,181,270,101,70,76,87,57
50,179,242,100,73,79,87,36
46,142,227,98,78,82,83,33
45,159,221,95,82,81,82,32
44,159,209,96,85,77,68,27
45,172,208,93,79,62,66,27
45,177,243,77,86,59,60,26
49,179,242,74,84,60,56,26
48,167,245,67,81,65,78,31
49,164,255,71,78,68,74,31
46,156,260,73,80,72,79,31
50,152,215,72,70,69,78,30
44,146,221,77,61,64,90,29
42,150,234,76,58,57,70,24
48,165,238,79,72,70,70,24
44,160,257,85,64,65,65,22
42,150,269,98,70,70,75,24
46,178,309,118,75,72,64,27
46,172,296,118,82,73,64,27
40,170,293,112,73,58,62,26
47,194,301,113,72,61,68,27
50,210,293,108,68,60,55,26
53,201,283,112,70,60,56,37
58,229,358,127,65,65,64,63
57,229,371,133,66,71,74,66
53,209,354,126,74,72,66,67
53,201,356,123,72,68,68,67
45,210,358,103,67,68,67,61
45,208,343,93,88,73,64,45
46,201,328,86,86,67,56,60
47,195,327,105,90,71,55,61
46,217,353,114,98,80,78,66
46,198,338,121,102,82,77,66
38,158,288,118,90,76,76,60
37,177,308,118,96,77,77,41
40,214,324,108,95,75,76,42
48,194,276,96,104,82,59,56
50,194,261,84,117,88,66,58
50,196,258,103,122,86,67,59
52,196,251,115,121,85,63,59
49,162,243,113,133,93,62,55
40,157,275,115,132,92,55,38
45,191,316,130,123,92,69,60
51,217,305,118,128,99,68,59
51,208,288,107,128,101,70,61
51,212,297,109,112,88,71,61
52,210,276,110,100,85,74,60
47,180,225,90,105,78,54,39
45,161,241,89,97,75,52,37
45,155,231,89,97,75,71,63
44,152,199,83,94,74,74,64
40,149,212,77,95,63,72,64
45,168,208,72,93,58,72,63
45,166,217,83,90,49,72,63
44,165,223,85,90,44,53,40
47,169,222,82,95,63,52,39
49,159,198,83,92,70,48,37
47,136,226,89,95,72,43,34
45,130,265,83,93,70,39,33
44,123,272,79,90,70,44,26
44,129,281,87,86,58,41,25
43,139,288,89,88,54,44,25
39,142,298,99,93,58,49,30
37,136,248,98,93,61,50,30
42,157,267,101,98,65,44,32
41,150,282,95,99,68,51,60
43,157,284,98,100,67,52,64
44,158,258,86,78,65,47,63
46,169,277,76,82,64,48,65
42,167,278,78,71,68,54,64
40,165,282,78,78,70,52,40
40,165,289,75,77,70,50,33
41,167,297,78,77,70,74,63
56,221,339,89,69,86,82,68
57,218,327,92,77,85,88,70
60,248,328,96,82,79,88,71
62,249,325,96,79,117,90,71
67,258,339,97,81,127,72,48
55,222,296,91,79,175,66,38
56,231,338,93,78,183,56,34
59,219,317,89,62,193,55,42
80,301,356,107,66,178,90,61
82,327,379,104,70,202,96,62
83,331,380,104,71,154,97,62
89,334,373,113,74,165,105,66
90,323,386,114,77,163,107,62
71,251,368,97,77,171,102,70
66,227,319,95,87,170,114,79
75,242,350,95,95,181,116,128
75,272,356,106,100,171,110,133
72,282,361,122,106,172,108,135
73,285,344,134,108,171,101,134
76,301,370,137,100,142,96,132
68,294,360,144,97,150,102,86
62,260,314,128,97,140,102,75
68,277,302,120,96,130,102,73
67,266,300,107,93,120,88,53
64,240,279,105,93,126,111,61
60,212,234,93,90,105,102,59
58,205,230,86,80,106,105,59
52,188,269,92,88,104,106,58
54,190,278,87,85,109,107,59
53,182,314,96,93,151,79,65
56,206,331,127,102,159,78,66
54,199,342,125,101,178,75,67
52,181,314,117,85,182,71,66
48,192,324,125,98,188,68,63
45,189,300,117,95,151,55,39
41,195,337,96,92,155,59,35
44,195,336,98,95,139,56,37
41,190,319,95,97,138,63,57
40,177,307,85,84,126,66,58
48,201,315,109,78,136,64,60
47,171,245,98,65,129,81,60
52,179,236,106,73,126,83,58
52,175,250,107,74,123,79,37
53,171,237,112,79,139,78,34
50,165,263,98,75,133,82,57
58,176,298,102,77,139,65,57
57,171,309,96,73,137,66,58
58,175,323,110,71,135,78,59
58,187,324,103,70,114,76,60
60,167,284,94,74,106,70,32
56,165,260,86,72,88,67,33
52,170,258,80,64,81,67,33
53,173,260,64,68,87,50,29
51,156,258,67,71,81,44,30
45,170,264,67,79,80,45,30
41,152,263,69,103,80,41,29
41,142,247,69,104,89,44,25
38,137,210,64,110,89,63,30
40,159,220,70,108,89,66,27
49,190,245,84,104,86,67,28
57,205,241,88,84,85,73,29
56,202,249,106,93,82,74,29
55,200,251,112,83,81,71,25
54,187,231,107,82,89,83,36
51,167,184,109,75,88,88,60
44,155,189,115,86,97,86,63
44,172,206,100,76,102,85,66
45,190,206,90,80,97,75,67
45,188,231,107,82,91,61,62
40,166,232,97,90,106,63,39
38,168,242,102,95,100,60,32
39,158,227,103,92,89,55,24
39,140,295,141,92,88,54,21
38,141,292,132,90,88,55,22
35,133,309,142,89,68,42,23
35,137,301,136,80,58,45,24
37,150,305,144,80,55,41,26
37,160,246,111,79,54,40,27
39,169,234,109,79,48,36,27
39,172,213,95,74,49,49,24
52,222,264,103,72,46,55,26
50,220,268,91,68,48,57,25
50,222,273,99,79,46,57,24
53,229,300,105,77,56,61,26
53,228,314,111,82,57,49,26
37,166,273,104,78,65,56,23
40,156,262,105,82,64,64,23
43,144,246,97,66,65,64,22
46,135,262,123,69,63,66,21
47,146,248,116,65,64,69,21
58,197,271,121,61,64,89,27
58,212,297,157,68,66,87,28
62,239,319,163,79,75,93,37
63,274,331,155,84,74,95,37
80,316,377,159,90,79,125,39
75,300,378,156,105,80,106,38
75,292,372,131,110,82,113,39
71,268,363,127,105,75,128,41
81,262,331,119,103,83,161,74
71,233,311,127,101,84,155,78
80,259,369,135,87,80,161,80
81,266,359,126,74,89,181,81
85,281,381,138,85,97,208,79
71,251,383,136,83,102,213,65
62,222,405,125,74,99,206,61
58,247,435,122,73,100,202,60
55,242,455,128,77,93,202,59
58,282,489,136,67,101,205,56
68,328,531,134,79,89,201,59
83,366,523,152,86,93,202,63
129,553,572,185,99,103,222,69
131,558,567,182,98,111,209,70
129,539,541,172,96,99,213,75
126,516,495,174,89,107,195,60
126,508,503,182,92,118,197,86
75,266,449,156,86,111,176,81
73,249,434,157,80,100,173,81
71,244,419,151,86,107,189,81
72,258,473,150,86,98,187,81
61,258,531,154,77,79,192,49
66,249,458,146,65,83,221,53
67,267,486,143,67,87,219,63
72,311,545,154,63,81,380,73
83,317,532,158,63,88,387,77
98,343,452,141,83,89,412,83
96,339,459,135,85,80,434,81
101,338,453,134,89,85,514,88
98,313,387,125,94,94,402,94
94,294,390,124,98,97,401,94
81,263,395,108,88,96,394,93
89,287,387,110,93,100,358,94
85,277,363,106,88,99,236,82
90,325,425,115,88,92,241,60
96,378,445,135,82,92,236,56
95,383,445,140,77,94,204,64
90,374,458,145,74,105,233,64
91,379,502,155,74,98,243,63
85,334,445,141,65,95,228,62
70,307,446,118,68,92,256,61
83,335,456,110,73,92,261,52
92,348,447,105,77,83,235,50
105,373,407,99,81,85,242,49
103,359,405,100,82,84,234,69
117,345,384,111,80,79,203,69
115,340,389,126,76,80,227,78
116,354,421,125,68,72,276,82
107,343,415,120,63,72,260,85
109,368,421,136,68,70,246,72
101,368,456,140,70,74,257,87
92,334,460,134,70,69,228,76
79,294,449,131,71,67,178,73
75,288,476,131,77,83,191,69
94,331,507,129,80,84,196,70
99,344,446,119,79,86,186,83
100,330,429,114,77,85,184,83
102,371,429,114,75,90,168,84
111,402,427,129,74,84,225,86
95,337,417,114,61,84,238,85
103,331,423,111,70,82,229,59
111,345,416,109,68,83,227,60
128,317,395,108,72,81,257,61
118,263,380,87,70,76,219,64
131,273,404,93,77,88,209,83
121,292,462,91,66,87,216,81
118,295,469,98,66,84,218,81
111,307,480,97,67,84,212,96
155,325,475,98,72,89,216,100
152,371,627,159,75,72,230,86
161,375,604,165,82,78,245,95
164,364,583,158,85,84,269,102
172,329,587,158,83,82,257,99
147,331,657,185,87,72,244,94
143,309,487,147,136,81,230,105
142,297,510,150,137,74,208,99
144,288,561,155,138,70,227,96
127,299,578,161,141,71,227,92
147,359,585,168,146,75,211,96
154,350,574,159,101,67,208,83
146,326,521,148,99,69,227,90
134,329,463,146,96,66,202,91
150,328,434,142,93,70,189,99
120,270,362,89,76,64,190,96
131,353,393,118,92,70,180,98
131,350,396,112,85,71,211,92
134,357,429,124,84,80,197,89
125,363,459,127,84,81,204,83
152,377,541,142,85,86,212,84
146,277,525,126,62,78,220,87
148,269,535,127,67,79,287,85
148,256,535,122,66,70,329,89
150,328,644,151,73,71,328,79
136,334,564,145,72,68,325,77
136,358,578,142,70,68,325,73
138,366,583,158,71,75,279,80
149,428,650,175,76,76,228,82
142,388,535,164,73,72,238,125
154,388,629,173,71,71,269,163
173,376,679,206,76,80,289,257
172,389,688,209,69,72,269,281
174,368,624,197,71,76,285,295
173,371,629,185,62,72,270,279
161,386,743,188,64,69,243,263
157,445,723,192,78,68,367,213
174,457,736,197,92,69,357,191
159,439,748,198,96,80,368,190
155,414,752,212,98,80,384,194
165,384,583,217,100,84,381,204
147,319,558,189,91,78,243,200
127,288,541,169,80,78,246,190
133,270,522,159,73,76,210,178
138,289,490,152,78,78,184,183
124,249,421,126,78,75,210,166
111,269,448,119,73,74,217,125
105,258,410,126,76,84,230,179
128,372,527,158,93,83,223,174
132,421,595,155,91,91,267,172
126,433,606,148,88,94,264,179
127,422,578,147,92,111,254,177
145,442,681,167,99,109,249,119
125,374,589,139,86,108,266,179
135,357,513,146,116,110,232,187
133,350,522,168,121,119,255,256
168,352,526,182,131,109,260,259
158,328,491,174,133,118,258,301
172,322,549,177,134,113,281,275
180,324,638,176,113,108,289,282
184,326,617,161,110,102,259,262
164,329,626,145,105,99,261,262
179,324,582,145,103,81,255,245
169,327,536,137,102,86,237,332
152,285,485,126,96,82,234,323
143,281,481,132,97,81,242,298
170,285,509,153,93,85,246,374
152,287,483,143,85,85,247,362
155,285,488,163,92,78,214,288
150,287,488,171,101,76,204,282
150,293,549,195,97,73,204,282
104,279,543,200,95,67,188,198
107,328,549,192,92,61,160,186
109,333,567,187,84,62,196,184
108,317,527,173,71,62,230,189
106,317,483,145,71,62,212,199
107,318,461,139,71,65,219,171
104,278,475,158,84,70,219,170
82,232,476,166,84,65,199,151
82,268,489,173,90,74,158,153
88,252,471,168,96,70,155,158
82,229,436,156,92,65,140,152
87,215,403,146,83,65,154,160
86,227,368,128,79,70,163,155
92,217,358,123,73,59,158,176
90,215,361,136,65,57,166,150
92,231,352,130,70,64,192,148
81,220,347,125,63,74,221,152
85,221,317,136,63,74,214,170
85,237,301,134,67,80,236,167
82,240,312,125,77,82,242,162
88,246,338,161,116,95,281,191
113,257,350,171,148,98,264,190
141,249,355,176,151,100,277,222
147,217,338,180,156,95,261,221
159,230,326,184,158,95,250,218
165,228,323,152,132,81,192,193
156,238,320,150,127,85,221,191
145,253,329,150,128,86,196,160
133,236,339,160,129,89,188,137
119,234,328,156,122,94,204,145
104,235,309,162,142,122,250,148
93,217,306,153,126,113,206,187
73,194,340,135,131,121,227,171
76,234,385,131,170,130,227,168
83,228,401,128,169,126,227,161
92,205,398,144,154,104,186,219
104,233,529,237,158,104,193,213
96,245,501,249,155,90,166,217
98,213,461,248,107,73,186,227
98,238,498,251,106,69,167,289
94,235,506,242,100,60,160,285
106,213,371,156,87,54,154,266
125,227,411,157,94,60,159,269
129,215,428,164,96,68,138,281
125,179,370,161,96,71,155,227
132,189,343,160,101,69,155,221
118,210,367,166,102,71,153,226
96,173,378,169,109,69,150,213
81,176,424,180,111,69,136,185
79,183,450,178,113,67,117,177
66,192,473,174,114,70,87,118
85,164,463,176,118,66,78,152
89,191,446,159,101,64,150,158
91,184,381,126,87,56,172,195
92,172,356,139,89,55,176,220
89,178,398,153,86,53,180,254
74,178,387,146,74,52,182,225
71,169,380,139,75,52,131,221
69,165,390,165,87,53,106,193
78,179,413,163,95,58,94,206
76,158,358,159,94,59,88,162
61,163,344,147,92,57,82,161
64,149,324,161,101,57,68,163
71,176,336,151,96,57,68,223
67,218,347,145,83,50,79,208
70,213,330,147,98,47,75,213
71,204,331,146,97,46,85,215
79,299,356,145,98,50,92,236
74,291,344,135,96,46,88,182
69,266,342,146,100,50,79,165
75,283,362,143,84,54,80,197
77,302,414,160,98,59,70,199
70,210,401,146,87,57,63,181
67,220,451,159,97,63,64,174
66,211,409,140,101,65,56,206
61,186,403,150,101,65,56,171
56,169,365,136,95,65,59,169
58,195,358,136,98,65,61,161
69,178,275,125,87,60,63,213
68,177,304,144,94,63,63,173
68,195,308,123,112,61,75,173
73,193,349,142,108,59,81,177
69,167,348,147,104,56,78,207
60,162,353,137,104,56,76,163
65,194,351,130,94,49,78,165
61,174,342,142,66,48,66,163
54,156,294,134,66,49,58,156
52,156,279,139,63,48,57,118
56,161,289,149,60,46,73,150
48,130,310,154,57,49,76,146
55,144,306,142,68,49,74,149
63,200,385,149,69,44,73,151
66,200,388,142,73,48,73,148
68,207,371,139,76,53,53,157
69,196,337,117,76,51,71,155
68,207,373,142,79,59,74,157
60,160,276,123,79,63,73,153
60,171,317,130,85,65,75,200
57,174,337,127,85,61,74,161
55,191,442,144,84,62,53,160
56,189,411,124,71,54,49,155
62,199,416,123,69,50,48,154
61,196,385,115,63,55,49,118
63,189,389,117,66,59,51,161
66,219,349,136,129,70,49,164
63,223,381,165,145,76,57,164
63,213,370,165,145,77,71,195
70,226,369,174,150,72,74,199
67,224,356,168,147,71,84,162
76,204,334,149,94,56,89,221
79,194,339,127,99,67,96,238
79,195,376,145,103,70,91,230
74,186,381,135,97,69,96,217
94,240,406,153,101,69,96,269
96,233,396,147,101,70,90,233
154,530,582,190,84,54,88,219
180,574,620,184,78,52,139,201
198,585,615,193,78,62,152,220
189,576,605,183,76,79,162,239
192,603,618,182,77,85,173,247
161,418,497,138,70,85,170,253
177,477,590,171,92,90,146,297
163,500,608,160,91,86,243,302
166,492,626,159,91,74,244,277
171,519,639,174,113,76,242,273
177,535,622,173,114,79,244,267
132,459,499,157,103,76,241,222
127,424,512,158,99,77,199,254
124,422,491,153,101,75,198,219
109,348,439,139,84,75,200,221
80,271,396,126,81,76,199,220
83,248,388,97,79,75,195,214
76,241,370,115,87,71,136,134
80,269,384,128,85,69,115,163
89,289,438,149,81,69,106,143
91,288,454,163,85,65,109,147
87,262,418,160,96,70,104,150
88,249,388,150,100,74,84,199
87,280,389,143,106,75,101,184
75,260,314,119,110,72,97,185
69,255,267,102,108,76,89,189
74,253,292,123,103,72,118,276
78,281,312,119,96,65,136,253
75,220,293,116,95,66,125,245
69,196,275,109,83,60,124,246
73,204,335,120,79,50,124,237
69,219,328,95,69,46,120,157
75,181,319,105,70,48,99,207
70,219,357,112,61,43,98,222
78,248,409,120,62,45,100,218
90,228,359,107,65,51,105,270
92,258,423,148,66,53,97,256
90,268,437,145,64,53,97,206
98,277,412,151,68,55,100,188
110,330,408,166,79,61,100,187
107,346,414,166,75,57,104,123
104,355,370,134,70,55,92,186
108,372,360,133,71,55,89,191
109,348,432,142,68,54,93,207
122,321,396,119,59,52,106,240
120,301,402,132,62,55,108,256
117,250,395,131,63,55,99,213
119,259,420,137,68,59,96,208
111,250,358,132,66,57,92,193
94,198,376,134,59,52,87,179
91,232,388,126,64,52,81,143
95,236,394,140,66,60,116,144
111,211,379,153,67,65,133,221
116,222,392,157,74,68,135,237
113,234,437,173,74,68,133,215
112,220,415,174,68,67,130,211
118,247,420,170,71,63,104,213
97,250,397,147,63,56,160,182
97,254,372,150,60,57,164,169
87,261,344,137,65,58,166,170
95,268,361,140,65,58,168,216
94,282,372,153,63,60,202,212
93,294,470,165,64,59,182,199
100,383,562,176,69,62,268,220
121,462,680,210,73,65,272,251
128,474,683,215,77,69,313,222
152,535,752,212,97,81,359,231
165,579,747,211,102,96,364,206
161,558,714,202,102,92,312,175
146,492,676,184,97,89,311,121
136,480,691,181,96,87,295,103
117,407,648,185,73,75,232,72
108,318,604,177,63,57,233,65
105,247,563,175,56,63,256,175
114,232,470,153,57,65,259,181
141,320,519,166,63,69,257,191
135,332,476,150,60,64,239,196
128,347,459,160,63,70,307,253
126,354,459,152,62,63,290,204
124,378,489,163,65,66,310,204
92,308,408,144,63,62,292,204
85,262,377,152,81,75,317,206
98,300,457,155,89,78,252,133
107,331,448,148,90,82,251,123
101,335,393,139,90,81,220,115
105,345,466,133,94,85,260,102
107,377,527,139,91,79,308,87
102,331,491,138,88,68,305,142
98,302,541,162,91,63,302,136
99,302,594,171,91,59,306,140
111,299,528,174,87,77,292,146
106,281,461,158,78,86,225,149
100,288,454,147,71,86,257,94
97,284,424,113,69,85,248,87
92,252,428,90,65,87,246,80
82,292,487,109,63,77,301,67
84,294,498,109,63,79,305,54
112,390,566,173,107,100,271,54
127,452,628,185,127,113,291,60
165,603,727,238,151,129,340,68
177,656,801,254,162,133,291,71
179,660,816,258,163,134,344,75
164,617,778,229,147,136,334,72
160,599,781,238,145,129,320,67
122,443,652,212,124,112,266,53
104,357,592,193,120,140,283,52
114,387,599,195,136,146,265,58
127,432,618,190,139,136,290,77
148,498,625,204,137,161,292,85
151,508,664,190,141,189,303,85
152,493,615,193,134,162,274,82
172,581,662,198,140,199,316,98
190,656,778,233,158,207,307,91
183,628,727,216,169,200,302,89
182,627,697,210,168,186,292,89
192,664,697,202,163,236,340,93
166,564,625,190,149,200,240,68
134,435,426,139,128,199,228,57
143,511,547,194,112,219,232,58
142,528,552,194,103,218,239,61
115,465,530,186,109,186,231,62
115,470,542,189,105,190,235,65
115,481,680,225,105,184,236,75
90,401,608,199,94,163,234,70
88,374,594,195,98,154,247,70
90,382,635,203,116,177,387,72
94,396,703,202,141,180,403,73
104,470,665,186,134,179,407,76
97,440,637,149,130,161,411,74
108,490,645,149,126,187,419,78
111,498,657,168,122,141,287,81
107,479,568,175,127,139,275,80
93,387,506,159,151,138,267,68
93,386,487,161,163,141,262,69
81,332,502,171,167,105,228,61
95,346,445,142,161,109,177,58
95,351,462,137,152,98,157,53
96,363,421,139,145,98,146,52
110,404,480,153,146,111,144,59
108,404,449,140,144,113,140,60
100,405,478,158,161,121,117,52
98,402,476,171,182,126,109,54
96,383,447,171,187,128,109,57
85,331,418,159,186,115,116,69
94,342,421,160,193,114,110,72
89,307,365,153,188,106,117,72
100,362,361,139,233,106,110,72
120,449,498,159,251,125,116,77
113,433,459,168,246,124,93,61
110,428,463,169,241,123,95,58
110,445,500,164,238,117,80,64
106,414,509,181,185,123,101,73
85,358,410,167,144,103,95,68
81,334,400,163,149,104,100,67
77,332,378,166,166,104,100,66
75,322,347,177,172,106,110,56
65,300,321,161,170,141,97,40
61,263,272,144,164,139,93,35
86,402,470,148,170,138,94,39
86,390,494,158,158,141,106,46
85,374,493,167,221,138,101,49
86,372,493,160,215,99,93,51
89,377,519,183,244,97,97,52
71,282,378,191,309,106,98,54
66,276,359,195,328,101,85,46
79,304,369,172,283,109,87,53
85,326,447,195,290,95,98,57
86,340,433,189,306,110,122,60
80,307,430,177,239,101,221,73
85,322,433,159,216,103,260,114
80,345,463,169,249,102,261,110
79,353,436,146,235,99,270,109
82,339,479,134,187,82,301,109
85,358,476,136,187,115,272,100
86,356,484,141,186,117,267,117
82,322,490,167,165,117,278,119
88,327,468,165,174,128,277,121
84,319,417,155,170,137,265,120
90,349,475,149,164,112,235,120
91,379,498,177,157,107,245,56
88,379,535,168,145,106,257,52
79,351,524,164,135,103,271,51
75,347,547,169,146,103,254,51
83,293,490,167,144,101,282,61
78,230,450,135,158,101,244,59
77,227,329,98,151,100,234,62
79,265,407,102,139,88,209,64
93,309,403,113,141,78,200,65
92,354,408,116,144,80,217,65
96,389,422,122,140,87,290,110
99,384,438,129,145,80,277,113
103,364,527,158,153,93,280,121
92,320,497,153,148,86,277,119
78,271,520,150,161,92,256,116
76,276,583,152,171,92,172,78
78,273,567,148,162,98,173,71
66,252,403,124,197,91,170,53
67,243,402,135,231,105,186,63
75,248,385,143,251,117,177,107
83,308,382,149,261,132,181,106
91,333,398,171,280,141,182,109
92,344,429,166,263,145,191,109
104,380,454,163,270,151,203,118
98,390,494,164,242,137,222,79
100,340,487,182,244,124,227,90
94,343,496,169,230,115,224,88
97,336,504,177,220,130,219,88
98,311,480,170,172,116,233,144
96,289,412,161,183,118,190,145
91,254,385,137,181,114,193,145
101,289,368,140,175,111,192,147
104,295,333,134,176,106,188,150
89,298,358,141,184,121,141,82
94,300,438,146,184,133,202,82
92,296,420,139,174,134,189,73
75,217,425,132,182,136,195,65
73,219,444,159,192,123,188,118
70,201,441,147,180,114,189,118
67,206,415,144,170,98,116,117
66,224,357,143,162,95,114,119
68,232,340,143,174,91,100,122
68,229,297,117,188,83,107,75
84,244,303,127,197,80,110,112
84,233,250,129,199,86,114,112
88,311,346,130,202,90,112,119
94,311,361,132,205,95,109,123
94,361,427,132,230,107,101,118
80,352,416,135,231,104,94,81
82,370,443,144,233,100,92,76
72,290,398,148,222,95,87,59
64,318,392,141,199,91,104,47
52,244,325,152,161,81,115,45
66,271,376,154,160,70,106,46
59,241,345,137,150,66,103,45
56,282,445,130,155,74,111,41
55,252,453,138,171,73,98,41
60,260,447,119,174,78,95,48
57,257,430,115,197,79,97,52
59,274,438,122,196,79,96,54
65,251,335,123,194,74,92,57
64,246,312,113,179,82,107,53
63,248,336,120,164,85,102,56
54,210,304,130,135,85,98,50
53,222,319,136,166,89,100,55
52,213,350,143,202,101,97,101
54,208,356,146,229,96,91,106
53,223,349,135,226,117,89,104
59,245,361,123,223,118,88,114
57,219,322,117,218,116,84,112
56,226,334,108,191,106,84,72
56,238,400,131,184,104,70,65
59,238,410,130,185,70,71,96
54,246,439,123,177,85,73,86
64,272,477,129,188,106,93,93
59,250,436,130,186,106,98,93
59,243,385,107,183,116,106,93
65,264,425,107,195,122,104,113
68,242,415,113,200,119,116,114
79,271,442,111,192,103,112,115
85,285,458,113,222,124,128,123
96,320,552,124,210,123,138,128
102,384,561,149,221,128,137,84
101,401,557,154,235,119,125,85
88,369,530,149,219,117,119,75
83,367,510,151,184,90,94,61
73,351,424,143,197,82,62,48
58,273,358,118,186,67,53,45
64,274,398,116,185,89,103,44
68,287,399,130,197,111,102,54
72,287,405,127,217,120,116,56
70,283,409,144,209,121,128,59
77,297,438,163,195,122,137,101
70,302,464,166,191,108,113,104
76,315,484,161,189,95,187,113
75,328,515,161,169,102,206,149
111,403,569,156,194,117,219,202
117,449,558,164,220,126,222,199
144,549,545,161,210,137,234,224
145,581,546,156,220,140,231,275
150,590,545,156,219,133,211,337
131,546,504,143,198,127,199,321
138,564,595,115,180,121,211,335
157,559,713,132,188,149,222,332
167,535,718,164,205,154,259,360
171,566,804,169,214,155,266,332
174,591,805,174,213,149,284,351
175,581,794,176,212,147,270,339
150,556,773,197,207,111,254,345
136,537,746,176,180,102,250,274
130,494,631,171,170,115,278,241
129,488,642,173,173,122,266,202
156,510,601,171,161,123,294,196
170,520,473,126,156,123,304,189
175,527,482,122,158,124,255,194
172,529,496,127,156,111,328,195
185,564,535,140,148,101,328,196
160,529,532,141,166,102,326,209
142,520,491,144,166,97,348,185
136,509,481,136,173,100,347,177
138,531,529,147,164,100,251,144
121,483,457,144,203,107,249,130
131,527,551,151,205,113,255,95
126,465,570,154,216,113,222,127
129,478,572,160,200,117,304,123
155,625,695,178,222,122,326,142
173,700,746,183,194,122,321,144
157,667,678,175,175,111,311,143
171,723,666,185,248,132,360,156
172,728,688,181,251,138,298,167
152,602,527,166,246,133,268,152
175,554,508,182,268,142,273,160
188,572,469,188,277,155,276,161
176,518,489,183,220,142,208,147
203,637,574,206,233,129,187,135
234,719,560,215,260,132,193,155
200,686,500,200,255,117,188,145
204,729,579,205,246,114,155,152
208,723,569,200,245,110,132,130
189,654,490,179,228,104,115,128
205,654,558,180,200,101,170,126
224,737,700,207,239,114,181,131
208,640,625,201,249,106,217,141
203,628,615,196,241,108,221,138
208,601,569,194,240,109,225,146
160,523,494,178,234,108,180,133
141,434,245,128,169,99,172,129
146,441,251,121,158,111,225,135
144,454,350,135,171,108,232,134
130,464,416,169,179,106,233,121
111,442,467,152,173,103,234,112
106,404,470,152,198,100,234,110
94,398,479,150,201,78,146,69
92,422,455,141,180,77,123,59
100,478,455,109,172,74,116,55
108,455,391,112,164,71,132,58
103,445,380,108,137,71,207,81
107,454,387,103,120,69,211,93
122,455,386,115,158,83,232,101
111,363,381,127,229,98,235,100
121,464,455,150,244,180,271,102
121,465,483,157,245,186,256,95
123,493,515,169,268,189,293,87
110,457,512,168,259,187,285,82
124,487,537,181,238,184,315,84
106,381,518,186,256,113,294,80
105,377,494,186,267,128,290,72
97,337,485,177,249,124,256,69
94,357,484,171,237,117,252,64
78,308,479,145,205,110,212,61
98,397,487,119,173,110,221,68
98,398,503,110,135,87,342,137
120,461,508,132,207,91,343,158
120,454,467,133,224,87,344,166
189,586,483,194,253,101,358,174
209,568,489,231,286,116,390,182
211,561,475,236,311,130,309,181
211,547,449,225,267,131,328,167
213,571,521,238,289,146,336,162
161,471,448,194,273,139,330,156
127,460,389,142,234,126,343,149
130,499,405,136,211,108,311,93
133,530,426,163,239,106,283,127
130,496,355,143,208,102,273,126
130,469,358,143,206,109,263,123
122,430,445,163,223,105,167,117
121,419,463,167,217,109,169,114
108,341,435,138,194,112,185,66
105,335,430,137,183,98,201,62
95,347,439,145,194,97,194,106
98,349,353,129,183,90,184,110
99,366,361,138,212,92,168,113
88,352,364,137,211,92,137,111
111,428,419,146,233,103,101,115
108,396,389,130,215,98,123,70
126,478,440,121,205,100,166,69
120,442,400,105,177,90,173,64
126,486,439,111,169,87,172,60
118,460,407,107,140,78,178,56
166,598,514,148,149,89,163,67
154,535,464,155,161,92,124,61
156,559,468,158,166,98,106,68
153,519,417,157,172,97,109,69
142,479,389,151,180,108,109,65
100,340,338,131,186,100,132,97
95,350,351,121,174,101,152,97
92,322,415,133,183,105,175,97
99,340,432,132,172,109,182,100
116,418,463,138,169,98,183,107
108,386,418,128,166,98,198,79
114,396,411,186,253,117,222,84
117,376,330,203,272,113,256,142
113,353,319,220,285,126,272,142
104,306,269,219,280,130,287,140
95,298,252,231,317,129,275,136
88,283,278,195,271,119,264,136
87,307,284,162,239,118,267,73
94,382,293,138,225,107,259,73
94,396,377,144,226,107,250,67
94,413,409,144,220,104,262,67
102,449,441,156,229,95,265,68
104,452,464,172,248,88,310,64
92,396,452,182,290,88,318,57
102,426,484,196,309,93,333,61
129,489,505,196,292,99,327,65
126,459,467,179,268,99,310,64
120,443,444,176,263,105,226,66
120,435,437,176,219,99,215,67
135,460,393,182,197,99,191,71
119,417,310,168,155,96,178,69
113,400,310,166,157,92,173,63
116,421,315,171,192,113,269,59
116,456,457,166,196,112,277,56
95,405,471,134,193,100,270,51
80,357,495,138,196,93,265,49
81,359,489,138,204,92,267,48
76,336,491,133,180,68,145,44
90,384,394,134,181,75,94,45
71,326,358,133,189,81,83,39
75,330,334,129,187,81,83,38
75,328,332,137,188,92,71,38
72,327,310,127,189,92,72,38
57,276,323,156,202,96,81,37
56,279,302,153,202,92,81,39
50,270,287,146,197,90,80,36
49,265,285,147,203,86,77,34
51,252,284,142,203,75,70,33
47,164,225,108,218,73,45,35
66,162,164,109,210,75,46,39
79,145,166,116,230,75,37,49
92,145,212,120,233,76,39,56
107,139,215,127,224,76,41,64
116,139,238,131,210,73,39,61
139,97,228,132,214,72,36,68
140,94,243,168,231,77,33,68
207,104,255,195,222,69,34,126
301,135,334,218,224,68,46,181
306,179,334,210,211,56,47,184
297,233,402,220,220,59,45,181
297,246,419,192,184,53,46,180
262,296,404,171,197,53,44,147
137,294,348,135,200,51,30,64
131,436,496,163,224,66,60,61
125,444,474,149,226,68,67,59
119,459,456,164,235,69,68,59
92,437,444,152,226,72,69,50
90,438,472,154,206,75,70,45
68,311,362,156,211,102,52,45
81,331,395,174,215,117,48,59
102,409,481,190,213,123,55,65
108,415,495,195,234,133,58,65
117,417,469,197,243,145,60,70
132,430,443,182,232,130,61,71
124,385,405,182,237,117,59,60
111,284,305,154,231,114,53,57
143,269,345,144,203,112,52,72
152,326,435,172,212,100,49,70
156,349,509,190,212,93,49,68
155,356,515,191,200,94,53,67
155,357,515,196,198,89,50,64
124,363,508,198,200,73,44,47
103,303,433,167,190,68,42,42
76,212,338,167,163,68,48,34
92,228,313,159,190,87,56,40
87,215,300,152,202,93,59,38
82,185,261,151,208,96,61,35
88,196,284,163,217,95,62,38
89,194,281,139,229,103,60,38
72,183,281,126,194,94,52,33
75,206,320,145,198,93,59,35
75,206,306,146,194,98,61,34
85,233,347,146,185,98,64,34
80,246,332,149,167,90,58,40
99,231,436,151,158,92,65,53
129,227,416,127,141,104,117,60
138,236,429,132,160,108,147,84
146,256,489,150,238,132,209,101
147,251,495,155,267,129,248,108
136,250,436,165,280,126,331,113
112,261,446,171,286,117,378,142
129,270,509,174,276,119,402,152
136,222,420,175,268,102,400,155
138,227,458,178,271,116,392,154
160,244,497,183,269,123,361,169
163,273,546,199,270,123,315,162
150,309,505,198,275,120,282,156
130,323,554,206,254,127,274,148
137,320,535,221,257,117,347,147
115,309,482,210,267,107,314,125
105,267,398,195,255,107,311,98
116,211,383,196,260,97,334,138
118,207,286,179,232,82,319,141
110,211,246,147,188,75,292,140
108,210,274,144,159,77,340,143
109,198,290,135,186,73,340,145
88,265,313,147,180,87,315,128
91,276,368,136,168,83,313,121
92,263,369,135,168,83,255,120
86,267,353,140,173,77,202,121
81,271,357,149,179,81,209,123
98,220,347,129,162,73,216,85
120,258,326,128,191,77,210,94
128,270,347,147,220,86,202,134
127,263,365,153,224,104,188,132
129,253,348,151,216,107,265,139
124,260,319,147,227,103,264,140
95,203,305,166,232,111,267,134
83,208,354,161,219,105,290,92
94,261,347,160,217,89,308,87
96,278,352,157,206,92,295,74
87,262,377,167,208,92,292,66
84,280,436,146,189,79,298,61
83,295,387,142,199,83,332,58
73,245,382,138,200,87,345,61
65,253,395,161,230,87,320,53
69,289,401,169,248,93,350,56
71,316,403,186,283,100,359,59
73,287,421,189,277,95,324,58
82,291,425,190,277,88,330,55
88,291,416,175,255,78,322,53
92,275,393,160,247,79,322,59
100,223,311,140,208,68,410,66
96,232,280,153,237,68,412,67
91,242,311,137,236,71,399,69
87,224,319,141,255,83,392,69
80,227,336,140,246,75,372,60
70,228,345,146,240,87,333,51
78,228,344,168,307,111,330,55
88,241,278,169,310,111,309,51
107,248,308,192,300,105,287,58
116,277,292,209,312,107,278,60
118,269,261,210,318,103,235,61
113,262,259,185,236,88,220,54
126,359,345,200,282,99,213,65
120,381,360,173,278,99,224,61
116,352,364,151,259,95,215,66
121,382,403,154,252,90,153,64
122,389,405,149,243,82,309,71
105,291,345,144,188,70,322,68
100,306,410,146,178,66,318,66
97,290,391,146,215,73,320,60
112,260,428,145,216,73,320,68
116,279,489,140,211,67,200,65
120,289,512,127,203,71,210,65
116,245,434,124,250,77,212,73
115,287,549,136,226,74,208,72
102,294,510,128,229,74,201,64
104,276,472,137,228,81,230,64
96,258,449,151,236,76,219,61
114,255,486,155,219,68,212,48
120,229,376,138,219,65,238,50
130,199,358,154,239,72,236,54
128,193,353,146,245,64,187,63
132,194,387,130,232,66,178,59
120,177,390,125,207,65,178,59
114,168,397,141,201,69,155,61
103,163,408,118,170,65,263,67
122,146,402,122,154,64,278,56
113,151,384,124,156,67,286,57
111,151,332,119,146,70,289,59
108,142,347,120,161,68,283,59
102,142,337,123,156,64,185,47
79,176,340,123,188,76,138,44
80,158,299,124,198,81,106,41
86,158,325,157,222,93,117,48
126,151,289,160,228,89,106,52
124,177,308,155,231,97,104,53
127,143,282,161,231,89,116,62
127,146,304,180,253,84,116,62
120,173,264,158,263,98,105,56
97,179,249,147,265,104,113,49
113,189,329,161,286,104,108,50
178,245,415,154,279,103,92,52
182,248,428,131,258,105,109,52
188,277,437,141,230,78,111,51
190,278,439,139,231,88,119,58
197,288,373,121,204,110,122,69
136,248,280,116,202,114,126,62
137,244,258,114,199,112,111,62
130,192,332,115,206,112,102,62
111,182,356,124,182,99,86,55
77,148,359,127,178,68,88,38
90,163,363,129,206,80,89,45
80,182,374,136,212,78,85,45
89,194,296,129,206,78,79,48
102,212,294,150,230,102,70,50
113,204,290,167,255,110,74,54
125,191,302,171,253,100,71,51
125,172,268,171,261,108,81,50
120,167,278,162,261,112,81,47
119,177,272,132,236,92,81,48
111,186,294,113,220,86,72,43
84,181,294,117,212,87,70,37
84,190,313,110,190,81,60,35
81,182,300,106,183,73,61,35
77,198,298,123,187,75,66,33
73,194,277,124,191,68,66,32
87,200,320,111,162,64,57,39
99,214,356,114,163,59,73,44
113,249,405,127,180,64,71,46
107,232,408,119,205,67,69,42
112,231,408,122,203,69,69,44
106,231,362,121,205,85,86,41
97,215,390,129,202,82,84,40
87,170,357,124,193,79,87,37
89,158,338,125,210,83,96,40
78,150,370,124,193,82,98,42
78,139,366,118,191,66,88,40
80,144,286,117,192,71,76,40
89,145,269,118,198,71,69,42
91,176,417,117,145,68,57,41
94,180,401,118,152,66,50,36
101,187,405,125,145,66,51,37
100,205,415,115,161,71,54,34
87,197,411,126,179,80,59,32
83,185,304,144,198,75,56,33
87,183,292,135,197,85,60,36
86,202,281,135,238,91,55,38
81,187,273,146,241,85,49,37
80,205,312,152,227,78,44,36
74,191,331,156,221,83,43,34
63,187,315,163,221,80,48,33
52,181,375,164,187,77,61,26
57,177,395,163,209,79,63,24
86,156,369,147,214,80,64,36
92,175,324,113,202,79,63,35
93,200,405,107,201,72,55,35
96,217,383,120,211,76,41,37
92,210,355,115,177,70,39,37
64,225,355,118,157,71,39,28
57,211,436,147,210,73,59,31
54,185,377,162,239,80,62,30
41,143,346,152,224,70,62,28
43,148,347,146,225,75,65,29
45,132,363,143,242,77,64,29
46,110,289,116,202,71,50,27
46,159,289,142,205,64,47,28
47,168,305,147,207,63,43,27
44,163,308,148,198,59,48,26
49,176,307,152,187,49,48,26
56,224,281,156,224,57,44,28
56,190,270,121,203,66,44,27
54,180,246,120,221,75,44,28
66,200,261,151,259,83,38,30
59,188,240,145,269,87,38,29
56,133,226,136,239,89,35,29
55,151,280,144,231,88,37,30
55,162,290,142,218,81,36,31
47,146,272,102,194,75,31,31
48,176,382,123,177,72,30,32
44,188,392,134,179,63,35,30
44,180,364,129,180,55,34,29
44,182,397,127,170,62,37,28
39,175,421,142,143,67,37,26
38,138,327,147,161,65,36,24
36,124,337,150,161,74,32,24
36,134,349,154,165,79,34,27
38,131,316,156,158,71,30,25
34,131,290,150,164,68,30,23
32,139,302,131,151,73,30,22
34,136,276,121,142,66,28,22
33,120,239,112,129,56,24,20
37,146,236,114,129,57,25,23
38,154,232,122,142,62,27,25
42,177,278,123,143,65,39,25
43,194,274,129,148,68,41,41
54,272,351,144,167,70,44,46
50,269,389,147,173,78,46,45
55,282,398,136,149,74,45,45
63,297,367,151,162,76,43,47
61,294,369,149,174,77,45,35
59,249,339,145,157,81,71,31
86,231,287,139,181,82,71,44
92,210,280,156,214,86,72,45
85,185,268,139,203,80,71,43
92,253,337,138,187,76,70,45
90,243,325,141,208,75,41,43
78,251,360,163,226,72,37,30
67,251,362,157,207,66,53,29
71,276,409,163,200,63,51,31
73,219,382,160,210,64,49,26
76,222,376,147,187,62,49,28
61,217,357,117,140,59,50,27
63,220,366,124,152,56,30,28
76,249,377,124,166,61,57,28
66,229,338,127,151,58,64,29
64,215,314,126,174,61,78,30
65,215,294,126,187,66,90,30
65,218,281,108,170,71,102,38
49,151,215,108,166,74,95,38
56,166,259,129,203,82,94,42
57,172,281,128,202,79,96,42
67,177,297,185,232,80,186,48
71,185,292,199,240,86,205,49
86,246,396,212,233,86,212,51
83,245,387,205,215,83,260,52
102,294,434,220,211,90,356,66
107,338,451,183,173,101,364,67
106,338,479,179,185,103,389,62
116,354,425,171,187,106,393,68
125,385,428,191,214,111,370,74
113,360,371,178,219,105,281,62
103,318,335,176,232,96,217,58
101,312,300,186,261,88,148,57
83,251,294,185,267,78,133,50
70,197,285,163,240,67,113,34
68,167,315,181,235,71,99,35
73,166,329,181,231,68,96,35
91,175,350,167,182,62,82,46
96,146,351,153,174,65,79,54
99,132,371,157,182,69,79,56
96,143,373,144,199,70,81,54
98,143,382,132,177,66,82,54
82,139,372,135,194,71,81,46
72,149,344,137,198,72,65,36
77,232,343,130,191,66,76,37
80,227,306,111,176,69,78,39
77,226,283,121,191,69,75,41
78,235,275,109,177,68,71,40
87,261,288,130,186,72,85,42
83,217,253,135,192,78,79,43
85,213,289,141,176,71,89,45
92,245,320,139,159,71,89,51
99,250,422,159,175,74,89,52
84,217,415,146,183,67,75,47
86,195,429,152,186,71,67,45
83,193,408,150,202,69,82,61
72,173,391,149,203,70,115,78
65,194,365,171,200,70,118,80
72,209,375,163,179,66,119,84
67,219,397,147,171,58,131,83
67,219,417,146,174,64,112,70
75,200,408,148,188,69,80,51
77,158,324,114,186,70,75,51
79,185,422,136,210,74,81,50
77,221,408,146,238,80,65,51
80,233,389,145,226,79,64,58
87,235,408,153,227,78,61,56
99,248,456,137,212,72,58,66
112,231,377,114,208,76,48,79
117,207,370,121,229,70,37,86
121,194,377,119,255,80,38,87
123,193,370,142,246,76,35,94
142,170,309,151,251,76,35,107
134,141,266,182,241,72,34,99
136,126,311,173,208,66,33,94
130,128,306,177,182,50,30,89
121,125,290,144,180,47,29,78
85,119,280,131,167,44,31,45
77,112,263,118,180,45,28,42
80,85,188,118,169,48,28,57
90,85,222,140,258,65,34,65
85,94,236,145,267,67,35,64
83,100,265,151,272,72,36,64
85,156,287,140,268,76,39,66
70,158,274,157,298,77,38,53
59,159,241,161,283,73,37,51
84,234,376,173,281,80,50,58
81,247,362,177,284,80,51,58
75,224,342,171,277,77,52,54
79,248,357,159,235,77,56,52
76,244,352,127,157,67,53,42
49,197,264,113,186,58,40,30
64,192,276,113,182,59,35,37
65,195,284,112,177,56,30,38
58,167,269,123,223,58,23,37
54,177,277,128,225,59,27,36
53,159,254,125,196,59,27,36
45,151,324,153,224,66,26,31
48,136,312,153,246,69,24,29
53,126,309,142,205,64,25,40
54,136,304,152,211,72,24,42
54,123,267,154,205,70,25,42
43,107,140,117,175,62,25,39
41,114,137,123,193,61,26,38
34,116,131,132,202,62,26,26
29,89,121,117,182,51,22,22
28,87,135,134,230,53,22,23
52,85,150,141,242,52,25,32
51,76,146,134,231,45,22,32
53,86,156,128,224,45,21,32
54,104,180,134,229,56,25,33
55,108,180,122,219,57,31,34
35,127,185,116,207,57,30,25
40,132,192,113,180,62,35,27
37,136,182,107,192,62,35,26
37,128,165,110,193,56,37,28
36,136,146,114,156,55,33,25
36,155,197,120,148,55,35,27
32,196,308,139,174,55,32,27
31,195,318,138,161,59,32,26
42,245,329,143,180,62,30,26
44,246,327,130,177,62,29,26
42,248,344,126,188,62,28,22
43,236,272,115,162,59,28,20
45,240,290,131,175,64,30,21
34,201,289,116,159,60,31,21
40,213,296,118,155,61,36,25
43,220,293,117,149,64,37,26
41,213,296,109,152,64,38,26
39,205,273,106,150,54,37,26
41,211,272,107,151,60,37,24
33,195,282,111,172,61,32,21
32,160,221,110,165,57,28,20
31,149,233,110,164,55,30,19
32,145,230,94,148,55,29,20
29,123,242,103,150,53,27,21
28,118,239,98,133,45,26,21
26,113,258,111,148,54,28,22
33,154,324,138,205,60,29,27
40,206,421,145,210,65,29,27
41,218,409,136,202,60,29,27
41,218,401,134,211,67,33,28
40,219,395,119,201,60,33,27
37,216,369,86,140,58,32,26
31,170,255,88,164,58,32,27
31,148,253,105,186,61,32,26
30,144,272,127,196,59,30,27
31,146,270,130,202,65,32,27
30,134,209,138,219,67,32,25
31,149,255,134,200,64,32,24
33,150,252,128,181,63,30,24
33,151,230,137,211,71,29,23
37,169,230,139,212,70,27,24
37,163,225,129,195,69,25,23
34,152,180,131,201,69,25,22
34,150,189,156,229,72,29,23
34,149,197,135,200,63,30,25
34,143,200,136,217,63,32,24
34,173,224,149,224,58,32,24
40,222,297,152,228,57,33,26
39,222,294,120,201,52,31,23
41,225,287,117,197,55,31,25
38,212,277,118,197,54,28,26
41,219,278,107,196,57,29,29
37,186,187,93,191,59,28,28
37,186,183,99,199,56,29,29
36,187,193,91,181,53,31,25
35,191,194,75,147,50,30,25
29,141,186,65,129,50,30,22
32,143,208,67,106,52,34,25
34,172,233,86,159,58,34,24
32,170,235,93,161,58,31,24
41,192,242,108,195,67,33,26
43,204,251,125,216,66,34,26
39,186,231,131,233,66,29,24
41,172,207,115,199,68,32,26
40,167,197,142,223,76,33,26
32,140,196,140,217,76,33,24
46,196,196,144,218,85,39,30
47,208,215,138,205,82,39,31
54,222,226,138,197,81,43,37
56,229,234,119,182,85,47,36
56,243,233,112,159,77,46,35
44,188,246,98,139,71,41,31
48,194,230,102,180,75,41,34
45,171,213,106,189,76,36,32
52,208,226,93,175,64,32,37
57,267,256,92,177,69,35,38
62,282,218,82,175,64,34,39
60,276,222,81,140,63,37,38
55,276,223,98,153,60,35,35
46,247,202,105,170,66,34,32
38,167,155,105,177,62,31,30
31,143,141,104,181,60,30,30
25,120,127,115,193,65,26,27
26,115,122,106,206,72,30,27
27,114,117,98,193,69,30,24
25,105,127,111,194,68,28,24
28,106,185,107,185,72,30,25
32,142,233,108,172,67,32,27
30,139,254,102,129,59,31,26
30,133,255,109,158,58,31,26
30,136,250,104,189,73,32,26
31,144,219,107,200,72,31,24
37,151,214,98,195,75,34,24
38,158,195,94,200,74,31,23
44,177,215,97,189,66,29,25
50,217,253,97,165,65,33,24
49,221,261,112,156,70,34,24
44,215,252,108,150,67,32,24
45,225,271,115,166,73,35,23
42,222,276,118,158,74,37,23
35,180,236,120,142,65,35,23
37,172,238,106,134,57,35,23
34,146,211,114,181,66,33,21
33,145,196,112,166,61,29,21
36,173,200,101,160,63,31,22
36,176,198,111,190,57,27,21
35,170,170,116,208,61,27,22
44,187,177,105,172,49,35,26
54,179,257,118,203,59,60,29
49,133,237,118,213,56,76,27
51,126,247,109,193,57,81,27
50,133,274,118,185,52,83,27
46,125,306,125,205,53,82,27
43,159,312,113,185,43,74,30
47,175,315,112,173,49,64,32
47,187,323,134,213,55,67,34
54,176,298,140,230,69,65,37
52,174,263,143,230,68,65,37
58,239,259,158,241,68,58,35
56,249,357,164,246,71,50,35
70,293,432,159,235,86,60,38
66,301,441,146,218,81,64,35
66,298,440,135,197,79,62,33
55,223,396,110,169,79,62,31
56,206,328,103,171,80,81,29
46,148,214,76,129,66,73,26
44,161,229,90,129,72,101,28
45,169,260,96,126,78,105,30
46,183,271,101,123,82,108,30
44,194,285,109,127,107,204,47
35,207,334,111,143,135,254,61
52,258,343,105,148,146,449,92
58,269,370,101,157,150,463,131
67,285,386,120,189,150,477,136
70,279,394,137,217,142,453,133
82,328,396,160,231,133,434,131
75,291,387,161,240,122,269,112
70,282,349,164,240,114,247,64
64,267,339,160,235,112,221,55
59,261,309,164,215,101,206,49
43,183,270,145,199,77,205,40
39,156,256,138,180,70,196,45
55,222,306,146,183,74,213,42
65,271,339,144,162,75,227,43
77,365,419,145,155,70,243,52
79,366,412,140,137,82,278,58
89,396,420,156,156,91,283,59
88,377,399,148,152,92,283,62
87,355,372,144,169,92,279,64
89,300,349,131,170,101,275,63
90,297,356,129,176,92,331,60
84,290,341,135,172,90,341,56
81,272,325,150,175,89,334,53
88,322,360,174,207,95,351,52
76,289,300,169,199,86,346,44
74,298,312,171,197,83,280,46
73,294,347,154,192,80,240,41
72,299,370,139,189,74,252,45
65,248,362,102,148,75,230,47
72,267,479,101,193,83,233,50
73,258,463,109,197,80,202,44
72,238,445,102,186,79,276,45
67,227,421,115,209,86,279,41
55,213,455,127,230,79,284,38
44,185,321,117,201,70,315,39
67,213,329,119,202,74,406,51
69,206,426,120,209,66,381,49
90,250,462,112,197,73,437,63
113,282,450,104,168,72,440,76
124,298,522,109,154,70,424,77
116,278,527,119,193,76,349,75
122,287,456,156,235,85,330,79
121,276,503,167,230,86,283,79
140,307,531,178,229,95,294,126
188,488,640,260,244,107,366,234
240,601,765,287,224,119,402,325
287,606,798,284,186,125,532,346
305,606,784,279,231,124,530,352
304,594,763,272,223,118,526,339
279,492,702,202,221,108,479,282
249,413,588,168,225,92,439,180
249,444,639,144,228,83,353,161
224,439,623,142,174,86,433,179
206,431,681,139,179,87,436,185
201,448,659,140,173,99,452,185
187,451,742,119,167,96,454,177
101,442,709,144,175,90,379,155
99,458,707,141,177,78,346,114
126,500,700,150,171,82,343,100
138,501,707,163,166,74,320,81
143,512,687,185,148,73,319,68
163,536,686,178,137,79,315,76
180,525,688,190,174,82,322,120
166,470,609,199,184,83,337,117
175,434,580,188,221,78,331,122
227,522,638,207,235,90,332,137
215,488,605,194,227,84,340,134
212,482,601,189,201,87,332,124
231,497,642,181,203,83,326,132
224,550,694,182,163,84,318,128
173,425,605,145,144,78,314,114
171,410,596,146,151,79,307,118
164,414,619,147,147,74,247,90
135,446,641,147,137,74,248,89
123,373,605,141,162,71,247,89
124,353,610,130,163,68,258,93
135,344,593,170,217,77,257,93
142,332,570,173,235,76,206,109
144,275,533,165,236,75,229,116
152,260,481,166,228,77,240,126
157,304,486,187,257,90,229,126
169,301,485,155,215,91,273,129
154,301,472,145,211,106,320,114
160,301,453,144,228,110,282,104
149,309,468,149,234,109,277,91
147,264,371,126,218,92,273,88
132,266,379,142,263,111,271,89
166,272,404,145,273,102,281,98
158,262,463,152,256,102,291,92
170,338,602,165,248,103,294,101
180,329,611,169,229,104,294,109
176,336,628,172,231,95,373,121
160,351,631,172,213,104,347,143
161,394,644,182,219,98,337,146
147,323,534,171,211,95,347,143
122,314,537,169,229,100,349,137
131,312,550,157,177,84,223,125
110,296,558,162,203,78,217,83
107,301,546,173,203,78,216,76
117,309,501,170,216,90,197,81
126,320,499,184,210,93,195,84
108,314,472,184,233,106,202,80
111,344,551,200,214,102,148,81
119,354,570,184,212,101,140,79
117,387,605,178,198,95,147,70
120,391,652,172,195,94,163,70
125,393,658,166,179,77,154,66
123,365,592,137,186,76,147,69
112,346,597,183,244,81,144,67
108,315,563,194,251,92,147,68
94,290,488,182,246,93,121,60
91,288,462,186,241,94,122,56
125,300,442,192,224,88,164,64
128,282,332,144,162,87,166,62
129,256,314,144,169,77,172,55
130,266,327,148,163,72,183,57
134,271,361,155,170,76,176,60
118,276,385,151,175,78,142,54
120,263,395,151,172,72,158,60
122,255,406,155,178,68,133,61
128,252,397,155,187,73,315,83
120,245,393,142,175,77,339,84
109,229,351,153,186,74,348,80
106,231,466,163,188,83,348,87
101,265,488,147,164,79,352,88
86,277,488,166,187,74,234,70
90,288,478,175,179,65,210,70
85,309,485,163,192,66,193,69
84,282,368,143,208,63,178,56
86,301,425,153,221,69,168,55
86,303,467,152,209,69,121,54
83,319,490,164,237,70,100,60
84,328,515,187,246,79,137,61
95,371,518,211,252,81,136,64
87,338,466,207,262,81,140,64
82,357,474,200,258,80,134,60
83,331,455,189,246,76,135,51
76,292,420,175,245,66,114,50
70,265,427,164,240,62,112,49
72,255,426,158,212,62,103,48
79,216,449,151,202,72,116,48
83,220,428,167,210,78,156,49
80,222,444,161,168,77,145,101
74,194,459,215,228,77,160,107
75,193,430,224,227,87,199,109
71,184,363,233,238,81,190,112
77,218,448,219,219,89,226,113
82,211,435,241,293,109,301,73
93,296,469,216,281,111,302,66
101,327,524,215,297,122,283,66
105,343,563,201,292,126,285,61
122,337,529,195,291,140,344,61
129,370,544,169,254,150,297,53
124,298,496,125,226,157,298,49
119,294,551,118,213,144,298,47
119,385,558,146,222,139,308,47
93,379,533,179,240,130,218,52
94,355,504,174,205,102,237,58
93,378,536,189,173,84,240,94
97,360,431,206,213,101,234,98
100,258,388,201,216,101,231,98
95,247,395,184,206,92,227,96
81,245,385,200,214,104,190,94
79,219,327,189,229,103,174,60
91,254,353,165,208,86,180,59
85,267,351,160,246,87,166,57
85,266,342,170,263,87,179,59
88,267,386,157,263,79,204,60
98,352,459,180,267,83,209,64
82,320,443,190,268,85,209,55
80,296,430,178,221,88,213,54
88,308,456,163,233,93,175,49
93,310,482,192,268,93,174,112
81,229,417,176,274,95,177,111
90,244,457,173,262,96,173,119
93,243,432,172,268,94,172,123
90,239,419,174,238,81,266,123
103,283,425,156,232,84,284,71
118,272,401,184,256,103,289,69
125,272,361,184,271,107,294,59
128,293,368,188,268,114,295,52
133,282,363,194,269,122,224,62
122,238,305,186,239,117,173,58
106,251,320,158,219,102,156,56
87,254,291,160,231,96,169,54
83,249,331,162,243,95,176,56
76,255,322,160,255,84,195,42
78,263,303,149,259,81,300,57
85,267,309,133,230,70,317,58
92,268,311,123,205,70,315,58
91,253,317,122,193,51,309,55
107,283,365,102,173,53,293,56
106,285,394,125,227,61,217,48
109,266,395,130,243,84,295,65
104,252,457,129,232,87,320,68
117,319,464,133,222,89,345,71
103,319,466,138,225,89,346,72
111,303,493,142,170,89,336,68
113,291,467,152,179,69,301,65
112,291,409,151,184,71,333,64
107,225,448,146,194,75,320,71
112,245,473,161,212,83,317,72
99,253,418,152,216,79,311,73
90,319,472,176,242,88,278,59
91,322,497,172,242,97,229,58
84,311,449,191,252,102,223,46
80,292,422,198,249,107,215,44
82,287,443,197,245,104,209,49
80,219,401,168,206,98,187,52
75,216,371,187,241,97,191,50
73,217,359,170,228,89,175,51
76,226,338,163,227,82,183,48
70,221,297,153,223,90,180,40
72,218,277,157,220,86,176,37
74,216,327,182,226,91,129,37
77,221,357,196,243,100,131,39
74,174,319,189,240,106,226,54
78,177,349,209,238,100,292,55
79,179,370,214,260,109,301,55
91,181,329,183,230,100,310,54
91,188,327,167,209,89,311,52
81,203,425,191,214,83,245,34
80,201,403,167,206,83,182,35
85,274,465,167,180,80,163,37
78,287,485,173,240,85,153,53
74,289,482,170,279,90,147,53
75,305,424,150,315,99,155,55
72,306,417,162,322,101,133,53
57,235,355,160,328,112,138,51
49,212,324,158,306,110,116,34
56,211,321,177,291,107,126,43
69,218,323,171,241,95,112,42
69,212,350,173,258,92,102,43
79,256,379,181,256,74,106,49
83,255,384,171,229,63,109,50
84,251,344,176,230,76,109,43
73,279,459,201,254,90,132,53
81,289,478,205,288,115,131,55
75,256,446,199,279,119,137,54
78,274,465,208,284,124,139,55
75,267,480,196,269,117,133,56
73,194,371,173,247,113,137,46
77,229,417,167,173,89,163,46
77,244,421,158,182,89,159,40
70,250,431,170,251,92,157,48
72,252,438,165,246,92,204,60
79,268,445,153,229,79,215,107
73,275,476,164,277,85,255,137
73,290,485,172,287,77,257,140
77,349,581,155,223,63,259,141
72,356,573,176,286,76,237,137
64,352,554,177,323,94,295,108
67,363,514,157,286,99,279,77
78,369,553,166,278,103,296,79
78,348,551,206,289,112,300,71
109,486,723,203,246,112,329,79
121,492,735,221,214,116,373,82
122,474,707,217,216,133,390,73
121,504,802,222,220,132,376,73
131,526,749,206,247,140,377,77
112,417,641,208,242,135,345,66
106,426,652,227,270,127,310,59
111,431,649,235,281,115,302,62
131,404,548,217,279,130,311,74
129,369,572,205,243,114,308,73
145,398,549,210,245,114,328,84
140,384,552,166,198,121,329,89
135,372,546,171,196,118,344,87
127,349,549,186,219,100,351,78
125,400,555,174,220,109,360,76
104,369,546,141,213,110,368,67
104,362,521,148,248,118,352,60
101,363,531,127,237,110,311,60
80,378,508,117,203,111,294,57
69,316,449,132,202,100,284,62
71,302,430,131,199,102,247,55
79,296,464,134,165,82,201,54
83,289,464,135,162,77,287,53
86,291,470,171,225,94,296,51
83,251,455,183,249,101,295,45
78,240,433,195,262,100,306,54
74,236,400,216,306,121,277,52
69,220,387,221,319,128,224,52
65,187,338,195,278,116,236,49
74,221,330,183,261,117,251,56
75,217,335,178,256,115,253,53
70,225,336,145,206,93,254,52
82,264,358,134,187,82,207,48
82,245,351,136,216,84,205,48
78,227,345,132,234,78,185,39
74,226,331,120,225,73,163,33
73,223,314,123,235,70,157,39
62,214,367,139,241,72,155,45
57,210,328,123,234,69,189,44
50,204,327,119,207,69,203,43
57,209,323,131,221,75,208,43
61,219,378,150,217,77,211,43
55,186,297,146,215,74,208,36
56,213,366,161,192,68,128,35
64,252,417,172,238,87,95,38
63,253,421,171,218,86,94,40
76,273,412,172,223,84,90,38
78,275,424,177,237,89,91,39
96,299,458,175,239,93,98,46
93,260,419,156,189,76,102,44
94,258,440,149,193,71,88,43
83,220,396,128,162,65,79,44
83,227,384,130,145,67,81,52
62,201,300,122,173,67,73,46
57,190,284,125,178,63,71,47
50,188,259,122,168,61,87,47
59,243,302,115,166,66,114,45
57,233,295,88,149,57,109,34
81,283,367,109,134,70,110,40
83,291,374,117,161,81,106,38
85,297,364,123,172,80,102,37
83,281,369,156,202,78,82,40
85,292,413,165,211,92,91,41
71,279,422,158,204,82,93,39
70,278,419,165,207,74,98,38
69,291,436,163,202,79,123,40
67,290,501,134,175,91,152,50
68,285,470,136,171,85,156,52
84,338,474,164,165,90,168,53
86,342,478,154,140,97,170,56
84,326,461,158,138,101,152,54
82,321,354,161,161,99,136,42
86,351,427,167,180,98,133,42
63,260,351,132,203,92,117,41
72,273,399,143,238,92,119,55
86,290,416,144,261,89,125,68
90,310,438,162,275,84,107,69
88,287,401,159,264,84,96,69
85,304,475,160,248,82,113,69
117,373,550,158,264,86,144,77
115,367,533,160,254,90,142,74
115,350,581,136,230,92,144,74
116,347,573,133,233,95,151,73
116,318,497,119,233,101,138,72
94,230,390,120,173,96,105,70
94,225,410,110,162,90,108,69
97,240,387,114,169,85,108,81
97,237,432,110,169,81,119,83
100,278,436,127,181,77,148,84
89,296,432,130,202,73,158,71
90,291,456,140,233,90,173,69
97,310,497,145,241,94,175,66
108,315,460,138,248,92,167,71
111,287,490,139,270,96,146,72
110,257,469,124,264,96,138,72
103,259,475,141,252,77,151,67
105,234,406,150,241,70,163,62
89,213,381,154,264,71,161,62
83,213,345,158,274,69,158,62
75,210,386,165,275,73,156,59
81,225,348,157,283,82,131,59
64,218,323,142,293,77,109,55
63,214,354,143,258,72,107,46
62,237,408,131,231,71,111,43
64,255,403,133,222,76,123,52
56,244,425,130,203,73,126,55
52,211,405,133,198,85,132,51
67,217,383,129,198,86,133,56
72,198,367,125,168,83,131,55
69,153,338,129,190,76,114,46
69,144,320,159,237,83,103,43
72,200,418,174,250,75,95,46
61,218,432,179,283,87,98,40
58,232,405,180,281,85,102,40
62,259,502,174,268,84,100,39
73,252,482,136,223,80,119,54
73,226,406,108,190,82,131,52
70,216,412,103,144,71,128,52
65,208,404,101,153,74,127,51
67,183,276,125,216,80,147,53
65,195,299,142,208,76,131,38
61,182,292,149,214,75,126,39
69,203,362,158,236,77,125,39
71,179,349,160,236,78,128,39
67,188,345,137,186,76,118,37
58,179,334,114,187,73,135,45
57,187,383,120,214,80,155,55
48,152,284,111,212,85,162,54
47,186,278,112,209,83,172,56
57,186,265,148,275,85,169,58
56,191,259,150,283,85,149,50
57,191,230,146,270,76,125,40
56,184,248,148,263,74,128,41
60,179,292,152,265,76,107,41
56,185,348,144,182,77,113,41
70,176,340,145,181,79,115,53
70,196,316,143,175,77,120,52
71,203,323,149,185,75,121,51
71,196,371,150,200,77,120,52
67,181,345,124,208,67,127,50
61,209,379,123,204,64,129,42
62,184,380,118,196,65,133,41
62,197,424,123,198,64,122,42
60,186,374,112,211,61,121,38
64,194,372,106,214,64,103,38
56,165,343,105,204,62,98,32
61,167,335,104,204,68,86,34
57,155,318,92,191,70,83,32
70,174,398,119,169,86,90,38
69,174,413,126,161,87,91,40
69,186,442,140,165,90,88,41
70,215,451,152,190,93,90,42
70,226,427,186,246,91,96,44
60,212,381,176,242,75,105,44
64,213,399,181,249,73,104,42
82,228,375,172,261,68,99,46
84,226,394,171,272,70,156,46
102,288,495,141,225,69,158,52
120,300,471,154,260,83,154,57
152,445,527,171,282,95,191,76
145,442,527,176,273,102,296,81
171,498,643,190,267,103,284,83
167,469,572,181,258,103,285,84
163,502,679,174,213,96,316,87
142,385,626,162,187,88,329,81
145,384,629,167,222,87,302,84
131,315,505,141,204,80,292,87
123,320,503,141,200,79,292,82
111,253,334,138,215,79,259,71
99,257,311,134,216,84,252,70
96,251,313,120,200,92,254,59
67,246,335,129,226,97,271,54
76,223,330,121,228,94,272,55
74,220,322,131,239,100,269,56
79,202,328,125,244,93,243,45
79,219,364,134,226,81,154,41
71,192,355,125,199,76,149,36
63,197,364,134,207,76,140,36
73,204,375,141,226,73,153,54
65,191,365,139,224,85,143,52
59,162,305,131,232,95,154,51
58,157,265,149,252,97,120,50
60,136,225,150,244,98,119,50
66,297,394,161,214,93,103,36
71,328,403,163,203,82,98,40
80,340,441,170,240,67,117,42
90,340,436,157,214,62,122,46
87,359,479,161,214,67,138,49
77,243,354,149,233,70,165,51
73,202,336,152,229,73,170,50
69,231,340,150,180,75,150,49
63,234,371,180,214,92,152,45
67,221,311,186,238,92,149,42
85,266,360,173,210,88,196,38
113,288,363,187,222,93,204,73
125,292,356,202,252,97,277,82
143,339,352,189,232,87,389,95
150,371,395,190,210,85,394,97
151,351,360,191,223,86,373,106
134,334,373,178,218,84,375,88
142,343,435,162,211,87,411,83
129,297,429,148,201,90,345,103
127,300,486,157,219,93,384,130
143,312,545,169,214,96,384,134
162,408,636,172,207,94,417,143
150,393,599,182,212,109,342,143
146,400,596,185,215,103,314,122
142,368,530,184,209,101,261,94
121,350,469,196,239,100,247,77
92,242,387,197,252,96,175,55
85,230,382,179,240,79,178,53
90,276,428,170,243,84,160,56
86,270,424,150,245,89,172,51
76,279,408,126,212,91,172,49
85,299,415,119,197,96,207,54
92,292,395,131,204,92,192,54
82,242,376,139,197,83,196,51
87,254,429,131,188,77,220,59
91,236,434,113,179,67,232,64
86,193,367,102,190,57,208,62
82,196,374,97,213,54,257,64
94,200,353,100,220,48,258,65
91,182,354,111,226,52,231,57
97,251,484,125,249,67,220,55
94,258,500,129,244,70,253,60
100,255,502,126,198,68,263,61
94,263,537,151,250,86,268,62
98,269,499,156,233,86,257,63
88,206,377,145,206,76,260,58
105,259,463,171,204,77,263,59
99,266,486,196,248,81,240,55
98,257,436,175,191,65,234,59
101,297,493,183,258,65,241,62
97,298,523,200,282,70,234,69
84,262,435,180,289,69,183,62
78,244,395,157,254,70,259,69
84,284,474,160,255,80,273,69
79,241,406,157,207,81,269,67
86,242,378,153,186,81,278,65
85,241,381,159,191,91,329,73
105,267,394,152,204,89,265,73
124,217,300,184,246,84,259,72
126,209,313,182,231,85,282,69
125,230,321,176,221,82,282,65
123,227,319,173,208,70,236,58
119,209,321,177,210,70,242,62
100,223,326,135,155,66,227,55
116,255,354,121,151,59,208,55
128,237,355,121,172,72,218,54
152,258,384,125,166,75,230,54
152,307,477,139,148,72,200,45
145,305,486,146,148,71,212,45
132,326,478,152,150,71,243,54
119,342,490,143,152,75,265,56
84,321,464,137,185,70,260,56
73,302,355,132,211,76,253,52
80,308,345,134,226,79,239,50
81,281,307,128,247,88,250,41
93,337,277,148,257,88,319,48
92,342,265,152,234,95,324,47
88,307,255,154,225,92,333,45
95,293,230,160,207,94,341,49
90,271,243,167,227,96,308,48
74,165,217,163,220,94,213,39
80,175,287,161,234,92,214,43
75,183,313,181,273,93,201,41
67,190,327,183,292,99,188,40
71,222,441,172,264,94,193,44
81,296,477,176,257,86,162,43
89,308,454,179,259,92,151,40
92,314,453,154,216,107,298,60
90,311,477,156,217,105,316,61
87,332,437,166,238,107,309,60
84,282,448,152,238,107,310,60
79,281,459,142,222,98,304,58
86,280,443,139,213,84,248,49
85,282,429,159,214,82,233,44
88,231,364,149,186,76,239,42
83,219,311,147,169,76,241,45
78,210,280,148,173,80,242,46
70,199,278,160,194,78,195,37
69,191,262,136,191,78,192,36
71,211,267,142,187,78,189,39
75,295,397,168,227,78,208,43
73,289,407,178,231,74,289,61
86,300,427,172,216,76,302,62
84,297,434,166,193,70,304,62
87,307,437,161,197,70,304,63
83,220,325,150,189,72,311,62
83,218,315,135,187,71,274,46
71,216,282,120,176,68,235,43
86,260,320,134,191,69,274,55
76,231,315,163,205,73,279,53
83,278,426,176,191,70,261,52
91,276,428,187,201,80,210,52
93,309,480,190,222,84,229,57
85,285,435,178,209,80,225,48
87,281,428,168,204,86,231,49
79,240,319,156,204,97,228,51
75,247,316,149,201,96,260,62
74,195,262,164,202,96,240,59
68,204,307,170,209,95,213,61
65,211,299,167,205,97,198,60
69,293,312,163,207,87,192,61
62,289,311,155,194,78,206,49
63,293,302,141,180,76,217,48
68,315,297,143,176,78,218,48
69,314,352,146,171,73,222,48
75,250,318,140,167,78,230,43
75,246,326,181,210,88,191,45
69,242,314,186,219,88,252,47
71,206,303,183,214,95,231,43
74,199,327,192,224,97,231,47
64,192,341,190,237,96,227,51
71,223,379,152,218,91,268,55
71,218,377,144,200,89,221,55
70,196,383,145,228,89,237,54
67,218,326,120,216,85,243,49
76,228,320,143,211,87,279,47
77,226,317,159,213,88,241,43
79,225,322,157,221,85,249,41
73,223,292,147,192,92,296,45
70,206,278,160,218,96,324,48
65,212,375,148,194,89,306,51
55,185,357,133,167,89,299,49
53,188,367,145,189,97,276,47
53,206,394,162,215,90,265,48
62,220,413,153,220,85,220,49
60,209,362,145,221,82,205,46
69,270,448,166,222,78,203,46
66,271,440,165,196,76,201,47
64,260,424,155,194,77,125,43
58,260,407,156,180,76,140,39
56,259,430,160,193,81,126,43
48,186,330,151,198,83,118,43
49,178,332,143,225,76,111,44
54,197,338,135,217,69,185,49
59,183,352,124,200,62,193,51
65,215,435,136,203,74,193,46
60,215,426,126,240,85,197,45
59,219,425,130,217,89,206,42
56,213,416,147,244,85,141,35
50,218,413,174,281,95,106,32
53,219,362,196,307,105,103,36
54,227,363,194,284,100,137,37
57,233,365,191,282,97,238,59
54,233,359,179,247,99,259,61
53,231,461,165,230,89,264,61
45,194,403,124,197,66,271,59
44,182,418,124,193,62,262,60
42,173,408,124,215,64,174,39
46,167,418,136,229,85,141,38
55,241,352,138,231,101,164,40
54,239,357,146,222,103,157,39
57,243,332,154,242,105,142,40
55,248,377,167,266,106,144,39
52,247,403,160,270,99,141,35
42,193,396,157,250,88,100,31
40,198,377,148,249,84,102,31
51,205,409,140,229,86,103,34
53,200,377,130,211,99,157,42
53,194,339,128,195,92,157,55
58,166,277,124,218,105,159,56
61,167,333,118,206,106,165,57
51,171,313,121,211,102,167,53
50,163,327,109,186,87,113,48
50,172,358,106,184,88,134,36
44,195,413,109,158,69,136,35
44,247,399,108,160,62,126,33
53,253,378,107,147,63,120,38
58,272,375,135,168,74,116,40
57,268,338,152,181,71,89,40
67,259,316,143,182,76,99,43
65,199,280,140,184,80,94,46
69,184,278,136,185,78,108,52
70,166,262,121,158,71,122,53
70,161,262,103,143,76,124,53
69,195,277,134,189,85,114,51
69,194,264,140,242,93,124,49
57,184,266,140,250,91,145,37
53,190,280,136,255,89,138,33
59,231,299,153,259,91,135,36
51,205,276,141,237,80,134,32
52,209,267,150,195,73,150,33
53,229,260,149,193,74,198,35
52,229,264,153,191,69,209,41
47,198,237,150,226,64,217,37
46,201,219,139,205,59,221,38
45,203,262,151,231,55,206,36
41,194,266,153,221,65,165,36
48,212,261,165,247,82,217,49
49,222,295,189,237,87,217,51
50,226,287,197,272,98,218,53
51,242,385,188,256,96,228,54
59,255,433,216,284,106,260,54
54,241,446,218,278,104,231,39
55,238,447,196,282,106,249,37
56,262,456,184,250,98,253,35
55,258,375,174,242,100,244,34
52,251,361,132,214,81,216,38
66,247,328,122,234,76,192,43
72,261,312,119,198,69,200,47
73,247,334,129,202,71,193,48
73,238,308,139,214,78,197,48
80,259,352,167,238,87,200,48
74,264,384,161,199,84,275,51
71,261,384,165,221,91,269,58
70,256,353,170,256,95,267,56
83,272,361,174,245,88,266,55
78,249,277,184,273,91,244,53
88,266,308,193,294,100,148,50
86,250,316,185,282,91,104,40
84,232,311,187,259,89,99,42
83,300,395,196,271,97,93,45
87,312,407,177,237,86,210,51
86,355,410,178,211,78,237,58
93,386,426,182,209,79,245,57
96,418,428,169,206,75,253,58
89,371,367,171,205,72,260,56
85,351,345,153,182,77,182,52
73,281,288,147,194,76,240,42
71,244,257,165,218,75,254,54
71,203,279,175,212,74,255,54
81,231,311,154,194,78,253,56
82,239,313,155,191,74,247,54
88,256,346,163,178,67,244,58
85,248,340,136,139,71,260,58
100,314,340,123,159,74,274,68
100,302,321,123,184,70,281,125
101,299,355,136,219,74,295,136
109,313,347,122,222,83,252,142
114,364,423,143,245,79,291,141
110,314,410,158,269,84,307,137
103,310,411,161,255,81,327,94
101,319,437,156,240,87,325,80
84,290,409,161,269,88,310,63
72,225,339,160,275,98,269,55
74,203,339,153,261,96,238,54
90,270,359,169,268,105,362,74
94,274,281,175,285,97,365,73
98,278,287,165,252,85,367,74
102,275,279,149,223,73,344,73
113,282,293,136,197,67,360,74
101,229,293,118,193,64,244,51
102,259,354,128,157,72,258,53
115,316,386,149,181,79,280,62
113,314,386,151,182,78,281,62
90,340,424,157,177,78,268,62
94,376,469,209,216,87,272,56
94,366,455,203,216,87,254,55
115,425,508,198,200,85,241,48
120,436,531,208,269,104,265,52
121,425,496,211,281,110,291,50
128,413,446,160,244,95,288,53
126,409,441,160,258,91,315,53
98,297,367,146,252,88,305,52
98,308,356,145,181,68,282,52
95,295,340,140,169,58,284,53
79,248,442,131,174,57,257,50
82,230,433,127,169,79,214,53
74,235,503,173,182,82,243,51
66,226,499,171,205,90,261,51
65,235,536,182,212,90,220,48
67,253,450,198,214,91,256,47
86,310,474,215,224,89,353,60
96,369,473,194,229,93,344,71
94,366,505,193,225,82,343,69
98,367,512,185,221,83,373,76
102,377,516,192,230,88,350,78
86,324,519,200,203,72,273,69
80,266,466,191,182,68,367,62
88,332,460,190,159,68,370,62
120,428,519,204,156,67,336,55
156,488,515,180,164,69,348,56
166,518,603,180,193,85,368,70
170,539,613,182,209,87,281,69
171,494,587,178,211,90,288,73
154,437,533,164,214,90,301,74
114,345,531,171,188,82,282,72
100,339,430,155,202,76,329,67
96,355,500,167,211,78,341,64
106,404,590,191,218,77,319,59
110,418,615,203,239,78,323,65
119,488,662,234,271,87,365,72
115,474,661,227,245,79,292,62
110,441,607,239,252,70,290,67
98,392,544,218,261,73,304,76
87,346,494,214,235,71,324,73
72,229,411,175,201,58,275,67
85,219,445,182,203,61,272,72
89,207,427,158,185,70,309,74
82,254,476,164,172,66,306,68
84,240,469,153,184,64,276,65
85,239,461,152,181,72,291,67
80,238,397,133,184,76,312,71
71,240,435,130,186,82,264,64
69,200,360,159,247,96,257,63
65,199,358,169,284,102,247,62
60,202,374,171,293,100,224,59
76,207,434,184,286,100,327,54
81,213,401,175,271,90,318,53
83,205,387,140,202,79,319,49
84,213,406,123,129,72,433,67
97,247,470,123,94,66,451,78
82,249,430,101,160,68,393,73
78,238,413,104,179,79,426,75
87,268,501,123,225,84,431,76
90,288,483,128,243,98,346,63
77,261,441,135,259,99,332,49
80,246,459,174,251,108,302,49
83,238,505,180,240,101,272,47
75,217,479,206,208,95,303,48
91,279,573,233,201,96,321,60
99,333,630,231,240,120,337,62
115,416,680,212,247,106,343,63
117,464,677,217,280,114,341,73
126,505,633,193,286,115,315,81
115,478,592,166,285,103,299,112
112,450,548,172,256,80,311,122
96,381,529,164,230,81,312,126
93,352,534,170,231,81,301,122
87,288,551,178,221,74,334,130
86,285,519,182,223,75,302,96
108,387,502,182,211,72,306,90
109,386,407,178,226,80,294,89
115,360,353,159,192,83,280,85
120,360,321,143,194,84,251,65
120,360,412,128,197,84,277,71
94,258,459,127,230,95,233,64
99,261,488,130,227,93,219,57
105,281,503,130,229,86,237,63
119,286,557,133,248,86,206,67
127,269,494,145,258,90,245,60
128,233,429,160,252,81,275,71
122,230,412,157,237,73,280,69
140,217,378,169,238,72,267,73
122,232,495,176,226,83,269,71
116,222,472,174,241,91,208,69
152,237,459,153,219,87,194,70
156,226,450,153,217,87,204,73
131,235,480,161,230,86,202,63
139,250,316,145,217,76,200,62
139,247,345,129,176,72,186,62
120,229,348,153,188,70,131,47
123,220,343,153,203,77,132,56
125,246,402,137,176,75,136,59
113,215,405,131,184,78,139,58
116,218,379,142,213,79,155,59
105,220,397,115,194,91,166,59
107,228,418,159,222,92,141,59
121,224,368,157,232,92,130,61
128,205,313,163,249,94,124,63
126,204,369,170,268,87,110,61
124,212,351,190,282,78,106,59
111,207,380,161,240,71,112,53
89,153,397,161,237,72,112,52
89,149,411,198,251,72,107,51
118,147,424,188,206,78,92,64
122,236,458,180,222,76,75,65
124,275,467,203,236,77,50,62
140,281,473,214,236,78,47,63
146,306,470,184,202,76,50,69
123,341,479,180,207,67,136,116
119,295,446,166,173,66,152,131
124,378,516,144,161,62,155,133
125,455,646,139,150,58,156,136
157,539,693,154,140,52,157,140
165,533,683,174,141,51,97,107
184,551,758,189,162,56,88,101
181,478,693,182,159,58,89,117
177,420,563,173,189,64,86,114
141,317,592,163,211,68,83,107
134,293,584,143,196,71,105,112
108,286,497,122,192,71,99,102
134,357,576,131,204,71,100,87
121,356,628,141,171,65,106,85
129,334,559,144,185,73,113,82
134,352,564,143,205,73,91,73
136,330,634,163,201,73,117,74
124,363,649,178,213,86,115,67
131,352,582,178,233,87,113,65
149,349,594,175,212,81,241,90
149,331,635,195,214,82,340,89
149,358,635,197,213,88,352,98
138,299,646,220,207,96,359,96
138,279,633,213,193,100,473,156
117,272,609,210,190,110,524,174
113,293,557,192,182,109,508,176
102,280,529,194,167,102,494,172
128,291,476,188,162,88,495,181
128,311,524,191,170,85,394,133
124,333,541,197,171,72,285,94
131,331,564,198,187,71,284,95
132,326,535,189,229,72,308,95
112,304,547,153,236,78,304,78
114,293,555,156,236,80,303,80
123,280,548,156,243,80,267,79
112,267,531,168,244,94,250,70
109,277,520,170,214,98,225,59
105,289,417,160,196,96,225,58
104,281,379,158,194,92,233,66
94,293,410,168,212,96,239,60
95,321,453,159,196,81,164,57
95,307,458,153,209,79,151,57
95,258,478,176,238,85,140,57
90,353,508,178,249,95,189,46
89,348,473,179,258,93,196,47
101,322,404,190,267,97,196,51
112,329,375,235,297,112,254,109
117,335,403,254,366,125,275,122
113,242,346,252,355,118,263,128
120,238,360,276,361,133,280,140
117,245,399,269,353,142,321,160
109,245,495,234,314,133,309,156
107,267,498,205,217,124,342,201
112,276,521,213,246,133,316,213
106,301,598,186,212,126,295,222
94,363,627,187,230,117,251,214
94,374,568,186,237,127,330,208
103,358,535,190,240,114,284,163
108,393,524,190,232,113,291,144
128,396,463,175,233,107,287,123
135,390,436,214,277,108,284,108
142,429,456,232,316,117,132,79
132,428,461,226,313,120,229,70
136,384,447,219,332,125,227,68
144,391,427,220,324,126,225,60
139,356,419,192,269,124,227,60
132,269,368,178,224,111,230,65
129,257,354,196,290,116,165,65
113,255,426,208,257,116,163,60
70,218,505,238,296,258,169,62
61,222,481,233,317,273,182,64
62,251,504,225,320,279,193,72
64,262,536,209,263,295,190,65
76,336,597,217,277,306,247,84
85,340,529,189,250,207,258,83
103,344,580,194,233,193,249,81
109,346,586,200,225,177,244,71
110,354,574,205,230,162,222,74
108,316,506,212,212,138,165,49
120,390,575,214,195,144,171,54
113,370,517,210,207,150,192,79
107,351,501,245,294,174,182,80
117,367,605,275,305,166,181,86
114,346,587,258,301,166,167,88
100,239,503,247,319,161,137,82
106,214,504,245,309,149,103,59
114,207,500,205,251,130,133,63
105,247,399,217,314,152,136,56
106,269,357,258,370,161,131,52
99,272,405,308,387,207,134,54
82,290,422,322,416,231,178,75
68,308,428,324,409,232,159,69
68,278,428,293,339,219,155,71
68,258,417,264,292,215,156,71
81,271,380,233,252,178,149,72
87,284,366,208,195,163,95,53
90,276,368,205,195,156,88,52
86,243,319,202,226,150,81,42
89,251,324,202,265,204,77,44
79,258,373,215,264,217,85,40
82,226,349,210,261,204,88,34
81,248,347,239,284,209,90,42
83,246,329,254,316,212,99,43
80,231,363,266,334,167,106,67
83,223,354,262,341,131,102,75
73,230,386,264,374,157,101,75
70,209,429,251,368,152,100,74
73,207,427,241,346,155,94,75
78,209,434,226,309,143,86,65
72,188,395,205,311,141,82,74
68,176,368,234,275,131,84,77
79,175,324,237,268,128,83,75
79,168,320,250,248,125,79,79
74,163,279,240,233,128,80,72
78,175,284,247,225,130,81,55
78,169,316,231,253,129,67,50
63,151,307,239,240,135,71,69
52,153,359,214,232,127,76,70
70,161,352,228,221,128,72,76
66,138,355,223,273,142,94,74
78,146,328,227,264,127,115,74
81,141,316,194,255,126,115,55
83,140,287,198,256,133,114,46
71,151,286,190,272,129,116,33
71,156,300,198,225,115,97,39
73,170,361,225,215,117,71,40
73,175,352,234,219,113,68,39
70,170,328,226,210,97,62,35
64,157,310,210,185,87,56,35
67,158,313,245,235,90,51,32
49,150,311,232,243,87,62,30
46,140,322,232,271,104,66,31
47,159,335,244,277,107,67,32
48,147,337,248,296,105,67,29
40,134,320,206,313,111,65,28
39,118,261,204,310,105,48,26
40,146,255,196,284,86,64,58
38,133,258,195,280,84,66,60
36,132,262,190,283,88,65,62
36,151,264,183,211,69,65,61
49,176,321,176,222,81,66,64
46,157,310,179,224,80,46,38
44,149,315,169,218,77,45,37
45,156,325,175,181,75,46,36
47,141,346,159,158,70,46,39
34,108,354,125,94,60,54,37
35,103,371,132,123,58,50,50
37,114,377,150,143,64,61,56
37,135,435,206,191,94,71,60
34,135,427,212,220,104,76,59
38,152,360,212,225,102,69,58
37,170,373,214,263,115,69,46
37,180,357,201,255,114,68,59
39,165,276,166,273,93,60,57
39,166,260,152,252,87,59,56
40,154,270,165,258,88,61,57
45,176,264,165,208,75,58,57
49,181,271,160,207,78,81,76
51,198,277,153,167,93,85,76
60,204,293,170,263,92,84,79
55,202,302,172,282,90,85,79
52,168,273,164,277,85,85,79
48,149,259,164,279,78,51,41
45,133,254,144,257,49,39,37
36,155,236,130,171,46,36,32
37,154,239,165,215,54,37,48
39,164,257,201,243,76,36,48
38,160,272,208,243,84,35,75
42,152,267,218,273,86,40,134
45,133,270,221,276,86,43,142
47,134,244,183,215,78,44,139
53,153,284,154,178,58,47,142
61,155,278,171,202,50,54,135
62,154,278,188,212,53,63,176
61,154,286,185,205,60,63,180
58,163,306,185,210,61,62,182
54,144,278,175,209,63,61,182
47,148,274,150,185,86,62,180
44,158,312,123,123,118,56,88
44,160,300,111,105,119,57,63
46,174,294,116,105,127,55,55
52,173,298,117,187,160,63,44
52,174,298,115,207,158,60,38
49,179,306,108,214,146,55,34
49,172,319,112,219,147,54,32
50,152,325,130,249,144,56,32
46,181,357,149,209,104,42,28
45,180,347,145,195,99,38,31
45,167,315,154,192,101,42,54
44,164,288,158,186,97,40,55
42,168,282,160,137,102,39,57
44,170,216,150,130,105,46,58
48,176,277,160,124,95,47,59
48,174,263,147,114,77,45,60
50,178,275,156,167,78,46,59
50,173,263,137,166,69,44,59
44,149,281,150,190,75,41,60
41,133,257,149,281,83,41,58
40,131,268,168,327,86,38,37
36,126,261,170,320,83,35,35
41,125,312,173,321,81,35,35
38,105,301,164,317,77,34,30
39,132,280,168,326,86,34,29
38,132,267,195,301,102,39,29
43,153,356,209,291,106,45,49
37,150,313,205,293,107,45,49
36,151,299,201,290,104,44,52
33,127,305,199,197,92,42,52
35,132,302,163,189,73,36,51
33,113,187,129,190,65,28,35
33,107,170,126,181,64,27,31
40,112,206,132,167,63,32,46
54,154,245,124,165,58,48,67
56,158,252,151,167,65,49,68
58,148,255,151,163,70,51,72
58,154,274,155,182,67,51,72
56,164,265,147,201,64,48,64
42,152,248,169,223,71,37,64
42,152,265,139,205,65,54,63
37,159,259,138,199,64,52,59
42,169,262,147,178,72,54,61
41,152,275,182,192,86,55,59
53,179,298,162,160,84,66,68
61,183,294,164,166,96,65,159
64,206,296,163,214,95,108,169
73,263,392,168,222,95,121,174
79,290,543,158,185,88,130,204
77,279,541,156,188,97,139,201
81,310,570,156,179,84,213,173
101,339,615,168,120,88,233,279
128,461,657,185,131,97,266,295
157,579,699,189,145,101,281,301
158,576,703,199,145,98,287,308
156,565,688,207,143,93,243,296
150,547,657,205,162,97,218,197
130,442,594,209,164,94,171,171
89,277,461,203,161,95,140,120
87,274,457,193,153,92,145,102
84,262,439,185,173,94,141,93
71,242,436,178,180,89,125,80
54,193,421,154,194,88,124,72
50,143,381,137,194,79,127,72
42,143,347,137,194,72,88,55
47,151,348,136,182,74,97,115
57,183,365,147,166,68,97,119
59,190,330,149,154,60,96,121
59,187,281,148,156,60,88,123
58,188,285,159,184,62,91,122
51,179,275,157,201,67,72,79
47,153,253,143,197,65,69,70
51,131,237,140,176,60,68,122
71,197,328,144,183,90,68,128
90,234,347,137,169,90,60,130
90,235,367,141,150,83,68,126
90,232,354,139,145,87,73,175
91,259,420,146,161,95,74,147
76,214,346,153,150,73,76,144
81,247,347,157,160,82,83,157
84,255,333,157,151,83,75,182
85,276,342,200,154,92,74,158
83,264,281,190,147,85,77,159
90,287,357,187,138,81,81,166
84,287,358,178,109,71,74,192
87,288,369,181,105,70,81,193
84,294,401,142,142,66,110,181
99,355,424,142,176,73,111,183
93,354,396,130,175,69,105,175
86,321,406,139,206,72,105,184
82,321,430,141,209,72,117,162
88,315,401,138,181,64,114,170
77,288,439,135,141,65,116,183
90,293,458,136,148,69,118,209
80,276,429,123,104,64,117,167
84,279,401,117,122,69,173,183
84,257,398,114,139,76,216,220
78,206,335,123,149,75,219,208
70,249,364,148,150,72,224,183
73,253,360,151,145,75,230,181
69,237,365,142,128,70,182,174
71,281,379,140,116,61,136,134
79,293,377,133,110,65,136,137
77,233,334,109,108,65,128,133
74,233,352,117,107,62,119,132
82,271,394,142,141,76,127,171
71,232,397,140,137,79,104,152
60,229,453,144,128,71,91,149
55,220,415,146,118,70,92,150
59,205,399,139,128,70,87,150
47,156,355,115,124,64,69,75
68,191,337,116,127,64,61,68
72,173,228,106,133,62,61,74
76,201,291,113,134,66,61,70
73,210,298,111,132,66,73,67
71,221,297,112,100,55,75,63
56,213,345,127,104,50,72,58
50,209,380,137,104,51,69,37
47,182,331,121,135,52,65,99
54,181,326,122,132,57,57,144
54,188,343,129,137,61,62,150
51,154,325,135,139,60,59,155
53,150,287,130,133,60,60,157
52,155,276,127,116,55,57,128
47,149,277,122,118,53,52,127
50,124,248,147,166,53,46,125
57,233,277,133,163,50,46,121
57,247,291,126,165,50,49,121
59,246,297,123,157,51,53,123
65,259,323,124,153,47,61,80
62,253,325,90,87,48,58,71
65,221,342,107,77,49,60,126
64,206,352,107,90,49,61,130
65,210,357,116,110,48,77,129
59,217,350,132,119,52,73,128
62,226,350,146,128,48,78,133
60,216,305,136,130,46,118,99
69,247,351,151,121,47,126,147
70,253,373,154,101,48,122,147
71,241,374,149,87,45,125,149
71,238,377,139,84,49,123,148
66,212,358,134,92,51,91,138
59,180,302,114,106,53,86,148
62,191,293,101,118,54,79,153
62,183,300,119,128,54,72,149
58,200,309,119,123,50,75,148
55,195,301,128,123,54,66,147
59,205,288,148,113,51,59,76
55,185,268,156,109,52,62,79
51,179,260,160,131,52,64,80
67,182,255,165,133,60,62,126
66,171,309,176,125,55,62,128
62,168,313,168,135,53,58,130
62,166,328,172,143,55,56,130
61,167,311,155,113,55,56,128
53,138,291,148,116,54,52,143
53,140,273,141,138,57,54,145
49,114,292,136,135,56,58,146
53,130,277,122,121,54,55,142
60,161,348,145,125,59,63,142
57,174,354,143,121,51,66,152
58,170,324,125,102,45,64,153
59,174,307,135,88,46,64,158
54,167,325,146,85,42,69,155
47,160,255,127,81,37,59,154
47,157,261,125,78,37,61,85
62,157,261,135,99,47,73,149
66,204,330,130,111,47,71,144
65,209,356,144,121,53,67,147
65,197,355,142,120,53,66,149
60,188,346,142,123,53,64,149
52,223,372,151,102,46,62,133
48,181,333,151,90,46,64,139
55,180,271,143,102,64,63,137
59,185,274,136,117,73,62,135
59,188,275,138,124,80,58,134
50,144,250,128,126,81,44,77
58,144,220,144,126,83,50,73
64,128,224,135,147,81,62,146
66,173,256,154,136,75,65,150
67,174,274,158,131,68,62,153
69,182,272,164,172,71,82,154
67,174,288,146,180,70,81,188
61,186,309,149,177,58,73,143
54,135,272,127,177,54,71,140
55,131,259,135,175,51,78,138
57,119,251,122,133,50,64,206
48,126,258,138,129,51,61,175
44,124,232,151,147,61,62,178
48,140,251,157,151,66,63,180
48,141,263,161,152,66,67,180
50,135,262,166,170,64,65,158
54,149,272,147,178,84,66,155
52,141,329,139,141,81,64,149
52,138,323,134,136,76,61,147
56,141,315,125,139,77,55,147
55,147,311,122,118,76,47,132
54,144,286,132,98,48,60,137
54,137,221,119,88,40,60,137
57,132,247,138,93,45,66,137
61,141,270,143,88,41,60,176
61,164,279,140,88,42,60,145
57,151,274,142,99,50,54,138
63,182,289,141,97,49,59,136
62,194,282,125,95,49,60,135
58,195,309,138,98,49,64,77
62,221,363,143,101,54,68,63
61,225,362,138,86,49,67,61
58,203,354,141,85,47,69,73
58,228,335,134,76,45,114,69
57,238,322,109,119,59,120,67
49,205,258,97,122,56,124,66
50,206,252,93,121,54,133,64
52,221,246,98,122,54,158,47
46,181,237,94,123,53,154,59
40,159,206,90,69,36,151,57
39,146,222,111,71,35,149,57
48,165,235,126,78,42,140,55
47,156,241,122,83,47,111,53
52,169,255,127,103,62,80,61
52,163,239,136,118,66,75,60
53,172,229,124,112,66,70,63
47,172,241,112,109,66,68,62
49,192,276,128,109,68,70,66
42,178,264,131,98,55,54,39
44,179,284,139,88,52,53,39
51,199,303,139,93,51,60,56
48,185,277,134,90,45,62,57
42,152,271,146,101,51,61,56
46,156,279,143,107,60,63,57
44,158,251,122,100,63,64,59
35,131,282,133,99,68,58,37
43,157,316,146,103,70,55,37
43,159,290,114,93,62,50,52
42,163,297,126,78,53,57,51
44,169,299,154,81,49,59,51
43,173,254,148,77,45,58,55
36,142,240,142,97,44,55,53
40,163,305,168,106,41,53,36
40,174,368,184,110,46,51,36
42,180,383,166,116,54,61,58
40,171,378,160,111,50,65,55
40,174,368,169,97,49,69,57
34,162,323,159,115,53,68,61
38,152,249,129,117,51,63,59
35,138,247,152,130,46,50,38
36,139,232,151,135,48,46,37
35,134,212,134,138,57,48,60
37,122,207,129,120,53,50,56
40,147,230,132,118,51,53,58
42,163,199,105,102,49,53,58
42,167,233,123,107,53,59,60
42,166,236,129,101,45,57,34
39,176,244,122,99,47,54,33
39,171,273,140,94,47,55,55
37,152,278,138,88,47,61,56
39,138,254,123,86,43,56,56
39,141,262,125,103,45,65,56
40,128,260,130,97,46,65,56
39,108,201,109,102,50,64,34
43,110,189,108,105,48,57,30
43,126,185,103,101,48,70,53
43,133,166,92,79,46,56,52
44,129,168,98,88,47,55,52
39,113,168,93,93,45,53,53
33,123,194,109,109,50,54,53
32,116,188,116,114,53,54,35
32,106,194,122,119,55,64,57
37,122,199,112,113,50,66,59
34,132,197,118,108,52,65,59
37,143,204,105,88,51,64,58
36,142,229,104,78,50,49,57
36,143,244,103,66,49,35,34
38,158,234,94,66,50,42,58
38,149,227,94,60,51,44,58
35,127,217,97,74,52,44,58
35,123,204,95,80,50,45,57
41,136,188,95,85,57,48,58
35,110,190,114,82,57,40,29
39,113,217,107,81,52,41,27
40,118,225,112,115,57,44,45
40,119,220,121,121,59,43,46
37,104,223,131,123,51,41,47
41,93,224,116,125,48,37,49
38,89,208,130,131,54,36,49
47,98,194,129,116,50,47,34
48,101,188,117,106,50,57,32
52,102,175,103,104,52,62,55
49,125,198,107,106,54,65,54
54,130,202,90,100,48,65,57
48,119,217,93,81,43,55,56
48,113,225,96,84,40,62,57
47,121,244,98,86,44,57,35
52,128,241,98,93,52,59,52
57,146,293,113,92,52,60,51
57,144,297,105,115,51,60,53
55,153,312,109,120,54,46,52
59,179,315,117,116,48,49,50
68,173,318,116,108,42,49,33
67,179,285,104,107,47,49,32
66,184,273,112,85,49,52,51
67,188,257,106,77,45,48,52
62,159,246,92,76,52,51,54
50,166,270,87,75,49,54,54
41,143,276,85,73,49,54,55
44,149,285,66,57,46,50,36
44,143,290,67,54,47,55,58
49,159,300,68,52,42,50,57
49,147,267,78,52,42,42,60
48,151,235,75,51,35,40,59
46,146,219,73,51,37,39,58
46,144,200,68,43,33,29,34
43,125,221,86,46,34,30,31
43,115,207,83,46,33,28,26
44,111,201,83,46,32,26,27
51,116,196,87,51,29,44,53
50,107,205,94,56,30,49,54
48,109,162,79,59,33,53,59
44,119,171,77,60,32,55,59
44,119,198,84,66,39,58,61
39,109,199,99,67,40,48,41
45,140,224,100,70,44,54,62
41,132,216,97,67,40,50,59
52,120,196,92,66,40,48,130
53,113,187,106,63,37,46,134
58,117,208,89,58,37,48,152
57,82,201,92,50,36,41,146
60,98,211,96,52,38,41,146
52,100,217,97,50,38,41,92
52,114,209,77,47,38,39,85
50,115,221,79,48,37,34,49
50,114,212,66,44,33,35,66
54,99,223,80,44,31,33,65
57,93,218,83,44,32,31,88
62,95,289,102,47,33,35,131
62,98,279,99,45,32,40,143
60,103,280,112,59,38,42,137
56,129,280,109,59,39,50,139
59,146,283,110,68,48,69,127
54,172,227,99,66,47,69,82
60,179,251,118,70,49,68,65
65,192,287,127,59,44,64,73
81,180,278,119,55,43,61,115
87,212,299,129,49,37,57,118
91,187,315,143,53,39,62,121
88,201,304,133,52,37,65,121
97,214,299,124,63,48,64,114
88,215,313,127,65,49,64,74
88,199,293,114,66,48,50,68
105,231,286,99,66,52,52,77
103,215,266,106,65,54,54,75
97,197,263,117,59,47,73,134
102,215,279,123,60,47,83,137
112,200,287,145,60,47,87,141
98,161,272,145,58,40,86,142
99,157,308,142,58,41,85,142
95,158,285,139,58,42,77,92
90,139,266,135,59,44,71,132
72,131,284,136,57,41,68,133
70,153,346,144,60,44,67,137
70,197,343,142,58,42,69,138
72,195,375,147,54,39,67,138
68,200,376,148,51,37,100,138
61,201,365,132,50,40,118,134
61,195,308,114,47,39,132,124
61,153,273,113,46,37,130,125
60,148,232,96,49,38,128,183
58,136,216,90,48,37,103,156
59,132,207,93,46,37,96,174
51,114,222,113,42,34,74,173
44,114,228,111,43,37,72,171
46,102,235,111,51,37,69,105
51,101,247,118,52,41,74,155
54,104,259,132,59,43,68,149
54,102,236,119,61,48,69,155
55,106,235,121,60,48,69,157
48,108,229,120,55,48,69,157
52,112,239,126,54,45,67,113
69,122,230,105,46,42,69,191
70,157,252,107,46,36,72,194
71,154,267,100,46,36,69,197
72,162,251,102,47,36,69,199
70,175,281,110,54,40,65,205
56,177,304,113,50,40,50,182
56,149,284,107,47,39,51,185
57,153,283,140,52,39,53,180
59,156,301,141,50,38,55,182
57,159,301,141,45,33,54,168
56,161,321,147,52,34,57,110
59,157,324,149,54,34,60,159
61,153,337,133,53,38,65,161
56,145,325,131,57,37,63,159
55,134,307,119,63,40,65,161
48,111,274,119,63,38,57,150
40,130,301,125,61,37,50,91
47,159,296,119,59,36,49,156
55,183,320,124,59,39,64,160
54,177,291,121,53,35,62,159
55,181,286,122,62,41,64,158
55,172,264,119,65,44,65,158
45,158,235,118,64,40,60,85
36,124,212,128,59,39,53,71
36,116,219,133,64,40,53,65
57,117,199,126,54,38,53,139
63,116,196,122,51,37,55,148
69,120,214,114,57,38,56,152
69,118,203,103,62,39,49,155
70,134,215,102,63,42,49,155
53,131,215,92,60,36,50,95
55,140,262,133,61,35,45,66
58,131,284,143,53,37,54,113
59,156,314,138,49,46,58,113
56,142,321,139,43,54,58,114
63,174,346,156,42,57,62,117
59,175,360,138,43,61,70,128
66,163,331,132,46,63,74,143
72,151,320,133,52,70,131,142
76,155,345,144,58,80,218,152
75,125,331,131,65,89,305,170
79,143,302,124,66,94,377,210
73,216,488,158,72,97,391,199
68,218,478,174,71,100,382,201
75,241,540,183,74,95,368,212
86,262,594,216,72,98,359,236
84,263,642,214,70,95,298,199
83,220,525,205,66,91,279,175
86,278,581,206,67,79,275,173
94,293,530,194,73,69,243,153
87,284,541,201,73,53,155,81
92,286,488,231,93,76,159,109
94,300,493,224,94,80,166,125
95,279,477,238,98,86,176,127
78,249,469,244,95,86,174,126
76,262,381,210,94,86,173,124
67,265,370,181,72,57,149,89
71,275,381,194,71,54,148,88
73,260,322,158,62,44,141,83
75,272,398,192,58,44,152,80
83,306,501,211,69,50,152,80
85,324,554,229,79,56,150,80
76,295,541,227,78,55,174,53
67,274,542,227,79,53,194,47
70,272,495,197,78,53,187,66
56,217,467,191,68,46,183,73
51,161,397,173,58,44,175,71
55,209,414,156,55,42,141,68
54,214,442,183,56,43,118,66
68,219,428,177,54,41,170,49
84,256,354,162,69,52,175,57
106,325,375,156,74,56,190,85
109,300,414,175,78,61,235,93
116,301,388,149,75,61,227,96
109,292,398,148,73,62,191,96
100,262,421,177,66,53,181,86
83,173,406,176,62,45,169,60
85,166,340,157,59,40,110,54
82,161,374,171,61,46,133,59
86,142,335,163,65,42,124,61
81,113,305,129,58,45,126,61
76,125,318,130,55,46,120,58
67,121,359,130,56,46,183,62
69,140,346,135,57,40,175,63
69,165,397,137,53,48,181,66
72,168,415,147,53,46,181,68
71,183,474,167,72,52,187,75
75,213,512,177,78,52,133,82
73,198,495,170,80,57,133,140
78,200,490,177,79,56,184,147
87,207,462,166,82,58,207,167
88,193,426,171,70,52,203,165
85,173,368,179,76,57,197,159
94,210,442,180,97,65,208,119
91,199,423,187,114,71,173,114
86,193,433,190,113,72,162,130
91,193,423,176,112,76,165,136
97,208,459,158,105,72,163,146
87,181,404,155,82,59,136,140
78,171,394,144,56,46,131,133
73,168,387,144,55,42,103,90
68,184,395,142,56,36,95,78
63,180,364,146,56,34,87,55
58,169,354,136,55,35,81,46
61,177,424,157,59,39,83,62
65,189,449,159,59,42,83,58
74,176,437,163,61,49,87,63
84,179,411,160,65,50,89,67
85,183,432,179,63,54,93,65
81,178,354,158,60,54,78,61
83,174,337,160,60,54,80,68
76,191,326,155,58,53,79,74
65,183,323,150,50,50,76,71
67,192,318,120,51,46,71,72
81,202,334,119,50,43,80,127
87,207,359,121,51,44,81,133
89,181,350,117,52,38,76,132
127,184,366,117,55,40,79,138
133,178,341,120,54,42,97,142
130,188,385,129,56,44,162,92
134,183,394,121,52,45,172,92
158,230,404,118,46,45,177,91
150,223,418,115,48,45,179,84
155,236,441,114,48,47,173,78
156,222,394,100,45,56,108,77
168,241,415,126,58,62,103,68
144,328,499,130,58,65,106,86
126,338,524,133,53,64,103,84
112,327,506,135,55,61,110,86
107,325,499,134,55,53,106,83
78,352,532,111,41,44,92,77
87,235,457,126,48,40,77,51
97,212,430,122,52,45,76,50
95,209,433,118,50,47,66,71
96,215,463,140,58,46,57,70
97,239,426,147,62,46,56,69
96,241,411,141,58,45,55,70
94,240,363,143,58,39,51,69
96,251,423,173,66,46,35,42
94,257,418,157,61,48,47,42
85,163,381,161,58,47,45,42
76,165,401,160,57,45,47,38
73,200,453,169,59,52,50,44
70,185,384,134,52,48,55,58
70,170,389,144,51,48,49,59
90,205,454,193,62,50,56,65
91,214,437,183,60,54,60,68
83,184,388,174,57,49,58,67
88,193,407,190,56,46,54,52
87,199,401,182,56,47,54,94
71,168,287,112,42,48,48,134
69,171,325,119,44,50,42,135
70,187,329,131,48,49,41,140
66,188,341,121,47,53,42,143
72,211,389,134,49,65,46,125
66,206,393,135,49,65,46,80
63,215,366,142,54,65,46,76
76,204,400,141,59,68,61,144
84,217,384,134,59,64,62,151
82,211,322,123,56,52,56,149
87,221,327,126,58,50,57,152
89,216,336,121,54,48,60,153
76,217,286,107,44,43,43,87
68,239,273,111,44,45,40,74
65,249,287,119,46,44,38,66
58,243,330,144,51,50,44,73
70,274,335,165,65,57,51,119
82,294,348,170,71,59,53,121
83,280,409,179,75,59,55,126
85,265,420,186,75,60,56,130
102,271,394,166,69,51,59,137
96,260,415,153,60,44,53,159
86,239,409,149,53,43,53,162
85,245,395,151,55,54,52,162
83,243,415,148,60,60,55,160
63,238,409,148,70,63,73,153
59,223,372,135,104,63,73,89
75,263,421,148,111,66,76,138
80,289,411,131,112,56,77,133
90,338,376,128,110,48,78,149
91,337,373,137,105,48,58,145
121,352,393,148,80,62,79,211
115,330,338,137,72,62,76,182
113,310,335,151,69,61,76,181
116,261,329,149,70,64,73,171
116,256,317,142,77,69,71,171
86,223,277,125,67,62,61,110
95,256,359,155,67,66,66,161
99,261,334,144,67,68,65,166
86,242,311,152,67,69,64,165
91,257,349,169,68,66,67,165
87,260,402,193,67,60,77,155
73,227,346,174,67,53,73,97
65,199,358,181,66,54,77,87
66,265,438,173,64,53,80,103
64,255,411,149,53,47,76,136
75,303,426,147,61,51,84,152
84,299,413,137,56,49,85,151
82,324,416,128,54,46,83,151
80,297,362,131,54,43,83,139
80,324,373,133,57,49,86,106
73,295,317,99,46,44,74,76
91,385,359,149,60,53,84,150
104,435,394,162,81,58,86,156
103,427,382,154,79,60,85,158
107,407,391,180,84,59,87,158
108,396,378,179,85,60,88,175
91,330,364,143,79,54,78,127
85,238,346,156,65,49,74,166
92,252,331,166,70,50,76,166
97,256,323,147,65,50,72,168
97,241,319,149,70,59,77,154
100,205,300,147,66,60,78,148
97,194,245,116,58,60,81,92
105,197,452,151,60,61,80,89
93,188,449,145,62,62,78,84
99,202,471,151,62,54,61,150
96,216,477,161,64,50,59,153
98,205,484,164,68,50,56,159
86,222,402,162,70,46,58,162
85,230,395,165,68,39,57,163
77,222,361,161,64,39,75,93
85,224,362,166,66,44,75,85
92,241,357,170,66,43,77,146
93,223,299,136,56,47,75,149
93,213,328,152,60,52,78,153
89,218,337,149,61,53,61,155
77,200,310,130,56,51,62,155
64,193,331,134,55,51,61,155
57,175,313,132,54,47,59,151
49,180,302,121,53,44,54,150
52,201,313,125,54,46,65,151
49,231,369,145,55,48,62,154
60,230,389,163,57,47,62,128
80,242,359,162,59,49,63,143
92,239,340,170,56,51,68,146
92,216,325,168,54,47,48,146
96,187,264,152,52,44,55,143
95,174,192,115,45,46,55,170
85,175,263,121,41,43,57,158
79,185,299,108,41,40,51,156
81,181,295,101,38,38,67,148
78,179,297,97,41,41,70,152
84,180,301,102,42,36,71,85
77,141,243,102,47,34,69,76
72,150,205,87,45,36,71,70
76,156,274,110,57,44,55,64
100,187,278,114,56,44,51,70
97,202,295,126,68,49,56,66
104,239,328,126,69,55,77,161
105,248,331,127,70,54,79,168
108,251,284,110,60,48,82,173
86,231,288,125,68,49,77,169
80,222,263,116,66,50,78,216
77,222,255,110,64,46,58,164
85,196,247,113,63,45,57,172
85,193,336,112,66,46,73,173
88,194,417,99,59,43,96,207
111,212,462,96,71,55,151,177
132,175,454,100,73,60,200,178
126,221,473,114,78,62,212,166
129,234,422,123,83,64,208,161
127,239,353,117,84,65,199,110
109,224,332,120,72,52,167,78
89,222,321,113,70,46,112,69
98,190,377,100,66,43,96,81
99,178,439,120,63,42,94,82
110,157,440,123,62,41,93,86
110,167,425,117,66,43,77,75
105,167,428,124,67,44,65,75
97,147,360,129,81,46,72,73
81,150,271,110,86,46,73,68
68,162,273,111,96,45,74,66
67,145,281,112,92,47,84,69
62,146,347,121,98,52,91,69
58,167,342,115,86,51,79,47
91,192,406,117,82,53,83,74
97,192,393,115,82,52,80,78
94,191,372,130,98,53,73,76
96,214,344,138,117,51,69,78
115,201,347,135,141,55,68,83
96,168,263,144,164,58,83,80
94,180,277,150,172,61,98,103
100,199,473,178,173,58,97,105
103,186,459,168,165,55,94,109
90,229,516,173,150,54,93,108
95,250,563,186,130,60,83,99
92,288,590,185,124,63,80,79
96,299,549,156,124,72,81,81
99,311,591,166,126,76,85,147
106,288,557,165,130,76,85,155
105,273,529,147,150,73,85,158
106,222,513,150,146,69,78,156
100,188,421,143,136,57,73,154
94,165,352,128,124,54,68,156
81,162,346,128,114,50,64,155
86,166,339,117,104,53,67,170
78,165,330,123,110,58,75,175
77,173,393,132,122,68,83,176
75,170,443,142,143,69,87,122
90,180,451,170,159,71,91,114
79,166,450,167,160,72,83,81
83,178,452,164,154,74,74,67
83,182,434,164,162,65,76,63
92,175,384,154,146,62,77,56
85,156,363,118,129,62,87,59
91,215,404,152,114,54,87,56
89,207,384,154,129,52,86,56
87,200,350,146,137,50,81,56
82,194,335,151,160,53,78,56
78,205,341,166,167,52,87,53
70,155,286,137,184,52,93,68
77,161,319,155,171,50,104,65
79,158,289,155,150,53,102,67
70,160,286,149,130,53,102,66
78,174,337,147,146,56,86,62
77,172,322,146,124,58,85,44
65,166,287,107,122,52,68,49
69,185,344,123,123,53,72,57
74,213,364,130,122,54,70,59
59,205,347,115,119,50,66,56
59,207,366,129,156,69,60,57
65,203,365,142,172,74,66,54
63,195,343,148,170,71,61,44
58,171,357,173,179,75,59,42
60,158,318,172,164,75,65,60
65,175,303,163,126,59,79,61
77,249,361,162,109,57,74,61
79,256,386,164,133,61,77,61
80,313,477,153,153,56,79,63
83,333,559,174,163,58,72,43
84,352,592,206,160,55,50,40
75,337,648,214,164,53,47,39
80,347,644,217,191,68,44,54
93,356,614,215,180,76,57,62
91,345,570,207,178,73,54,63
109,342,633,200,193,80,66,124
106,309,553,191,200,88,95,149
103,283,531,176,163,83,102,206
93,222,497,175,151,77,96,212
99,262,591,190,159,82,98,218
83,257,494,176,172,79,99,214
93,300,505,174,181,82,98,204
102,322,516,180,188,89,133,161
109,350,498,164,185,86,137,151
116,367,438,147,171,87,142,145
126,372,496,146,143,116,142,117
125,374,477,146,127,302,315,129
117,362,477,128,114,328,358,146
123,342,583,190,130,337,361,150
120,296,642,219,125,343,370,158
139,396,677,258,134,334,371,156
138,414,760,280,118,186,239,138
195,595,891,424,128,138,155,102
206,725,1012,449,116,118,146,95
265,781,1122,484,171,139,145,102
310,813,1165,492,194,165,158,121
351,828,1152,487,200,176,166,137
334,800,1089,401,200,171,149,131
341,726,981,369,240,173,150,135
304,683,809,316,250,151,125,121
290,711,854,323,252,140,121,113
260,730,876,359,267,133,103,95
295,745,895,370,273,134,118,108
324,726,872,375,258,141,134,122
327,740,913,369,222,134,136,122
295,669,809,339,222,121,124,109
277,622,772,295,202,108,123,109
253,557,758,265,194,100,113,148
215,583,710,231,169,97,107,149
201,554,665,253,185,95,99,147
185,504,604,237,158,97,93,146
187,515,618,258,197,107,100,149
167,566,681,243,205,115,112,124
158,604,719,253,215,110,112,111
158,593,687,231,219,120,113,125
179,635,695,230,220,118,123,150
186,678,726,236,194,114,115,157
209,692,646,231,195,120,108,146
195,618,591,218,196,116,120,175
194,633,581,219,168,106,119,181
185,602,582,227,168,100,111,175
178,538,470,205,183,102,110,169
133,429,414,208,177,92,105,166
124,461,461,217,164,104,118,140
145,465,426,197,186,106,156,150
151,477,486,205,194,116,165,139
150,466,523,190,169,114,169,132
151,429,592,210,171,111,170,138
153,381,569,207,176,97,149,164
145,365,616,210,154,96,117,177
162,390,573,193,146,100,112,195
182,503,543,205,157,106,113,202
178,496,541,206,139,106,113,204
176,501,548,194,125,107,105,205
181,531,568,204,122,106,106,240
166,489,652,212,132,91,97,237
157,453,778,267,127,83,91,248
162,481,799,255,135,78,89,259
163,495,807,279,146,91,93,241
143,449,793,275,164,89,82,173
170,547,753,281,159,100,87,162
150,479,660,256,156,96,82,138
149,445,558,245,199,97,85,137
196,586,633,306,214,93,173,162
206,615,600,311,217,95,178,180
198,592,593,307,209,84,179,182
211,627,579,286,218,84,179,204
209,630,579,296,193,85,179,187
163,492,501,207,170,81,94,161
155,494,641,249,157,78,81,149
130,419,615,237,154,75,67,173
114,371,626,229,139,72,70,148
122,395,630,232,125,74,74,149
125,405,620,252,137,78,78,149
124,358,474,209,133,81,81,140
119,373,474,211,134,79,81,120
125,387,520,255,132,82,85,127
112,359,518,232,125,80,78,125
117,342,504,210,108,68,73,155
133,419,532,200,121,76,79,176
129,392,518,188,127,79,83,165
131,398,447,127,131,82,82,158
142,441,467,156,134,81,82,192
134,440,473,184,138,85,83,172
118,392,438,183,123,72,75,163
122,404,436,191,123,74,85,162
111,388,419,203,140,64,79,166
104,362,441,198,135,71,73,126
103,367,435,185,155,66,75,127
100,349,430,189,156,65,74,114
92,313,401,194,153,61,58,145
96,319,423,188,160,70,75,143
93,293,363,187,181,66,74,142
90,266,349,168,165,66,70,167
88,269,395,208,179,76,71,167
84,260,405,211,183,80,72,136
85,259,386,198,176,91,71,154
81,244,382,195,167,90,72,180
80,267,397,196,174,92,79,155
74,248,373,159,160,86,77,153
80,261,387,156,159,81,76,163
72,236,370,160,146,66,62,169
71,237,402,177,152,64,62,137
80,236,399,183,143,59,58,154
83,245,374,169,140,75,104,164
80,267,409,166,133,81,109,178
79,268,440,197,159,83,109,166
82,271,432,194,170,94,110,170
72,256,455,191,190,97,110,151
74,270,462,205,193,85,81,164
74,263,434,206,195,80,80,168
74,261,394,174,177,70,79,161
63,261,378,160,161,56,77,159
74,297,381,162,152,71,74,173
69,271,410,183,155,77,61,155
75,291,475,183,154,78,61,132
74,297,486,179,159,80,61,124
83,315,505,175,143,78,62,145
74,280,473,182,123,61,69,145
74,272,484,195,118,59,71,144
74,228,420,195,115,58,78,154
71,203,407,197,93,59,80,159
61,189,419,194,85,58,81,139
68,261,427,185,94,58,74,119
70,275,444,162,94,61,77,116
67,273,424,170,107,69,70,122
76,280,414,172,126,73,78,152
87,296,438,191,137,72,102,162
84,236,474,229,134,72,141,181
84,232,461,229,130,72,185,184
79,246,461,217,130,65,184,166
72,243,456,225,140,62,186,142
65,210,494,218,136,69,177,128
65,244,496,191,130,67,149,96
77,248,459,169,135,61,106,144
80,278,537,190,152,81,131,157
78,279,576,190,124,79,123,151
82,296,514,179,133,78,124,155
79,273,472,166,146,78,126,206
67,270,494,181,161,86,112,174
69,252,457,189,172,82,123,164
75,253,413,175,194,85,125,182
67,217,417,181,187,82,119,191
73,222,429,179,183,85,119,141
82,257,424,178,167,77,119,140
89,250,373,154,132,63,74,130
93,263,376,163,154,67,67,141
103,282,387,179,162,69,78,127
102,279,378,183,162,66,76,137
98,266,418,173,177,64,74,137
88,249,427,176,179,63,74,138
82,237,433,167,136,55,73,141
71,220,403,162,127,52,76,180
69,223,403,167,126,62,81,174
59,184,318,173,135,65,84,174
66,209,297,161,144,65,80,175
67,197,283,170,144,69,80,170
63,199,274,158,168,77,74,125
74,242,285,143,167,77,77,121
77,253,289,136,149,76,83,119
76,256,323,145,140,85,91,117
74,264,298,126,141,83,100,111
79,287,325,119,113,77,95,116
66,257,313,128,112,70,90,116
70,303,388,140,104,72,89,120
68,307,381,145,96,66,87,145
66,304,413,151,92,74,79,121
76,340,409,169,105,96,172,119
76,336,406,173,115,100,184,120
79,355,438,181,118,101,188,117
88,355,468,177,132,102,198,91
92,353,447,187,147,115,215,124
91,368,515,191,137,104,169,123
95,379,546,194,130,100,159,118
94,341,488,184,121,101,151,124
96,358,494,198,122,100,139,120
93,370,514,185,105,80,113,79
87,302,457,182,115,67,92,109
87,302,433,191,141,74,85,109
87,306,439,188,164,71,81,102
79,271,374,165,162,69,73,99
77,270,363,168,166,70,93,97
88,308,337,146,159,73,93,112
92,319,315,157,154,68,93,114
93,322,307,162,142,70,94,115
102,372,464,206,134,67,111,120
102,374,479,218,130,64,92,120
102,359,499,222,128,66,95,120
104,377,544,226,119,66,103,128
101,375,595,232,103,62,104,128
89,319,515,209,102,60,112,138
87,306,484,199,103,62,112,138
70,302,486,201,131,64,101,106
61,245,447,193,122,68,100,131
56,211,381,180,131,74,104,137
53,215,365,179,136,80,77,123
59,221,427,201,140,77,74,124
66,255,437,198,108,70,76,146
60,263,434,178,126,61,65,124
65,274,418,178,119,58,109,124
71,286,390,164,110,52,109,124
70,286,421,168,107,50,110,122
73,252,440,180,127,54,112,118
76,253,477,190,117,60,113,113
72,243,462,186,117,54,61,106
72,223,467,195,130,68,102,113
72,242,408,174,140,77,107,125
84,270,420,179,131,87,107,139
82,271,386,179,117,85,105,137
90,288,418,180,122,86,105,137
88,284,420,167,142,77,58,133
85,278,446,200,147,72,46,122
65,250,378,183,148,63,109,68
69,235,360,176,159,63,118,110
58,215,357,183,157,73,129,106
59,235,357,184,133,81,132,104
66,217,339,176,112,78,135,107
65,195,328,177,101,76,89,105
60,203,359,179,95,76,78,82
62,202,332,167,96,67,88,96
69,219,350,164,96,60,89,104
62,210,349,138,115,62,84,101
71,224,340,136,126,70,88,102
88,247,325,133,145,87,89,84
98,244,348,141,153,98,60,133
93,232,353,146,154,98,55,132
95,240,312,138,141,98,56,134
96,245,317,158,153,92,50,139
78,216,304,153,133,77,50,140
67,219,314,162,125,64,49,84
65,198,288,161,117,57,45,75
69,200,311,164,119,60,47,124
72,200,337,180,105,64,51,124
76,221,342,182,115,61,54,129
70,219,327,180,110,61,64,126
68,218,360,189,118,60,64,127
67,220,338,177,121,64,66,86
60,221,346,139,109,59,67,121
56,228,390,155,94,57,70,115
61,249,376,146,92,60,67,117
65,270,369,156,88,63,72,123
75,294,385,163,82,58,79,134
68,282,361,171,93,62,81,95
73,262,313,177,101,65,75,94
76,267,310,182,115,62,73,118
78,258,303,194,126,57,72,117
73,251,295,191,125,60,64,122
76,246,283,195,125,55,59,121
82,263,284,175,115,54,60,148
83,256,309,197,104,58,66,132
82,246,293,174,105,59,65,132
77,249,339,187,122,68,78,120
78,295,356,178,113,68,84,146
72,289,346,173,110,65,81,126
82,356,414,161,119,62,77,124
91,401,451,153,101,62,80,145
95,427,429,131,84,73,72,162
103,411,451,156,118,109,91,146
110,446,484,184,138,111,92,142
107,411,507,209,132,114,94,161
100,374,522,220,134,117,100,158
92,331,527,232,138,106,99,137
81,324,516,219,150,77,86,138
78,322,484,205,165,79,96,165
70,327,421,179,170,77,105,146
87,397,430,177,176,82,112,146
86,395,407,168,179,78,111,145
86,389,400,170,161,76,112,145
87,381,458,178,132,72,109,142
90,367,452,186,175,79,112,150
85,351,405,188,182,76,113,132
105,400,456,206,186,78,115,136
104,398,469,203,188,73,108,152
102,374,469,231,194,74,103,128
109,396,534,236,155,66,87,120
104,356,556,252,151,60,62,116
94,343,541,246,138,61,66,147
95,346,534,253,120,58,71,136
96,371,491,216,106,57,74,131
86,341,404,199,102,53,74,131
84,335,387,178,100,57,76,131
84,331,366,180,132,60,77,97
93,329,344,184,133,65,78,127
87,314,334,187,140,66,79,128
95,356,378,226,158,67,87,130
95,362,390,235,155,63,92,130
98,369,464,252,138,64,88,153
94,371,474,253,138,65,94,152
105,364,479,260,141,72,105,159
94,304,478,229,121,74,104,156
93,291,444,216,126,87,109,173
97,297,385,196,114,86,114,156
92,288,370,177,117,89,111,143
80,267,381,184,107,89,103,148
90,280,324,184,118,90,99,169
85,269,316,186,109,84,89,157
67,207,287,168,114,88,92,169
82,251,320,162,113,85,96,200
86,274,335,179,119,80,92,198
78,263,421,170,112,80,94,182
87,299,520,227,148,83,100,218
83,285,524,234,146,73,95,211
74,264,527,257,141,72,85,174
75,262,565,248,145,71,85,183
76,261,503,240,139,69,86,193
76,246,435,192,95,67,89,178
82,250,434,194,97,71,78,166
83,271,426,173,103,73,82,165
74,239,346,155,96,73,84,146
88,276,411,197,101,75,93,165
83,262,446,193,97,70,93,143
84,255,466,204,97,68,94,164
82,242,470,204,93,66,92,159
92,261,557,207,86,67,100,189
78,222,511,176,75,63,86,165
99,268,470,169,109,65,85,159
98,274,457,148,113,69,85,136
98,246,433,139,111,66,89,179
93,234,353,151,116,62,76,148
99,285,370,155,126,63,82,145
74,230,384,165,136,68,76,141
75,220,349,182,167,81,81,169
71,263,354,182,172,82,74,122
72,316,351,160,173,83,72,122
64,284,419,159,184,83,71,122
74,296,402,157,170,82,87,167
71,305,447,141,140,70,89,141
72,275,446,145,134,65,90,150
66,223,418,156,135,67,91,187
71,219,355,176,131,74,101,190
