93,191,41,38,63,48,136,67
99,193,43,39,66,54,155,59
115,177,51,43,59,51,150,75
124,191,50,42,54,53,153,79
136,234,54,42,46,53,161,80
133,222,54,48,48,54,146,83
127,226,54,46,42,43,108,77
113,241,48,42,39,48,110,70
111,227,46,41,41,47,112,67
97,177,46,46,41,47,104,67
104,200,61,53,42,44,105,66
106,193,65,57,48,46,125,70
104,187,66,59,47,42,116,64
95,192,69,61,48,47,116,67
91,192,65,55,46,45,109,67
75,174,49,42,40,47,109,65
76,182,42,35,34,45,96,60
74,177,39,34,39,48,96,61
78,196,43,30,35,41,100,60
78,195,44,32,34,42,109,59
94,194,46,34,40,43,108,62
90,183,48,36,41,43,104,65
102,178,56,40,42,40,123,72
111,169,55,42,42,42,134,78
114,175,59,43,43,47,136,79
113,210,58,42,39,46,132,80
114,207,55,40,39,51,172,79
113,196,48,38,34,49,157,71
102,186,46,38,34,46,138,61
98,186,40,36,34,42,134,55
87,123,39,36,36,44,145,52
90,156,41,37,35,38,96,47
77,160,40,34,35,40,107,53
77,162,41,34,36,42,115,55
85,170,42,36,35,42,125,62
81,170,43,36,33,38,116,63
88,165,45,36,33,40,124,71
92,182,46,33,33,38,120,71
94,188,45,34,32,36,140,74
97,184,45,33,33,34,138,73
95,220,43,34,38,37,142,80
89,211,46,38,41,36,140,79
86,208,50,40,40,36,162,87
82,218,51,40,41,34,143,82
86,223,55,44,43,37,151,79
91,234,55,43,39,35,161,77
94,233,50,41,51,35,155,73
103,252,48,42,52,38,135,67
101,246,47,42,58,38,140,65
118,267,47,40,59,43,157,63
126,247,49,46,62,46,153,57
121,249,53,48,63,47,167,55
121,256,51,48,86,48,181,51
128,247,51,50,85,51,180,60
104,210,45,47,86,52,160,58
92,210,43,40,87,50,153,57
96,212,40,36,80,49,141,55
87,167,38,34,56,48,130,51
80,174,37,33,52,45,126,51
84,197,40,34,55,45,120,53
89,187,39,36,55,46,124,53
89,181,38,36,56,47,127,54
88,193,39,37,54,47,120,53
98,188,40,36,59,47,121,50
96,166,35,34,56,40,113,48
88,146,35,36,56,39,106,49
85,148,41,41,56,40,108,46
82,133,42,42,54,39,105,49
66,150,41,43,56,40,102,58
67,155,47,43,65,39,112,58
65,156,50,42,74,40,109,56
62,146,46,40,78,42,109,58
79,175,45,39,81,40,104,57
90,170,45,39,75,42,125,47
90,169,40,40,65,44,121,48
92,172,41,38,54,44,142,51
97,204,48,37,44,41,148,58
89,179,49,37,36,42,144,64
83,181,48,35,35,41,146,66
92,189,52,35,31,41,170,72
94,194,54,40,31,37,153,72
90,178,59,45,34,40,148,67
109,200,62,48,41,43,172,77
114,211,74,56,47,44,166,135
109,204,72,56,48,42,138,142
108,199,70,55,48,46,155,146
119,227,66,53,47,45,156,149
103,212,63,51,46,42,141,146
126,269,73,53,57,42,136,100
128,270,78,56,73,45,147,102
140,327,81,56,92,42,146,110
134,317,81,55,98,41,156,111
134,322,83,55,98,41,151,111
111,270,84,54,100,45,156,115
120,283,83,52,95,45,154,125
117,228,80,51,79,45,148,119
124,220,76,49,72,44,131,118
134,221,80,50,74,44,127,115
128,215,59,38,61,40,122,109
123,211,67,40,64,38,124,81
125,206,69,41,59,41,144,92
118,208,70,44,65,43,146,99
116,199,71,42,64,43,146,96
120,192,72,43,66,45,142,94
117,210,60,40,58,47,153,96
105,203,57,41,67,44,129,84
108,187,58,39,60,43,135,103
109,231,65,38,62,44,148,106
119,257,72,41,60,40,175,115
125,260,78,45,65,40,155,117
130,268,81,45,61,43,158,122
127,280,82,45,61,46,176,104
123,268,75,45,57,50,174,115
129,309,73,43,59,49,144,107
127,298,74,44,51,49,144,107
125,308,75,46,47,46,146,109
127,311,80,48,52,43,127,104
129,302,76,50,51,40,125,95
114,236,73,50,49,45,142,116
108,235,65,46,52,43,152,115
112,221,66,44,54,40,141,102
106,197,59,44,50,39,125,102
117,250,62,44,56,37,135,97
119,268,63,46,58,40,138,72
153,333,76,49,69,42,128,79
149,333,77,52,69,50,163,79
157,340,78,50,74,53,166,112
147,326,78,51,73,56,157,125
148,327,78,64,72,52,159,127
136,312,72,65,68,52,169,123
148,345,72,63,66,47,148,125
153,363,71,66,64,51,198,128
157,400,83,70,67,50,284,189
160,410,90,72,72,53,333,200
154,392,94,77,79,54,365,206
154,390,99,79,83,54,382,213
154,403,102,83,87,62,386,205
161,358,99,79,83,64,375,160
165,371,116,82,82,64,354,152
184,374,117,78,100,64,353,153
185,390,108,77,102,67,361,144
178,356,105,73,100,58,389,144
184,362,110,77,103,56,357,134
183,322,87,59,107,58,395,128
164,344,84,56,99,59,379,116
173,313,89,57,105,56,384,126
174,327,90,57,103,57,337,114
152,307,84,56,100,57,349,112
147,322,88,64,95,57,279,119
149,295,87,65,76,55,297,123
137,274,87,67,65,62,280,119
144,291,92,67,66,59,284,131
145,284,92,67,74,60,271,124
137,280,84,63,74,57,280,118
117,246,80,69,80,61,264,113
98,256,74,68,76,58,266,107
86,231,73,66,73,67,356,142
95,247,65,63,70,64,339,141
92,239,70,65,74,64,347,141
103,253,85,71,76,71,397,159
105,244,89,71,77,71,381,159
106,228,86,72,79,71,309,117
92,224,90,74,77,73,319,113
94,216,86,72,79,73,303,114
110,198,73,66,71,62,221,101
117,215,71,69,74,62,265,116
118,218,68,68,77,56,271,118
125,202,61,70,75,58,289,128
122,206,63,74,67,58,288,129
128,192,56,64,69,57,281,124
131,185,64,66,66,58,298,120
136,174,66,69,65,57,271,118
135,161,69,72,79,69,289,112
141,192,71,80,83,71,304,125
130,213,87,96,87,74,339,131
124,211,83,97,88,74,320,128
121,226,87,98,86,74,365,145
127,233,86,94,74,63,351,152
131,241,88,87,69,66,338,148
125,231,82,85,66,66,370,193
121,226,79,78,67,75,391,201
125,215,79,77,66,82,424,201
125,224,78,77,69,78,417,203
141,208,75,77,71,74,424,209
142,211,79,68,76,73,381,169
153,200,85,69,72,58,343,157
142,214,94,70,76,55,288,142
147,244,95,69,73,63,310,134
134,243,94,67,69,75,361,158
131,307,88,64,58,80,353,153
141,318,82,67,54,83,372,160
140,347,66,62,49,91,423,169
143,346,66,63,48,92,454,175
141,352,68,57,56,84,415,137
141,298,65,74,65,80,416,142
120,292,65,73,67,85,468,150
121,248,69,77,68,69,400,139
127,248,79,80,73,71,400,139
122,244,73,79,69,71,395,140
116,236,75,72,67,68,420,137
118,265,75,71,69,68,374,117
125,265,71,69,69,74,392,120
154,331,77,76,72,66,338,115
155,320,79,77,76,64,335,113
155,318,73,65,75,72,327,116
158,315,81,69,76,68,291,115
160,328,82,71,81,63,260,109
118,237,68,64,80,65,263,115
114,235,70,60,74,68,263,113
127,253,70,63,72,62,229,98
133,277,65,60,78,62,209,95
135,291,79,55,69,60,209,95
128,290,74,51,63,55,203,70
129,290,72,56,67,56,203,76
114,284,76,58,66,50,188,86
98,233,70,56,56,43,215,85
87,225,61,56,63,54,231,91
89,221,61,55,61,61,267,107
90,222,64,51,60,60,279,106
88,215,61,46,54,61,292,105
85,214,61,49,58,63,286,107
113,205,58,54,61,58,272,101
116,222,60,57,59,51,248,83
120,216,56,55,62,51,239,92
120,235,71,59,67,55,237,90
123,262,76,61,68,59,229,87
119,325,75,58,60,64,269,96
121,308,73,54,64,70,253,97
138,346,78,60,66,73,266,101
145,362,73,63,67,68,270,98
152,360,72,60,65,64,262,99
139,297,71,58,67,60,230,99
143,305,78,57,68,61,225,101
138,290,75,56,62,57,221,91
141,283,69,51,58,59,201,92
135,260,65,52,58,59,215,89
141,273,68,55,61,61,279,99
129,270,61,57,57,58,288,99
129,262,59,53,57,61,280,101
125,231,55,50,58,68,297,104
124,249,57,44,55,74,297,108
120,235,55,42,53,72,279,98
126,275,58,43,55,76,275,104
106,248,56,46,50,73,269,99
104,254,61,51,53,72,264,97
109,250,67,59,62,74,269,106
107,251,64,58,59,74,243,108
112,228,68,59,60,69,233,98
130,245,79,75,64,78,297,125
126,237,82,76,59,74,288,122
121,222,77,74,56,67,305,118
123,224,83,78,56,62,314,121
132,253,84,79,56,68,364,122
128,272,78,65,59,64,335,102
129,269,72,62,60,61,332,103
163,344,82,62,61,59,306,100
164,336,78,61,63,64,294,99
151,308,73,57,61,54,219,101
153,289,68,53,57,54,203,98
154,311,69,51,61,54,203,102
124,248,61,50,53,57,208,106
115,253,62,48,51,69,230,107
121,245,63,48,51,69,260,114
113,251,69,53,57,72,263,115
118,222,76,54,61,72,275,116
109,201,76,52,62,68,270,114
133,200,74,53,66,54,264,132
132,193,70,52,66,57,244,127
124,163,67,54,65,53,233,123
125,177,58,55,62,61,224,119
135,180,51,53,61,67,238,115
120,166,54,48,56,66,236,96
120,166,55,49,61,69,246,93
128,184,53,44,52,63,241,90
129,169,51,39,46,57,238,95
126,164,61,53,55,54,246,100
124,186,56,59,53,53,220,83
117,199,54,62,47,48,209,79
128,271,69,70,56,54,216,82
118,272,72,73,56,54,214,82
107,272,65,64,47,54,195,80
112,284,83,72,56,54,187,82
118,275,87,71,58,59,210,89
110,238,80,65,60,55,216,93
123,251,78,62,63,55,232,88
136,274,80,64,65,55,254,95
127,260,68,53,57,59,263,96
127,264,72,54,57,58,263,111
112,247,71,51,53,55,253,105
106,240,72,55,57,58,257,106
96,243,98,78,64,60,259,108
106,239,95,76,64,56,264,117
101,270,100,76,65,52,244,102
112,257,97,75,62,52,242,130
106,269,98,73,55,44,217,130
100,250,72,51,47,48,183,121
98,278,80,59,50,46,155,111
102,251,66,57,51,46,145,109
92,270,67,57,56,46,148,79
94,274,68,62,63,57,185,84
100,262,66,58,67,53,190,84
93,224,51,49,64,54,195,81
85,214,55,49,62,55,191,84
98,185,64,55,60,58,197,84
116,175,65,50,57,49,173,78
115,179,67,52,51,46,170,78
117,180,71,55,55,47,183,123
120,189,70,58,52,44,193,121
120,190,70,58,51,39,175,119
101,181,66,58,55,50,208,124
102,185,69,85,68,51,207,121
107,189,66,87,70,51,187,79
121,208,65,84,78,58,190,84
118,219,60,84,79,60,196,85
115,222,62,90,76,53,161,85
119,222,57,67,69,58,183,88
112,242,68,65,72,57,190,79
102,231,67,65,65,50,192,79
107,237,68,63,66,54,242,89
108,229,63,53,62,51,239,78
108,235,63,48,57,44,238,90
110,219,53,43,51,47,242,94
104,204,49,42,48,48,237,94
95,186,44,41,51,49,262,92
95,188,47,40,52,48,261,94
98,220,56,51,55,49,235,91
93,219,55,56,53,50,247,96
90,216,56,59,57,50,244,92
115,255,66,79,64,50,203,91
125,259,68,81,68,53,220,92
123,251,65,79,70,53,226,83
131,251,73,79,76,54,268,95
138,264,77,79,76,54,279,101
128,274,75,65,71,51,264,101
121,267,74,70,70,48,245,101
121,263,73,69,68,50,245,112
126,279,65,65,64,49,176,129
131,273,61,64,64,47,169,130
125,270,59,60,60,43,148,129
125,278,62,58,61,42,141,130
129,286,61,56,59,39,190,138
128,288,67,58,63,42,197,123
134,287,70,58,63,43,182,118
131,253,67,64,66,45,205,115
128,241,62,59,68,45,216,113
130,264,62,60,68,85,305,115
119,243,56,58,65,86,315,102
114,268,53,64,74,96,355,110
109,261,53,60,73,96,345,114
108,273,56,57,69,97,350,112
91,212,56,55,69,71,270,94
94,215,55,56,72,68,256,92
84,176,56,50,62,54,204,82
86,167,55,46,60,57,219,79
94,186,52,46,59,56,208,82
93,198,53,50,58,50,186,78
113,210,55,49,52,53,219,77
124,230,53,45,52,56,222,81
130,231,54,48,51,55,200,87
134,201,53,50,53,62,236,94
135,190,49,44,50,61,242,100
117,196,51,51,54,60,210,98
108,174,55,52,54,56,212,94
114,204,56,55,59,56,246,90
111,216,59,55,60,50,216,86
118,242,64,58,61,44,195,86
121,231,61,58,57,43,207,90
133,244,58,59,59,52,203,98
121,227,53,55,54,50,165,90
116,224,53,55,53,49,157,89
104,198,47,53,52,56,170,81
103,181,49,43,52,52,148,77
84,180,46,39,47,44,139,64
94,175,52,40,50,45,191,74
99,171,51,41,51,47,201,70
102,165,51,43,50,39,200,70
117,192,56,49,56,43,205,71
120,175,55,50,59,41,222,79
114,170,58,48,59,42,186,73
119,195,56,47,57,39,190,74
133,209,57,44,57,44,217,86
119,181,49,40,54,41,219,86
117,173,50,37,54,42,204,77
119,177,49,46,62,62,230,79
110,146,49,44,59,67,222,78
89,129,47,45,65,70,197,60
97,139,52,47,65,70,197,58
101,156,60,51,64,77,243,73
91,146,60,48,52,60,208,66
85,136,61,51,56,54,200,63
85,153,60,51,53,57,217,69
83,159,57,51,53,57,238,80
89,159,50,51,56,50,187,73
92,158,43,44,54,50,187,78
95,159,43,43,53,58,231,84
96,138,44,46,51,58,248,80
90,118,40,44,45,58,221,73
82,129,45,40,48,54,230,74
85,129,47,43,53,56,248,72
82,138,47,44,52,54,221,74
93,183,51,43,50,44,169,75
101,211,53,45,54,48,187,76
96,195,46,45,51,49,192,71
94,196,43,43,51,49,214,80
97,188,42,43,54,46,208,76
88,149,36,40,53,48,211,71
73,120,35,36,49,44,202,67
71,113,36,37,43,44,187,67
70,115,36,38,38,49,157,57
81,123,35,34,32,45,154,55
88,151,38,35,35,43,160,56
98,151,36,41,53,46,175,63
103,167,37,41,61,50,181,64
102,161,39,45,64,43,164,63
107,169,42,47,66,52,205,72
100,161,46,48,68,55,213,76
109,199,49,46,59,56,212,76
108,198,47,46,51,60,224,76
107,199,52,41,50,64,241,77
101,192,48,39,49,58,215,72
113,186,45,42,46,61,211,71
97,138,44,39,46,55,205,66
94,129,45,40,46,48,203,66
97,137,38,42,45,42,182,67
89,133,40,47,48,46,213,63
77,126,37,43,46,41,211,59
79,125,36,42,47,42,204,62
75,124,34,40,50,43,196,60
86,115,36,45,60,52,224,60
86,114,41,39,56,52,217,67
80,113,44,39,58,54,213,66
86,144,46,44,64,63,224,67
99,161,47,44,63,62,221,70
86,161,47,40,54,56,202,66
83,167,44,39,54,56,176,62
82,168,42,41,61,56,170,69
76,136,37,35,53,48,189,67
63,119,36,37,54,56,211,78
77,114,37,39,57,57,206,78
81,105,40,42,60,53,199,77
87,110,45,41,54,54,209,75
85,121,44,43,59,52,177,77
86,132,44,39,57,41,158,64
78,142,42,39,57,44,164,65
81,146,39,36,55,45,166,67
81,150,33,37,54,50,167,68
84,157,34,34,49,52,170,62
82,162,35,36,51,53,174,59
81,172,42,34,49,51,181,55
87,176,42,36,51,58,203,72
86,166,44,34,50,54,212,74
87,165,47,40,47,59,249,77
88,146,49,44,48,60,235,76
93,133,44,46,47,58,222,79
90,137,42,46,50,51,204,67
87,146,40,50,73,49,187,57
81,147,38,49,81,38,134,57
81,159,37,49,81,38,154,60
77,170,44,50,88,43,168,63
95,171,48,51,91,43,184,75
95,160,49,48,73,43,180,75
97,144,47,44,64,45,182,73
100,138,46,42,62,46,167,71
99,130,37,38,51,42,158,66
85,127,35,37,40,41,138,47
82,125,33,36,41,39,144,53
85,129,33,37,40,47,175,63
78,120,36,33,38,46,191,68
75,113,38,37,37,48,197,71
65,125,40,34,33,52,212,80
84,136,38,36,32,51,211,80
83,129,39,36,30,44,183,73
82,133,37,42,32,44,180,73
89,132,37,42,41,51,182,75
86,113,34,40,41,51,164,63
74,102,41,41,42,54,176,65
75,116,40,44,45,56,184,66
81,132,42,42,44,55,173,62
77,130,42,39,37,48,169,68
78,127,44,43,35,44,158,67
82,126,37,42,35,41,158,78
83,118,43,44,34,43,192,87
92,100,48,42,36,43,204,89
86,96,47,44,36,43,203,83
86,103,46,39,35,43,212,87
84,103,47,40,36,45,209,81
84,110,42,33,35,41,182,73
83,133,36,35,35,42,168,74
83,140,42,37,39,39,162,73
86,131,41,37,41,41,151,65
84,132,41,36,38,39,156,63
77,123,40,38,35,40,151,71
67,99,37,35,32,44,150,64
70,92,32,31,30,46,165,63
67,97,31,30,27,44,191,73
68,101,31,28,29,47,206,73
73,119,34,31,30,49,214,65
71,109,38,33,29,43,221,70
73,133,43,36,29,41,210,68
72,138,45,40,34,41,190,62
71,133,48,44,33,39,190,62
66,123,46,40,36,38,209,64
76,139,49,43,36,48,238,66
82,131,45,45,37,49,247,74
81,120,43,42,34,49,249,73
88,130,40,39,35,47,228,70
93,144,50,45,33,43,197,71
85,130,46,44,36,38,158,69
73,113,45,41,34,35,156,66
72,117,47,43,35,35,157,66
62,111,48,44,35,43,152,68
62,86,37,39,34,46,175,68
67,89,37,35,34,42,167,63
75,94,37,34,34,45,206,60
84,104,36,34,38,52,212,60
86,97,37,33,36,48,212,61
82,100,38,32,38,45,196,56
78,119,39,35,37,46,199,57
71,118,40,41,40,52,154,55
60,110,38,39,35,45,151,54
63,111,36,38,33,44,170,50
59,118,40,39,40,48,189,56
66,106,38,38,40,51,201,59
65,102,39,37,40,44,195,58
66,102,39,38,42,44,212,67
61,107,40,39,46,56,232,74
69,100,36,39,39,53,219,73
61,98,38,38,37,51,207,71
66,101,37,33,32,50,218,71
61,103,39,35,33,52,201,66
59,112,38,38,30,39,163,62
50,112,38,41,30,40,169,58
52,102,36,43,32,40,167,60
48,99,35,43,32,40,151,60
57,105,35,44,29,40,164,55
59,94,43,43,32,40,166,54
71,101,47,40,34,39,152,50
78,107,46,37,34,43,164,53
77,107,46,37,34,43,177,51
75,94,45,36,37,46,239,71
81,96,36,36,35,43,242,69
73,86,28,34,32,47,251,71
65,101,30,37,33,48,263,70
66,107,29,37,31,48,271,75
66,113,29,33,29,42,203,60
58,114,27,33,28,47,203,56
62,114,33,35,28,47,196,58
65,111,34,36,30,44,181,58
73,108,36,36,33,41,156,62
85,114,39,38,34,41,145,60
85,113,40,34,34,38,132,62
85,113,38,35,34,32,130,62
82,98,35,29,30,30,123,62
80,96,33,31,28,33,129,55
70,84,32,31,27,34,141,62
72,93,38,34,24,33,146,65
64,89,35,33,24,38,147,65
77,119,41,43,28,38,162,64
77,119,45,44,33,43,167,62
72,127,45,46,32,45,162,62
77,133,43,45,35,48,159,61
87,142,45,46,34,46,159,59
85,124,43,39,36,46,141,59
84,127,39,39,33,42,144,66
84,123,40,38,37,42,163,64
83,109,38,43,36,38,162,58
78,128,41,45,41,34,157,58
75,143,37,44,42,42,216,60
74,140,37,41,40,41,207,52
77,150,38,43,40,40,204,50
71,149,40,39,41,42,223,52
69,144,37,37,37,43,249,54
88,138,41,40,32,34,235,54
93,139,47,41,33,36,236,56
94,133,44,39,29,38,235,51
93,131,44,47,28,40,223,50
98,115,44,50,27,40,196,45
80,119,41,48,29,44,164,47
72,119,38,48,29,45,195,47
70,117,38,47,33,42,181,54
70,133,42,40,38,43,187,66
66,129,40,33,39,44,183,67
65,116,41,34,39,44,175,67
67,122,38,32,39,40,134,65
67,119,41,32,37,44,141,61
75,106,35,28,33,44,119,47
67,103,35,29,33,44,130,46
69,102,33,29,36,47,139,42
65,102,36,28,36,49,140,44
65,95,33,28,35,46,137,49
59,90,34,32,33,46,176,52
66,97,35,30,33,45,187,66
59,102,36,32,35,49,185,67
67,88,33,33,38,55,198,71
63,96,39,36,38,53,214,69
61,114,40,34,39,49,203,67
65,114,41,39,37,51,194,57
64,106,40,38,34,44,190,59
64,112,42,42,39,42,202,59
69,120,38,42,40,44,188,59
88,118,36,42,44,43,167,60
88,113,35,38,46,46,158,60
89,114,36,39,45,42,159,55
87,113,36,39,37,39,151,52
88,105,39,38,35,43,156,53
72,95,37,37,33,44,171,60
74,100,41,38,31,43,189,62
85,105,41,37,31,46,192,62
82,106,39,34,33,44,219,63
85,105,37,30,34,46,215,62
80,97,39,36,35,46,210,54
71,92,34,37,37,49,213,58
57,84,34,36,39,47,205,61
65,85,34,34,40,47,156,59
61,75,32,39,40,42,148,57
64,80,31,33,38,42,155,57
76,84,31,30,33,34,142,56
78,98,32,39,33,32,145,50
73,97,35,42,32,35,160,54
72,98,35,39,32,36,160,55
83,102,36,38,32,35,142,55
75,109,36,40,35,36,142,51
76,108,35,31,31,39,141,53
79,108,32,32,30,39,131,52
76,118,40,36,30,40,137,51
61,122,49,43,32,40,147,50
83,119,50,42,29,40,136,47
86,124,53,44,31,38,153,49
85,126,55,43,34,34,150,50
86,116,48,38,33,30,150,54
86,106,38,36,34,39,184,64
77,123,41,39,36,40,183,67
76,109,39,38,34,40,172,64
79,131,38,41,30,39,174,62
78,140,40,44,30,40,182,63
81,145,41,41,28,36,152,57
70,124,37,38,27,38,156,56
70,133,37,38,29,40,177,65
71,131,40,35,33,43,189,66
72,127,43,37,34,46,185,64
75,119,43,35,33,43,178,66
76,125,43,39,32,46,178,65
75,121,42,37,31,45,173,67
73,97,39,35,28,42,161,67
76,99,39,34,26,40,153,68
71,101,41,35,26,41,175,67
82,91,40,32,27,37,182,71
86,92,39,35,33,36,156,62
83,109,39,36,33,37,149,63
78,99,36,33,34,37,159,62
76,96,34,34,36,38,129,57
59,113,33,34,36,37,134,53
46,102,34,37,32,36,143,54
54,81,33,38,31,34,153,54
61,93,34,38,30,32,147,64
63,110,37,38,32,32,151,62
70,95,36,38,30,30,156,60
69,108,39,36,32,30,151,67
70,109,40,35,31,31,140,66
79,114,44,39,37,42,182,59
81,98,42,40,36,43,178,61
76,110,45,41,39,46,186,68
81,101,45,41,39,46,189,62
78,97,44,41,40,47,185,57
63,83,40,36,38,43,163,60
63,86,39,35,40,45,200,61
72,73,40,35,42,46,190,62
70,72,38,34,40,46,182,60
67,89,40,33,39,48,183,62
68,106,40,33,37,47,206,61
66,109,40,32,35,45,176,61
55,111,34,29,31,44,177,65
50,108,34,27,31,45,188,66
54,113,32,28,33,47,204,67
64,116,35,28,32,43,174,64
65,119,35,27,34,41,166,68
63,119,35,30,37,37,147,55
65,121,36,30,43,39,156,53
65,108,33,31,41,33,138,50
59,95,31,34,43,37,126,52
57,94,32,36,40,40,153,49
61,87,36,34,40,42,149,46
59,86,36,34,33,40,130,47
57,88,35,34,33,41,127,51
61,99,34,32,31,38,131,58
64,101,41,32,31,38,112,54
67,134,39,33,31,41,138,60
76,135,39,37,38,50,192,68
77,135,43,43,39,48,199,69
80,135,46,42,42,55,218,70
80,131,42,44,45,55,225,74
83,110,41,46,46,54,213,74
72,112,42,43,40,53,216,70
72,121,43,40,43,56,225,65
62,107,38,40,42,54,219,65
64,111,36,39,42,57,233,64
60,114,35,35,41,57,237,63
58,110,34,35,40,51,198,64
59,99,32,32,38,49,189,69
58,99,32,35,37,50,229,65
58,101,33,33,33,50,219,69
57,84,32,33,32,48,231,69
63,90,33,33,34,53,238,67
68,104,34,33,36,57,242,70
72,109,36,31,33,50,202,70
68,109,36,30,33,46,183,62
65,115,40,38,36,59,185,65
59,112,41,39,34,54,179,65
62,97,38,40,34,51,164,63
56,87,36,38,33,54,149,59
68,94,41,43,41,68,174,64
78,105,40,39,37,56,149,57
79,107,37,38,37,57,150,56
72,107,38,38,35,60,188,49
79,110,42,41,35,59,197,51
74,98,42,40,28,42,201,57
69,87,40,39,29,42,211,64
73,84,40,39,29,46,234,71
74,116,46,41,29,41,214,72
76,122,43,39,34,46,217,76
72,123,40,35,33,46,207,72
71,128,40,35,35,46,199,69
66,131,42,33,38,41,167,64
71,107,39,30,38,39,164,66
66,96,39,32,37,34,146,60
67,98,37,34,37,39,154,57
72,122,43,33,39,41,158,63
72,124,41,37,38,43,161,59
71,124,38,36,37,43,150,55
71,137,38,36,34,46,168,57
76,142,41,35,35,47,163,65
73,114,36,35,31,51,168,61
82,137,38,33,30,52,168,64
77,137,38,36,30,53,176,65
75,126,39,44,33,53,166,62
65,117,39,44,33,49,145,51
60,116,37,45,34,46,139,49
50,95,41,47,36,45,181,51
56,95,42,47,38,47,195,51
56,100,43,42,38,44,200,52
59,99,42,43,37,43,214,54
60,100,47,46,38,40,220,52
65,99,43,44,35,39,203,50
63,111,43,46,40,41,192,55
63,110,41,42,38,40,177,51
64,109,42,41,37,43,194,53
63,114,37,37,34,46,186,61
58,102,35,34,36,46,171,60
61,102,37,30,28,42,163,56
60,96,39,31,31,42,184,60
71,105,38,32,33,43,153,56
69,100,36,32,33,40,159,48
68,99,36,34,34,39,170,49
67,83,32,34,35,37,178,53
66,83,28,31,34,36,160,50
52,84,30,29,34,36,186,55
59,80,32,34,36,42,181,57
55,86,37,34,34,42,174,59
54,84,37,38,33,41,168,57
58,95,38,39,32,40,168,60
58,87,34,38,29,36,148,63
59,109,35,35,25,34,157,62
62,104,38,36,25,36,172,56
61,107,38,33,27,44,221,60
62,107,38,34,26,45,231,64
63,107,42,33,29,47,228,59
57,89,43,36,35,43,220,58
58,96,38,35,35,41,192,60
59,98,38,36,35,34,136,55
56,92,39,38,34,41,139,48
60,94,35,42,33,41,152,57
61,98,34,41,27,46,180,62
60,99,33,42,28,46,189,62
60,99,32,40,28,57,247,62
66,114,35,39,31,52,237,73
67,112,38,35,30,51,223,65
68,105,36,36,30,53,210,64
75,112,38,38,31,53,235,70
74,115,40,43,30,41,175,72
70,106,41,43,26,43,182,66
68,105,41,42,27,46,214,71
71,109,41,43,27,47,255,89
63,110,45,42,25,47,232,87
69,119,51,42,29,46,249,89
75,128,48,43,34,45,250,87
79,128,48,46,35,42,221,83
73,133,48,44,34,38,161,60
71,123,44,44,35,37,166,55
65,114,36,39,36,38,163,53
80,107,36,46,37,39,153,57
81,111,35,48,39,39,158,68
86,106,34,47,42,38,169,70
90,108,38,46,43,38,179,74
95,107,44,54,45,46,191,80
82,114,49,49,48,51,202,81
77,133,51,46,47,51,211,73
83,134,52,48,47,53,207,72
85,167,55,50,48,57,186,67
88,174,53,45,45,57,179,66
115,197,53,43,45,53,172,61
114,191,53,48,46,54,177,65
116,192,55,48,48,54,202,71
116,171,52,50,47,56,213,74
117,165,55,48,46,56,246,71
94,144,53,50,42,56,242,79
104,148,51,44,39,57,237,77
99,157,52,44,36,56,234,85
104,194,57,42,50,51,240,85
101,217,54,42,68,50,179,81
111,208,51,41,75,54,201,72
110,217,51,41,83,53,195,77
108,211,51,47,87,63,254,80
99,170,42,46,80,64,249,78
97,134,38,45,71,58,256,80
81,153,44,50,68,65,282,83
72,134,45,52,64,64,285,82
78,148,47,50,63,57,238,70
88,158,49,53,63,56,239,71
94,175,55,54,58,62,256,68
100,175,49,47,56,48,222,66
105,182,50,45,52,49,232,65
102,164,44,39,50,42,209,58
101,158,45,40,50,40,196,75
100,159,46,46,55,36,161,75
94,143,55,52,56,40,162,76
97,131,54,52,59,43,187,79
110,134,58,53,59,49,202,88
105,150,58,54,58,51,214,82
105,133,55,54,57,48,223,82
123,129,48,52,52,54,237,81
136,154,50,58,52,51,201,81
140,168,50,58,50,49,206,75
187,162,51,60,57,49,202,66
197,181,51,60,56,52,198,69
207,181,51,56,57,48,158,69
200,158,50,49,55,52,178,64
200,185,51,52,58,48,167,72
168,186,48,47,56,50,170,76
154,176,50,41,52,51,169,78
128,179,50,46,54,48,212,77
117,183,51,48,54,51,242,77
102,157,55,45,52,51,235,66
91,153,56,48,52,49,234,65
100,165,57,50,55,48,268,59
102,178,57,47,57,52,251,58
102,177,55,46,59,44,215,56
101,171,52,49,62,45,207,56
104,185,57,49,59,46,211,56
95,164,56,47,55,46,168,62
92,144,58,51,54,40,146,62
95,155,58,54,52,41,199,72
91,160,56,53,56,49,234,78
90,146,52,49,57,47,226,81
105,151,48,49,60,51,277,83
109,162,46,46,60,51,285,83
109,161,50,45,60,50,250,79
116,155,47,42,55,43,220,73
108,158,48,43,55,45,223,67
94,161,48,46,53,40,173,64
111,168,47,44,54,42,167,67
117,166,45,47,60,48,181,68
110,160,46,48,55,49,198,70
113,158,45,43,53,48,220,87
115,158,46,37,52,45,200,81
95,142,46,39,52,45,204,78
86,128,45,36,47,41,192,69
94,128,43,37,46,45,215,72
99,117,40,39,47,49,198,52
95,125,43,43,49,50,218,57
97,133,46,43,50,51,220,61
101,143,48,43,46,49,216,69
97,137,50,42,47,44,189,64
88,135,50,41,47,38,185,66
93,137,51,40,51,43,174,63
94,151,49,39,51,39,163,64
96,148,46,36,53,44,155,60
98,165,44,37,58,47,142,61
100,182,41,39,62,51,146,61
104,165,40,37,62,47,146,65
101,145,44,43,59,51,157,61
102,141,52,49,58,51,174,66
115,130,53,50,59,50,189,70
113,110,54,50,58,52,177,70
107,117,53,57,54,55,170,71
117,117,56,56,52,55,187,68
131,121,53,54,52,51,170,65
128,141,53,52,47,48,159,63
221,156,57,54,49,45,167,65
237,160,62,50,51,42,164,68
250,160,61,48,59,45,149,72
267,161,60,48,62,52,184,78
266,139,62,49,64,51,188,75
217,131,61,50,60,49,209,70
207,126,60,47,58,51,209,73
195,154,55,46,54,52,211,70
175,154,56,47,55,54,194,60
179,166,56,46,51,57,201,67
163,176,60,44,59,60,224,73
156,190,61,47,60,61,233,65
149,183,58,43,61,59,258,72
137,187,56,41,59,61,284,91
129,191,54,41,65,64,296,96
138,180,47,40,58,65,267,94
135,174,44,39,58,64,258,92
130,187,49,41,53,64,238,90
146,181,47,44,53,63,228,80
150,170,45,44,52,63,229,73
157,182,45,41,51,62,227,72
156,188,40,39,50,63,235,74
160,158,36,41,54,63,228,70
160,171,39,43,54,55,197,65
191,177,41,43,47,56,170,67
176,155,40,46,51,56,179,67
232,144,42,47,51,56,194,73
231,152,45,45,52,55,192,76
226,138,42,41,53,60,216,75
209,140,44,43,56,54,223,74
226,180,57,45,58,52,245,72
170,177,57,52,58,58,244,70
195,178,58,52,57,58,252,73
210,206,61,54,60,62,253,81
210,205,61,57,59,61,241,84
192,175,50,55,55,63,207,85
205,175,51,48,57,56,194,81
183,186,47,49,62,58,216,90
151,168,44,49,55,50,190,84
146,175,46,47,55,49,201,87
162,183,48,47,55,50,247,92
154,184,49,52,56,48,259,93
161,163,48,50,51,44,223,79
184,160,52,57,57,47,225,77
204,164,52,57,58,49,240,84
229,164,54,58,58,49,201,80
229,174,54,57,59,50,183,81
230,188,59,59,64,49,194,80
237,174,58,52,62,52,197,81
236,177,65,54,60,54,205,78
303,187,67,53,63,47,198,82
303,179,65,52,59,46,197,82
305,165,64,55,51,48,204,93
293,181,60,55,48,54,205,93
291,188,51,53,52,52,175,84
182,171,46,50,45,53,177,83
179,180,48,53,47,62,183,81
177,188,45,51,48,62,163,75
191,185,47,51,45,54,197,82
164,160,50,52,52,61,208,84
169,168,53,59,58,69,204,81
169,164,52,57,58,64,195,81
158,171,59,58,64,65,224,91
141,165,56,57,66,65,193,84
147,165,53,58,61,56,177,79
136,155,49,52,56,44,174,77
142,173,53,57,59,47,176,79
143,165,45,52,53,43,139,65
141,161,49,49,57,46,178,74
140,190,49,45,57,51,198,86
139,195,53,47,57,54,195,89
136,186,49,41,54,52,191,92
133,187,52,42,54,57,190,88
139,189,51,45,47,56,159,83
133,166,51,44,46,52,146,75
133,161,47,39,45,52,151,73
136,145,49,41,44,51,151,69
140,154,50,42,47,47,176,75
128,155,49,41,49,44,158,69
132,155,45,42,48,43,138,68
133,151,44,42,54,40,134,65
129,186,40,38,56,43,148,66
115,179,34,34,58,42,123,69
121,179,33,32,55,40,127,66
146,170,37,31,55,41,140,63
148,195,43,32,51,43,148,71
143,160,55,32,48,39,152,81
145,156,58,34,42,38,145,79
132,157,60,34,46,39,169,85
107,160,61,37,50,39,169,84
108,144,59,41,53,40,185,87
106,150,48,42,54,39,180,78
102,151,47,42,56,46,197,78
103,145,47,42,56,45,176,76
94,148,48,41,55,48,183,80
92,159,49,40,56,45,170,67
93,164,49,38,58,47,168,65
99,162,53,39,54,38,154,59
104,177,50,40,55,48,167,60
105,199,51,38,55,46,154,65
91,178,48,36,51,47,166,71
100,188,46,37,54,46,154,70
95,198,41,38,57,49,168,74
92,186,41,37,54,43,167,74
92,154,39,40,52,46,197,68
107,165,41,41,52,46,181,63
105,152,44,43,46,46,187,66
113,142,45,43,47,45,178,67
119,152,48,43,48,41,167,65
121,154,46,40,47,42,137,76
113,155,50,39,51,41,130,76
106,158,53,37,56,42,142,72
97,158,58,36,70,47,146,69
92,164,57,39,74,48,146,71
84,167,56,38,76,45,174,75
79,155,53,38,75,47,188,76
81,142,52,36,72,46,192,79
82,139,46,37,54,41,181,81
74,119,41,31,49,41,193,81
70,109,42,32,43,40,159,72
68,126,41,33,35,40,177,87
70,129,40,38,36,40,157,86
69,125,38,40,37,40,175,85
69,134,42,42,35,40,170,83
74,132,43,42,32,41,174,76
79,124,42,42,33,42,150,57
72,134,44,41,35,44,166,60
81,149,45,39,33,43,142,55
84,145,47,39,36,42,143,54
79,143,46,41,39,40,142,51
76,146,47,43,37,40,147,55
76,142,46,41,36,39,128,52
71,153,47,41,40,37,132,52
68,156,45,39,40,37,126,56
74,176,56,44,43,38,121,58
76,173,61,45,45,38,101,58
76,170,62,44,46,39,121,58
86,144,61,45,44,41,130,56
84,134,65,46,42,40,128,54
88,118,61,44,39,39,128,52
89,127,54,44,40,42,156,50
91,124,53,44,37,40,143,46
76,132,54,45,40,40,140,51
76,129,49,46,39,41,134,49
66,133,49,44,43,40,131,49
62,151,53,41,47,37,88,45
60,153,49,42,48,42,100,47
58,152,50,40,49,42,147,54
54,154,47,36,50,41,156,55
70,173,48,40,48,43,178,59
72,145,43,38,42,45,202,64
70,137,44,37,46,48,207,65
75,160,42,37,41,48,182,58
75,159,49,38,41,47,180,57
59,132,44,35,37,52,208,55
63,152,49,36,38,50,194,47
67,159,49,38,34,49,202,51
62,130,50,38,32,50,216,60
63,129,46,37,31,52,227,63
93,165,45,44,36,50,189,64
87,149,42,42,38,49,184,65
90,142,44,42,38,42,161,62
97,167,45,43,40,43,140,55
98,174,43,43,42,43,116,54
74,155,45,34,38,37,145,57
81,161,49,40,38,39,167,64
79,181,53,41,39,40,173,62
71,169,50,40,41,40,173,58
69,169,53,39,41,39,174,55
68,152,51,42,46,42,146,46
60,144,47,35,45,39,131,40
61,142,42,37,43,47,174,55
61,131,41,36,43,47,173,54
67,123,39,37,42,50,170,56
65,122,43,34,37,45,165,57
63,117,43,36,34,47,158,55
56,104,41,32,30,37,130,47
56,100,43,33,24,39,154,54
48,102,42,33,26,33,174,53
46,97,40,36,30,45,221,57
52,101,41,37,34,44,227,56
54,95,50,39,38,64,292,64
52,95,48,39,39,65,285,60
53,96,48,42,38,65,279,61
53,105,48,40,35,58,248,57
50,107,49,41,31,64,285,60
43,99,42,42,30,43,214,57
47,103,44,42,32,41,209,58
52,109,47,41,33,47,205,58
50,97,44,39,34,48,208,57
48,93,43,38,35,46,160,55
49,96,41,35,32,44,156,44
43,91,37,35,33,50,185,49
66,99,35,35,29,50,226,54
66,109,36,40,29,51,225,53
73,114,39,40,32,49,221,54
76,112,40,41,36,53,220,56
80,111,45,44,37,47,198,52
56,94,42,44,39,44,146,46
62,102,42,42,41,44,148,53
55,94,40,42,37,43,155,56
54,100,39,40,35,40,155,53
52,108,40,41,34,43,152,51
55,105,40,44,33,44,159,54
51,92,38,42,33,47,156,51
71,116,36,44,35,48,149,49
77,109,35,43,37,47,140,49
78,103,29,37,35,46,143,52
78,109,30,31,36,52,148,48
82,109,31,30,34,47,146,51
67,89,33,27,34,44,132,48
59,87,35,31,30,45,149,49
57,84,35,30,31,43,146,50
55,93,37,31,33,47,210,53
51,116,39,35,36,50,217,46
56,116,38,41,38,51,218,47
54,116,35,40,38,55,216,57
52,116,38,43,38,52,211,52
53,115,38,42,35,41,166,52
48,103,35,41,32,37,176,54
44,115,35,36,27,36,176,52
53,119,37,37,34,36,181,43
55,121,36,33,34,34,178,42
55,111,38,37,34,35,165,42
57,98,39,34,34,31,144,41
73,89,38,32,32,32,143,46
69,92,37,31,29,26,124,42
72,91,39,37,30,32,133,46
73,93,34,36,34,34,139,44
75,90,33,38,38,38,152,48
59,78,33,38,40,37,152,43
60,78,37,38,38,43,157,46
69,88,35,34,38,41,180,45
69,95,38,31,36,40,173,49
68,105,39,30,32,37,173,47
67,110,39,29,31,39,182,48
68,111,37,32,35,38,191,47
65,100,39,34,37,41,176,46
65,100,39,36,39,42,161,42
64,94,39,42,40,46,188,45
66,88,38,43,41,44,186,44
60,95,38,41,35,40,176,47
52,106,37,39,33,39,165,48
53,99,35,36,29,39,175,49
54,102,33,30,28,44,155,47
55,111,36,31,31,48,182,54
56,99,35,29,33,48,180,51
54,86,32,29,31,48,184,49
52,87,33,28,35,50,177,46
47,83,32,27,36,45,160,46
53,80,31,25,34,48,147,41
61,81,29,28,33,49,176,47
61,95,32,31,34,46,171,44
66,125,34,32,29,43,173,45
70,122,34,34,29,47,181,44
61,118,33,37,29,41,169,46
52,119,33,35,29,41,161,41
60,118,30,34,33,45,172,44
59,94,26,32,33,45,168,45
67,114,26,33,34,38,171,44
69,119,26,32,33,38,174,41
67,116,26,29,33,39,164,39
60,106,27,30,30,34,158,38
53,100,30,37,32,39,178,37
38,79,32,38,28,38,177,38
43,69,33,38,28,38,169,40
44,68,33,37,27,37,156,41
43,73,32,35,26,42,184,44
45,79,33,31,24,36,163,41
51,85,32,26,26,35,159,40
49,89,31,25,25,34,151,40
48,88,33,27,27,36,149,38
55,89,34,26,27,29,99,37
55,85,33,26,29,34,122,38
51,79,31,33,31,40,108,39
50,76,30,33,34,40,147,38
52,92,30,34,37,38,156,44
55,94,28,35,39,41,171,42
54,102,30,34,39,37,157,47
61,116,31,29,36,37,158,44
62,127,35,29,35,36,143,46
64,117,36,28,30,37,137,41
57,112,36,30,27,38,142,40
57,106,36,34,29,39,154,37
50,87,34,33,29,35,170,39
52,72,34,32,31,37,148,35
51,70,34,32,32,40,178,44
54,70,34,31,32,39,168,44
58,72,33,28,30,39,164,47
57,75,34,31,31,39,145,47
55,77,32,32,28,41,160,48
59,83,29,32,27,39,150,43
54,86,31,30,27,37,169,45
61,85,32,30,26,39,187,45
65,94,34,32,25,40,196,45
68,92,34,30,27,45,198,46
61,97,34,29,25,42,177,43
63,102,33,30,26,41,159,40
51,96,32,29,26,40,139,35
59,83,31,28,27,41,147,41
61,83,30,31,26,34,140,46
62,77,35,33,28,32,173,47
63,64,33,36,29,33,166,48
68,66,36,40,31,32,156,49
60,71,36,39,31,32,150,46
53,79,39,37,32,32,149,40
55,86,34,36,32,33,121,42
54,86,35,36,33,36,134,45
49,88,30,33,33,36,149,48
48,86,30,35,35,38,173,51
47,78,28,35,33,36,172,50
52,76,31,34,37,38,169,48
56,84,32,34,36,38,190,49
61,81,34,34,38,41,198,47
60,85,33,37,37,42,179,41
60,87,33,38,37,42,174,41
54,80,29,41,34,42,186,44
57,82,31,40,36,38,170,49
50,92,31,38,31,36,160,51
51,88,32,33,31,32,146,53
56,85,31,31,31,35,153,55
57,87,34,32,31,36,137,53
52,76,34,31,29,39,126,46
52,70,33,37,35,41,115,43
55,80,31,39,37,44,149,41
48,82,34,40,38,45,193,44
45,77,31,38,37,44,196,46
50,78,30,39,35,43,200,44
47,82,29,34,32,40,201,43
46,84,33,34,28,39,191,47
54,90,39,35,25,40,161,50
59,117,43,35,26,38,155,49
54,120,48,39,30,42,147,48
55,115,48,37,27,45,151,50
53,121,45,35,27,46,134,47
48,115,41,33,27,42,106,38
41,87,37,33,28,44,110,40
44,86,28,29,24,46,135,43
46,87,29,32,30,49,137,42
47,73,31,32,33,47,140,41
65,72,31,31,33,51,150,45
65,69,30,31,33,52,162,50
63,77,30,31,33,48,163,53
61,76,34,28,33,46,180,53
64,78,33,29,30,45,181,54
47,86,34,28,32,43,179,54
49,87,36,27,33,42,174,48
48,78,39,29,35,41,157,43
49,78,35,32,35,38,144,43
45,80,34,31,34,38,148,46
42,75,33,32,33,38,160,46
41,75,31,32,32,39,158,45
47,76,28,30,29,39,157,43
51,83,32,28,24,35,142,42
50,72,38,27,28,40,140,46
51,74,42,28,28,42,175,50
50,73,43,27,28,38,170,49
47,89,45,29,28,39,179,48
44,82,43,31,29,41,178,47
43,80,41,31,28,34,170,39
51,84,38,32,27,34,126,34
53,92,36,32,28,35,140,39
52,76,34,37,32,34,122,39
52,83,34,40,32,35,130,41
57,85,32,42,31,35,127,44
47,80,33,44,32,32,172,41
50,75,33,44,32,38,190,40
56,72,35,39,30,37,195,46
62,69,34,34,29,40,200,48
59,79,33,33,28,43,206,47
65,84,35,31,28,43,164,45
66,80,39,30,26,40,139,43
65,83,37,29,25,42,139,43
59,83,38,31,26,39,131,41
56,75,38,31,25,40,172,41
51,69,34,32,25,52,202,40
46,74,30,37,27,49,195,45
41,74,32,37,27,47,194,39
43,76,31,35,29,50,214,37
44,73,31,36,31,52,213,39
45,77,33,35,34,46,196,42
47,76,31,32,33,45,204,39
47,80,32,32,34,45,203,42
46,74,36,34,30,42,184,47
43,87,36,34,31,37,159,46
47,87,34,33,27,36,171,46
47,88,36,30,28,36,161,48
51,89,35,31,30,37,165,47
49,94,33,33,29,41,171,43
50,82,34,32,29,39,162,43
47,78,33,33,30,40,151,43
45,74,30,35,28,39,163,42
42,75,32,42,26,43,174,41
46,74,32,39,28,37,160,41
56,76,32,40,32,39,169,40
61,80,35,38,31,34,146,38
66,84,36,39,36,40,137,41
73,85,35,33,36,38,137,45
70,91,37,35,38,40,159,49
65,99,37,35,36,38,140,47
69,113,37,43,40,44,163,52
72,115,40,42,39,43,174,50
67,119,48,43,38,44,168,50
74,119,48,41,34,42,153,47
73,117,47,41,31,47,163,50
75,113,46,34,28,43,152,44
70,113,43,32,25,41,156,44
69,104,34,32,24,40,153,42
64,109,34,33,29,41,155,43
65,111,32,31,30,37,179,44
55,115,36,34,33,41,218,50
52,108,36,39,32,38,206,51
51,106,35,40,34,35,203,51
51,94,35,44,30,35,207,53
49,92,36,48,33,40,197,52
49,72,37,48,30,39,153,48
52,94,39,46,29,41,188,49
55,99,38,45,31,46,196,51
56,101,36,41,31,48,210,52
57,109,38,38,26,44,198,51
61,115,33,35,28,44,199,52
65,105,31,33,30,44,173,50
66,107,32,30,27,42,169,48
64,108,32,30,30,40,153,47
62,99,31,30,31,47,236,56
63,113,34,34,29,46,261,58
60,117,34,34,27,44,258,58
58,116,32,36,26,41,255,56
56,109,34,35,23,48,258,54
59,108,36,33,25,40,187,42
51,85,35,30,25,41,171,39
45,73,34,29,26,41,163,37
45,77,35,31,29,43,162,40
49,94,35,32,29,36,156,46
47,91,32,34,28,42,180,49
48,94,31,33,32,43,156,44
55,97,35,34,33,49,168,48
52,90,40,32,33,54,189,47
52,86,38,32,34,60,215,52
51,86,39,32,34,56,186,50
52,85,38,34,29,58,202,53
47,93,36,33,28,52,202,51
52,95,30,30,26,49,220,53
51,102,34,34,29,40,191,41
54,102,33,36,32,41,191,43
56,101,36,38,36,37,176,40
56,103,34,39,36,40,166,39
53,99,35,40,40,37,121,34
52,86,31,37,39,38,112,36
54,86,30,35,37,39,157,47
56,92,28,30,34,37,160,52
56,80,28,33,34,34,166,50
54,84,27,32,30,35,170,50
60,91,29,33,29,40,181,52
59,86,33,34,31,37,153,41
53,82,34,37,30,37,138,37
51,85,36,38,34,40,167,40
61,103,39,40,37,40,170,46
56,96,41,46,35,38,160,45
53,102,40,51,37,37,157,45
53,102,38,50,39,40,162,43
53,100,36,48,35,36,126,40
42,79,33,49,33,35,109,33
49,78,32,43,33,28,110,32
49,79,32,37,33,32,126,34
57,78,33,37,35,27,122,39
59,79,34,37,34,28,121,42
58,76,34,33,32,31,135,43
48,80,31,31,33,31,128,40
50,73,30,29,29,27,107,40
40,74,29,25,25,30,118,36
37,67,28,24,26,30,124,38
42,83,28,27,31,30,101,38
43,82,31,29,31,31,148,39
48,86,31,31,32,32,144,45
48,83,34,35,33,30,135,45
48,83,33,34,34,29,131,43
45,68,34,33,32,28,151,42
48,66,33,31,31,26,115,46
40,62,34,30,32,26,159,46
42,63,33,29,31,28,164,50
41,69,32,32,32,29,182,49
41,66,32,32,32,30,170,50
46,84,31,31,31,32,167,48
48,82,29,32,31,36,130,43
48,86,24,31,34,36,125,44
48,84,27,32,33,34,105,42
49,83,29,33,33,34,96,41
46,70,30,35,37,35,101,39
48,74,32,36,36,32,115,37
51,74,34,36,34,33,123,32
53,72,36,34,33,35,128,33
53,92,35,34,32,34,133,43
49,85,33,34,29,33,135,44
47,87,31,33,28,34,120,50
43,96,31,33,26,33,108,50
41,97,30,32,26,34,112,50
46,88,29,31,28,35,131,49
56,92,31,31,30,35,130,54
61,94,33,28,30,43,184,50
69,88,34,29,32,47,201,56
76,103,35,30,34,50,196,59
72,106,37,31,32,51,208,58
65,106,36,32,29,52,207,52
70,123,36,34,32,47,198,60
66,126,34,33,30,44,192,56
66,121,36,32,35,43,191,52
63,113,38,33,36,44,163,46
63,110,38,35,37,45,173,47
53,85,38,33,34,41,135,36
53,84,39,34,34,42,118,34
43,75,35,32,27,40,126,40
44,82,32,32,30,39,141,40
47,82,33,29,31,38,139,44
47,80,33,29,34,38,135,40
43,77,31,29,34,37,140,41
53,88,33,35,36,40,141,38
54,82,34,32,34,36,119,45
56,79,32,33,33,35,115,46
58,80,33,33,33,37,116,48
56,78,34,32,42,39,133,46
45,65,31,28,43,36,138,46
53,76,30,28,42,39,138,41
47,83,28,27,44,37,125,37
48,83,26,27,42,40,132,38
50,78,21,26,35,37,109,38
56,80,24,26,35,38,150,39
52,70,23,29,35,35,164,41
53,66,25,29,33,38,177,40
52,68,28,29,33,41,179,38
53,89,29,29,33,45,211,44
50,84,27,30,32,42,173,44
54,91,31,29,32,41,168,44
58,89,33,30,34,43,165,50
60,88,33,33,34,41,189,51
58,71,33,34,33,37,156,47
67,82,35,34,31,37,172,48
62,71,31,32,31,36,167,45
57,71,29,30,28,40,176,41
56,69,27,26,27,34,141,40
56,70,27,26,31,33,139,40
45,55,24,24,30,33,112,35
47,58,25,25,26,35,160,44
52,63,24,27,27,27,165,45
49,78,23,29,29,31,168,46
53,74,24,28,25,31,167,49
53,78,28,28,25,34,190,52
52,76,30,27,26,34,149,46
47,88,30,28,27,36,141,48
56,75,32,26,25,33,137,48
56,80,32,27,29,34,147,47
55,76,30,27,29,33,124,47
57,85,29,29,29,31,147,49
59,68,29,33,28,31,147,45
52,70,29,34,28,34,164,43
53,67,28,35,27,37,167,42
49,72,31,36,31,40,184,41
49,64,30,39,32,40,165,39
52,63,30,35,32,40,180,38
49,61,30,38,35,41,182,39
45,56,34,40,42,39,183,38
45,49,34,42,44,37,163,35
46,46,35,41,44,39,173,38
41,46,36,40,44,39,186,39
41,44,36,36,40,34,171,37
52,68,32,34,33,33,165,40
52,71,32,32,28,33,166,43
62,78,34,31,26,32,209,47
67,80,34,32,27,35,165,45
66,81,34,35,30,36,181,45
63,69,33,34,31,37,185,45
63,65,31,33,29,37,192,42
49,57,31,32,27,36,131,35
46,55,29,35,28,30,133,34
51,56,31,35,27,32,118,37
47,56,32,35,25,38,136,36
46,55,32,34,25,37,131,39
51,54,27,33,25,37,137,36
46,56,28,28,26,38,149,39
47,55,24,25,25,36,139,37
48,46,25,25,25,34,151,37
49,46,27,25,26,36,156,37
46,54,28,32,28,37,162,39
45,52,30,37,28,37,165,37
42,54,30,37,28,39,167,38
38,58,33,37,27,37,153,36
40,63,33,39,31,35,154,45
42,57,32,36,30,35,152,44
43,62,32,30,29,37,151,45
41,61,32,31,30,37,169,45
44,67,28,29,34,35,165,47
43,64,28,30,30,35,156,38
41,62,32,32,31,33,156,38
56,57,32,32,31,31,158,40
56,54,32,33,33,29,143,41
57,46,32,35,32,29,129,39
54,47,31,32,31,27,124,38
53,48,29,30,35,30,118,40
37,47,27,29,36,32,94,34
37,45,26,26,33,34,106,35
41,46,26,25,32,36,123,34
49,47,27,25,31,40,152,39
50,50,29,26,25,39,158,39
50,49,27,29,24,36,171,40
50,52,31,30,26,36,165,37
47,57,32,32,27,34,152,38
48,57,31,32,33,33,134,35
48,54,28,33,34,30,124,34
47,56,29,35,36,33,104,37
47,55,26,34,35,36,118,41
45,54,26,31,33,36,122,38
38,53,29,32,28,36,120,39
40,59,30,29,28,43,114,39
39,61,30,26,25,43,130,39
40,61,32,25,24,39,109,34
37,54,30,29,24,39,113,35
38,53,29,29,25,40,140,34
37,50,31,30,26,34,143,35
40,47,33,33,25,31,138,34
47,47,31,33,26,29,165,46
52,51,35,34,29,32,171,48
52,51,35,34,29,30,147,46
50,45,32,33,32,39,161,46
50,45,31,32,35,40,168,48
49,44,31,35,41,41,147,40
44,40,31,43,39,38,152,38
45,41,32,47,40,39,146,39
46,44,33,47,38,31,130,38
46,44,34,46,38,29,118,37
48,45,34,46,30,39,154,47
54,57,36,41,33,39,131,51
53,58,38,39,32,39,149,55
63,61,39,41,30,40,152,55
72,65,39,40,29,44,163,55
75,67,39,39,30,35,125,47
70,58,33,34,27,36,126,45
71,61,30,29,29,36,114,41
63,58,27,29,31,41,155,46
52,52,26,31,34,37,139,44
39,48,28,30,39,36,145,47
41,50,29,32,42,38,157,43
47,52,27,35,40,38,179,44
61,53,29,37,40,36,141,42
60,52,31,36,39,35,139,42
65,53,29,37,37,39,139,39
64,52,31,35,34,36,151,43
60,47,33,38,34,38,136,45
49,59,31,36,33,35,136,45
51,60,29,34,32,34,134,46
44,59,27,33,33,40,138,45
52,58,28,32,31,41,122,43
50,69,28,27,31,40,115,40
48,62,29,27,30,41,114,37
52,62,30,33,30,42,120,35
56,73,37,39,27,38,173,41
52,78,36,41,34,36,166,39
56,85,41,44,39,40,170,40
66,96,43,47,40,43,187,44
70,105,42,45,39,47,205,47
70,110,37,41,43,47,164,49
73,122,38,40,38,53,194,56
86,160,41,46,42,53,190,60
110,198,59,64,57,64,178,68
124,261,73,76,68,72,186,73
158,350,77,79,68,72,193,79
160,415,79,80,70,72,179,79
161,416,84,77,70,71,179,79
149,405,73,61,62,60,181,72
144,395,68,60,59,54,210,71
109,327,72,64,61,54,205,65
120,272,74,65,64,49,188,61
114,256,65,62,60,48,198,57
106,247,64,67,59,46,201,60
109,226,56,54,53,44,154,55
109,221,46,44,46,41,144,46
97,180,45,43,40,46,160,52
102,175,46,44,41,48,160,51
101,174,44,39,42,54,161,47
90,134,50,41,42,54,150,50
88,119,53,41,42,56,156,53
90,119,51,43,45,51,147,52
78,126,52,41,43,51,172,53
81,137,51,39,40,47,164,53
88,147,46,39,41,48,165,53
88,182,48,40,42,47,167,51
87,181,46,41,40,46,184,53
86,176,46,43,43,48,159,57
84,169,47,44,43,46,159,62
71,160,46,43,42,48,162,60
67,114,41,45,40,47,169,65
65,103,47,44,37,47,169,61
83,101,46,41,34,42,157,64
100,131,50,43,36,45,171,60
101,134,50,41,37,36,167,63
101,132,49,37,39,36,168,60
96,130,46,41,44,38,144,60
87,141,43,43,47,55,169,57
69,107,40,43,45,52,152,58
73,114,39,47,42,56,181,56
74,119,41,47,41,55,178,53
85,131,39,41,39,55,187,64
78,113,44,39,36,41,173,61
80,112,42,39,37,46,196,58
76,124,48,35,38,42,186,61
99,166,51,40,42,47,179,61
105,188,55,43,41,47,190,62
112,263,67,48,43,60,208,78
111,281,69,46,42,63,212,82
120,289,75,50,46,71,261,90
108,300,86,47,42,79,284,120
112,310,88,56,48,79,281,121
106,259,80,57,46,74,281,115
103,250,81,62,50,73,263,114
111,254,94,65,47,68,232,109
115,235,88,68,53,57,200,75
109,213,84,63,52,57,202,66
118,229,88,60,53,51,178,66
121,235,87,57,66,44,211,66
118,289,66,51,88,41,189,69
107,278,59,47,91,39,193,71
115,279,59,47,89,44,183,79
106,264,50,49,93,49,192,78
103,251,49,54,85,52,173,75
87,164,48,52,67,51,169,83
96,173,45,54,62,53,171,85
78,153,43,53,60,49,203,77
80,151,46,52,56,43,191,73
82,151,43,50,53,40,187,77
101,191,52,52,53,43,174,62
111,193,54,51,59,40,173,65
113,216,61,55,63,39,175,76
137,218,66,58,70,42,180,89
136,225,68,57,73,42,181,100
124,202,67,57,69,43,212,108
125,223,69,57,70,48,218,116
126,213,76,58,68,56,225,122
109,214,79,55,63,56,235,118
130,225,96,64,66,65,243,124
159,248,95,65,74,70,255,150
156,243,97,70,75,68,255,149
158,260,92,67,77,62,229,142
162,268,90,67,78,61,224,144
149,256,79,62,72,66,245,134
132,245,84,74,72,64,209,106
120,220,87,76,68,64,205,101
137,205,100,83,70,77,200,104
138,226,104,82,67,76,201,102
141,229,104,83,69,67,159,111
149,327,110,79,70,66,181,125
159,353,107,77,71,67,219,131
138,362,99,67,67,61,225,126
145,361,92,68,71,68,260,125
170,385,92,68,74,65,271,115
156,295,83,64,70,64,275,94
158,294,79,59,67,65,241,80
165,308,73,61,71,69,280,93
155,306,82,63,65,63,272,100
122,274,75,63,65,69,257,107
134,282,76,69,76,77,265,123
136,268,85,77,80,76,278,128
139,232,86,75,76,73,249,116
134,201,78,76,85,73,230,113
140,231,87,78,85,71,265,110
125,218,85,73,77,68,261,104
131,223,85,69,69,69,256,106
132,257,85,69,68,62,241,113
130,263,84,66,60,61,223,111
127,241,77,61,52,62,197,107
136,245,80,57,51,57,181,98
119,247,71,56,59,61,180,91
112,232,71,57,60,59,170,94
117,231,72,60,67,62,185,101
118,255,69,63,73,59,188,114
130,258,69,70,77,57,184,116
128,239,76,72,75,48,200,117
136,255,80,75,76,57,233,115
139,252,78,70,74,60,255,117
138,254,82,70,73,65,271,113
116,254,75,61,67,66,271,108
115,253,67,56,64,66,266,114
99,221,59,56,64,65,241,110
108,235,62,57,56,76,258,101
107,228,52,53,48,71,245,90
119,237,52,54,47,69,250,88
124,245,54,53,49,71,243,83
122,242,53,49,50,89,270,80
106,233,59,51,56,82,241,78
114,222,64,59,61,82,239,79
116,224,69,58,66,86,223,81
117,228,71,59,65,87,248,72
119,256,78,60,66,65,228,83
118,273,80,65,68,57,224,81
128,271,76,60,67,55,228,80
130,255,79,65,60,74,239,91
130,255,82,71,62,78,230,96
133,229,77,71,58,76,222,98
138,240,73,66,54,74,207,102
134,241,83,69,55,75,205,105
140,250,77,67,64,55,211,102
139,272,76,64,65,45,201,101
151,294,81,62,64,48,197,92
175,271,77,65,64,52,249,95
170,288,72,65,62,53,251,94
156,287,77,64,56,56,270,91
165,264,76,66,57,62,273,93
164,248,73,68,65,64,319,108
147,263,76,69,68,61,295,98
140,235,77,68,69,63,297,111
159,274,72,67,68,59,279,112
149,260,67,62,67,54,300,123
132,252,66,63,61,55,278,113
122,236,65,60,63,58,281,133
122,238,65,61,68,57,281,123
101,179,62,59,69,56,266,118
105,210,66,58,70,56,284,106
118,198,63,62,68,54,282,100
116,182,59,57,63,50,268,81
121,187,56,50,58,48,266,83
135,224,63,53,56,53,306,86
127,195,59,53,50,50,254,78
126,207,62,50,62,50,250,91
126,231,63,53,63,55,249,86
128,214,56,52,60,53,228,83
112,199,54,51,59,52,182,86
126,215,63,53,64,54,180,98
132,241,69,50,57,53,156,88
134,244,71,47,54,60,185,83
129,259,71,45,54,59,183,86
132,239,75,47,58,55,175,78
132,231,68,44,54,54,175,65
120,193,59,44,52,60,177,68
118,185,59,49,59,55,199,71
117,161,61,48,61,58,206,66
119,168,61,47,57,60,211,66
102,181,61,47,61,67,243,66
111,208,62,46,59,65,248,71
115,200,63,44,64,58,211,72
120,203,66,48,63,56,241,74
115,207,59,45,64,54,235,76
121,208,61,45,60,52,244,77
115,193,62,46,64,54,254,79
113,204,62,44,53,54,242,95
109,219,61,43,57,60,252,95
106,215,58,42,55,64,278,96
123,219,65,49,57,65,266,110
129,227,69,55,52,63,280,108
146,274,68,55,54,66,302,90
156,294,70,59,53,61,281,97
155,295,75,62,53,60,268,93
141,279,66,55,55,51,244,82
145,272,58,57,63,54,226,85
125,205,55,55,59,50,205,87
113,166,49,52,57,58,218,81
116,166,43,52,57,54,206,85
114,163,47,52,55,57,216,80
106,156,51,45,48,48,196,71
113,174,49,46,51,55,202,69
111,170,57,56,54,48,177,74
109,160,56,53,60,55,191,71
120,198,64,56,61,53,196,77
132,215,66,58,61,57,200,83
129,206,67,60,62,52,195,83
133,214,62,50,57,52,219,93
144,217,64,52,53,48,198,108
139,239,65,50,52,50,200,105
125,235,66,49,54,54,205,101
132,249,66,44,54,65,258,112
138,238,64,47,61,66,234,95
130,255,61,47,63,64,287,80
130,212,49,44,62,67,282,74
144,206,43,42,57,61,273,73
158,203,46,51,62,52,222,62
150,205,46,47,57,51,238,67
150,185,51,47,53,52,184,74
147,192,49,52,62,50,181,73
126,181,51,55,66,51,201,74
87,173,50,48,59,53,212,72
94,184,53,51,63,56,205,76
91,185,51,59,67,59,206,65
102,190,53,55,58,58,207,67
103,194,54,52,53,67,216,64
109,189,56,54,55,75,292,71
107,216,59,56,53,96,284,67
104,224,57,50,50,97,285,68
91,217,60,54,57,99,283,70
101,215,54,54,59,93,271,83
101,234,50,59,62,87,222,73
100,214,48,55,63,58,234,76
97,198,53,54,65,58,244,79
108,263,57,51,63,55,274,86
102,264,62,53,64,52,276,82
107,236,62,45,64,48,243,83
103,223,57,44,61,49,232,79
106,225,58,49,63,47,225,82
95,128,50,48,60,42,185,76
97,121,44,48,59,45,236,79
87,128,41,48,53,42,234,80
84,124,41,50,58,44,281,79
77,122,35,43,51,42,286,76
76,132,42,45,55,45,290,74
75,160,44,43,57,41,236,60
74,159,46,48,60,44,235,60
77,155,44,48,57,54,188,53
77,166,48,53,61,56,158,51
78,158,46,51,63,56,144,47
70,128,47,52,62,60,163,51
79,142,51,49,60,60,159,72
74,142,53,45,56,47,131,72
79,141,56,52,66,47,193,80
74,139,57,54,69,43,197,79
77,148,55,53,70,45,208,80
66,133,50,52,71,48,210,58
66,127,50,53,77,48,221,67
84,116,46,43,67,45,189,64
86,114,44,37,58,48,189,66
86,111,45,38,57,43,168,70
86,106,42,37,57,41,162,67
93,125,46,36,54,41,168,62
71,126,40,34,52,42,174,55
73,133,43,36,51,43,177,54
79,129,45,39,50,41,177,62
80,129,54,44,49,40,177,62
74,118,50,45,44,43,179,61
78,112,52,46,49,47,173,67
82,102,49,44,53,48,190,74
76,100,48,42,51,53,191,62
75,106,42,35,48,54,202,65
77,111,48,36,48,51,188,63
73,117,47,39,40,48,196,61
66,119,48,40,40,45,177,50
61,118,47,38,42,42,174,52
64,119,43,40,45,47,203,61
57,131,38,38,47,47,209,70
56,141,39,35,48,45,189,65
58,143,37,34,46,48,195,67
61,140,37,35,47,47,194,68
58,138,38,33,45,40,161,60
63,128,39,37,43,47,180,50
73,126,34,39,41,47,180,57
84,147,38,40,38,48,177,63
87,151,38,40,38,49,216,66
91,145,37,42,38,52,214,66
89,140,40,38,39,47,195,65
85,124,39,36,38,47,203,59
78,103,46,38,43,40,201,55
70,126,48,35,60,47,178,53
74,141,52,34,72,46,168,55
76,156,51,31,76,47,171,56
72,160,56,27,77,46,156,55
79,154,47,25,77,48,150,54
88,150,53,30,64,39,128,50
81,151,53,31,55,45,154,57
88,143,51,32,47,41,145,55
93,165,47,35,45,43,164,58
88,168,54,37,40,42,177,60
83,160,53,36,38,56,227,61
86,157,53,34,33,57,237,62
79,143,54,34,30,58,245,66
76,124,53,31,28,57,228,63
69,122,50,27,30,58,219,62
77,119,46,24,30,46,158,68
85,141,44,27,30,48,143,67
83,142,45,28,32,51,141,67
80,134,46,33,33,51,164,71
81,132,44,41,35,51,178,73
78,139,46,46,35,50,182,71
72,105,45,47,36,43,164,68
72,105,43,50,41,43,161,66
75,108,45,48,45,50,244,71
81,120,46,40,45,47,238,66
81,108,40,45,48,51,239,59
74,111,48,43,47,47,237,54
74,118,47,40,43,44,242,63
81,118,46,44,42,38,158,63
75,112,47,44,39,44,162,67
70,109,55,36,33,47,183,77
70,101,49,36,35,46,182,76
69,97,52,38,34,47,169,73
57,90,55,33,30,46,155,66
59,104,57,33,30,43,150,63
60,110,50,33,29,33,113,52
64,110,51,34,31,37,114,49
75,111,50,32,32,40,114,43
78,120,45,32,33,40,119,48
83,122,43,32,35,42,154,51
90,120,45,31,35,44,174,51
92,126,43,30,35,44,189,52
83,120,44,32,36,41,193,54
84,126,47,32,36,40,185,49
79,112,47,31,35,38,178,50
74,117,44,31,36,39,168,46
69,127,44,32,35,38,174,48
74,129,42,30,34,38,172,45
73,125,41,29,35,38,181,47
73,124,38,29,35,38,165,50
71,121,40,33,38,37,162,57
71,113,39,30,35,33,135,56
67,114,42,33,37,36,133,56
71,127,38,35,37,33,145,65
75,131,39,35,38,38,167,81
70,122,40,34,37,38,165,77
84,138,43,42,39,40,170,78
84,139,39,40,35,40,179,82
93,128,45,41,34,46,187,82
97,124,44,42,32,47,164,63
102,145,45,41,32,48,166,61
93,139,47,42,33,45,166,63
98,143,71,64,44,52,164,58
88,153,71,70,49,57,195,51
82,157,80,75,53,57,230,56
75,142,78,76,52,58,253,60
75,129,74,73,51,61,291,60
77,128,55,55,43,56,299,58
72,109,55,52,40,49,292,65
80,117,45,46,37,44,262,60
88,118,49,44,40,43,244,61
86,111,49,45,41,39,208,67
82,120,47,45,40,38,203,71
83,128,45,41,38,36,164,60
76,115,44,40,39,38,160,59
67,115,39,42,37,43,162,61
69,117,43,41,36,44,171,56
65,110,40,43,37,46,158,58
66,118,39,43,37,47,160,60
62,117,35,41,32,45,167,64
64,113,35,39,28,40,179,59
63,112,33,39,26,43,167,54
69,106,33,34,28,42,176,51
66,88,36,31,27,42,176,55
64,89,38,30,35,47,196,50
69,93,42,34,36,46,171,52
72,92,45,36,39,43,161,60
68,94,45,40,36,42,148,62
73,106,47,41,36,41,165,67
73,103,46,40,28,37,151,66
72,103,42,38,30,45,161,65
66,105,43,36,26,45,155,58
66,109,45,34,32,48,185,58
68,97,42,33,31,44,171,48
77,104,45,35,34,44,185,58
79,113,44,37,36,37,176,60
82,110,41,34,37,36,188,61
80,97,47,38,34,33,179,64
80,97,46,38,34,33,171,66
76,115,49,46,43,35,144,57
73,105,49,45,44,44,217,58
73,122,48,46,45,46,218,65
79,135,40,44,46,45,201,59
74,130,40,44,47,47,211,58
69,107,33,33,39,45,209,62
80,106,35,35,37,40,134,57
84,99,41,37,46,41,139,47
80,96,39,37,47,44,132,47
86,108,40,37,50,43,125,48
85,109,40,37,48,47,142,47
71,109,37,34,47,47,145,48
64,106,33,33,39,49,149,52
59,104,35,30,39,49,153,50
59,95,34,32,38,51,158,54
71,99,36,32,41,49,142,60
71,97,40,37,42,47,154,60
71,90,39,39,41,48,163,60
80,84,40,40,37,45,169,63
76,90,38,39,37,40,162,59
64,94,38,40,33,40,167,51
65,95,33,35,31,42,177,50
67,94,38,36,29,38,164,56
57,92,34,34,32,39,155,58
58,113,38,35,29,40,154,60
60,108,36,32,27,38,149,56
65,105,35,33,28,37,134,60
88,113,31,28,33,37,127,51
89,120,36,30,31,38,143,51
87,96,38,36,31,40,142,53
89,105,38,35,31,41,148,56
90,109,41,35,31,43,163,58
64,101,41,37,28,41,156,56
62,93,36,37,30,39,147,52
58,94,36,32,32,40,146,50
55,89,39,35,33,44,193,55
65,93,42,38,36,42,172,50
66,98,40,36,33,39,175,49
70,93,42,37,36,40,178,52
74,91,41,39,41,40,178,55
76,100,38,42,43,39,147,54
71,129,36,40,43,38,171,59
76,129,38,43,44,39,170,62
72,133,39,42,39,39,175,61
70,135,37,42,33,39,190,57
68,126,39,40,36,42,192,55
55,90,39,43,34,43,184,52
51,94,38,43,33,45,184,52
56,108,36,42,35,45,186,50
59,108,36,39,38,43,174,51
58,108,34,39,35,43,155,49
59,108,31,37,35,41,136,46
57,100,30,34,37,46,176,49
55,85,40,35,36,45,178,51
53,79,42,36,35,46,185,53
59,98,42,37,37,43,180,52
60,99,42,36,37,45,203,55
60,105,42,35,36,37,165,51
58,100,35,34,37,42,171,52
58,99,33,33,35,39,175,55
55,93,39,32,31,38,189,56
60,95,39,30,31,36,166,56
57,92,40,31,32,37,178,58
58,93,39,31,31,36,174,61
58,93,41,31,33,37,163,58
63,80,36,29,32,38,146,58
59,81,33,35,31,40,148,54
70,90,33,38,30,41,150,52
74,95,33,39,33,48,161,51
74,95,32,41,33,47,162,49
71,116,36,40,32,51,188,51
82,129,42,37,34,48,186,54
76,135,42,36,34,48,181,56
78,141,43,32,30,41,165,56
78,143,44,32,31,43,171,57
79,128,42,37,36,37,146,54
68,109,40,39,39,45,175,50
72,105,41,42,40,47,172,57
68,94,44,46,43,44,168,55
77,95,44,43,43,45,164,53
77,96,47,41,41,45,160,60
76,97,52,45,37,37,129,60
71,87,55,50,37,33,137,53
77,97,51,49,38,43,183,63
65,96,53,51,43,47,228,69
60,103,50,51,44,48,232,63
69,117,45,50,45,50,237,70
66,115,44,44,45,53,230,68
60,117,45,41,40,42,189,57
61,120,44,42,34,35,149,53
61,112,42,42,30,35,142,54
57,104,41,38,29,33,135,48
56,104,35,36,26,31,145,48
53,99,37,38,28,33,167,50
57,99,34,34,25,31,147,49
55,102,36,37,27,34,158,50
46,95,39,35,26,36,164,51
54,92,42,35,31,43,161,51
50,80,45,34,31,41,137,48
49,73,44,36,31,43,137,52
55,90,44,31,30,39,127,51
57,86,43,31,31,39,126,47
51,93,41,29,30,34,120,46
57,101,44,31,30,41,127,49
58,104,43,31,34,43,133,44
58,86,43,34,35,42,140,51
55,88,41,35,37,41,149,55
63,92,42,37,41,42,148,58
67,87,36,35,43,36,151,61
63,83,37,37,39,35,150,62
58,81,37,35,38,37,152,58
59,92,36,34,35,34,143,56
58,90,36,34,27,33,161,60
58,96,36,35,23,36,158,59
58,105,35,34,26,35,165,60
59,103,33,36,28,40,203,65
65,97,34,34,30,42,196,66
60,89,34,37,33,41,189,62
56,84,36,38,38,44,189,60
54,72,36,37,36,46,230,62
60,74,36,35,36,40,194,56
57,83,40,38,35,42,199,56
60,89,42,35,33,42,201,56
59,87,40,37,29,33,198,55
61,91,41,37,30,33,189,57
58,89,43,44,34,33,189,57
65,84,39,41,34,35,192,54
63,89,38,42,37,34,179,54
62,89,37,38,36,34,184,53
61,89,36,39,36,31,124,42
67,100,37,31,32,32,118,40
57,92,36,30,31,33,106,36
61,93,35,27,27,36,127,38
58,87,36,33,32,37,136,41
65,88,37,31,34,36,139,38
64,87,35,29,36,35,150,45
75,90,34,30,38,30,171,46
75,79,35,31,37,32,172,42
79,84,34,30,35,32,163,39
77,92,39,38,38,37,163,44
77,83,42,41,38,41,155,39
77,100,41,41,37,40,143,44
78,98,40,42,38,39,144,45
75,97,40,39,36,39,140,44
71,84,35,30,31,37,135,42
66,87,34,33,30,33,137,46
63,84,36,33,29,35,128,47
67,89,40,31,31,33,127,56
77,87,41,33,31,32,128,59
79,98,39,35,31,34,132,63
82,104,38,31,32,40,129,62
75,92,35,31,34,46,175,65
63,88,31,32,34,51,174,58
53,100,33,34,36,55,204,66
55,99,34,36,36,53,212,64
55,94,35,38,36,50,213,66
55,94,38,39,34,45,174,60
71,101,40,40,32,38,165,63
72,100,45,38,29,35,136,51
75,99,44,34,29,37,129,54
74,103,46,35,30,42,137,51
74,108,44,37,32,45,167,51
67,110,44,39,32,45,168,45
65,112,37,41,33,47,162,48
59,120,38,43,34,48,159,45
73,118,35,39,35,43,156,48
77,109,33,36,34,38,136,56
87,109,33,34,36,41,129,59
87,102,35,37,36,38,129,59
85,83,32,37,39,40,168,58
79,80,33,38,38,40,168,58
79,88,36,39,39,41,172,59
66,85,33,39,43,46,186,60
66,90,37,34,44,48,208,61
69,99,43,33,41,48,187,62
66,102,43,41,41,48,177,61
72,104,45,40,40,49,171,55
80,122,46,39,36,46,169,55
84,115,45,40,33,45,161,58
85,113,40,40,35,40,155,57
86,136,41,35,33,46,182,64
81,132,37,35,31,47,208,70
73,109,36,38,34,46,215,69
69,122,32,36,35,48,207,66
65,116,34,36,34,51,207,64
58,82,36,34,35,47,198,55
67,83,35,36,37,43,189,66
71,104,39,36,36,43,169,67
72,95,41,38,39,41,159,66
77,97,39,36,39,41,160,68
76,102,38,38,40,38,149,68
66,102,41,35,40,41,120,50
59,91,37,32,38,42,157,48
56,83,35,30,34,39,163,49
52,88,36,32,31,41,161,45
52,91,33,28,30,42,168,46
60,90,35,31,32,38,180,49
62,79,35,29,34,34,148,51
61,82,36,31,36,39,139,50
65,88,36,30,38,34,136,52
68,96,36,31,38,34,138,49
67,94,38,30,36,39,153,52
71,105,38,34,35,41,169,56
72,107,41,34,31,40,179,61
69,95,46,34,32,40,173,62
68,89,54,36,31,44,177,64
69,107,49,36,32,39,147,57
68,98,48,34,30,37,135,53
71,99,45,35,32,38,133,57
70,107,43,35,32,39,147,57
68,105,37,37,38,39,142,58
60,91,38,37,38,41,144,58
62,99,44,36,39,40,138,61
60,97,43,35,39,38,122,52
63,91,43,36,40,40,135,53
68,99,40,35,34,36,137,49
69,107,40,33,30,35,144,54
66,106,35,35,32,39,173,55
70,108,37,32,32,42,185,56
68,108,35,31,30,41,184,57
72,102,33,27,31,41,174,63
70,92,34,32,33,44,171,60
69,83,33,35,33,40,152,55
63,79,30,35,32,39,155,56
67,86,32,34,30,38,142,56
58,90,33,34,32,37,133,45
59,88,34,29,34,35,127,45
63,95,39,23,30,37,116,48
80,111,44,25,30,37,135,51
76,106,43,27,32,41,135,52
80,98,45,26,29,44,141,52
81,103,42,28,27,44,145,54
78,109,36,33,31,43,156,57
73,92,33,35,35,39,139,61
79,94,33,36,34,35,132,57
76,99,32,37,37,31,135,59
74,94,33,36,34,33,178,63
74,79,38,35,35,36,174,61
70,90,38,34,33,35,170,55
62,106,39,34,36,35,169,53
63,107,38,34,34,39,178,55
79,110,41,36,36,40,144,63
79,120,38,36,33,41,155,59
83,123,37,37,30,40,152,58
83,116,36,36,36,40,165,59
84,109,39,38,44,38,157,56
70,111,34,38,45,35,144,38
76,106,40,43,46,34,128,41
63,103,40,42,47,36,119,38
68,95,41,41,41,38,100,42
72,100,38,39,40,38,125,45
71,99,40,38,38,39,145,43
63,99,37,30,37,36,143,46
69,84,37,30,38,38,195,57
67,96,35,33,38,39,204,57
64,95,38,41,34,38,185,56
63,102,38,41,35,40,198,64
69,100,36,44,34,46,234,63
71,119,37,44,33,46,204,53
70,114,39,43,34,46,200,52
69,124,41,38,33,47,216,57
73,118,41,37,34,54,234,61
70,127,40,34,36,51,214,69
69,114,38,32,37,50,215,70
67,111,36,34,38,50,235,72
81,123,35,34,40,55,255,78
85,125,38,35,38,46,231,71
85,126,41,41,40,45,234,62
81,135,43,42,38,59,243,65
81,132,52,47,39,62,225,62
71,133,63,58,42,61,200,53
76,137,65,62,51,68,190,52
96,140,70,63,57,74,189,56
95,147,70,69,62,66,172,53
98,150,65,66,60,71,194,55
94,139,55,60,59,73,198,59
89,154,53,57,54,77,219,61
75,148,47,54,45,73,213,59
81,133,55,46,39,76,216,61
88,138,61,47,39,71,199,66
87,143,61,43,37,69,182,60
83,119,63,47,37,58,165,66
74,118,61,45,43,54,159,68
107,151,54,50,48,49,176,71
99,164,48,47,53,52,183,67
101,155,45,44,53,49,195,71
101,156,38,39,52,50,201,65
102,158,45,39,47,64,233,65
68,131,51,32,41,70,283,75
71,103,52,34,33,70,277,73
74,104,53,37,34,77,288,75
87,97,56,38,35,80,288,76
97,89,55,39,41,73,269,73
99,110,53,42,42,65,205,58
101,119,55,47,44,66,232,61
110,155,61,49,45,57,215,62
111,169,66,53,52,58,208,61
105,190,63,59,75,61,209,62
98,184,62,56,81,72,207,64
96,193,66,56,84,71,220,71
88,167,64,56,86,71,217,70
85,174,63,58,83,64,250,76
89,155,81,70,60,64,297,83
94,165,86,74,67,77,338,86
107,166,88,72,70,90,336,81
117,179,88,80,78,92,347,81
122,185,94,81,80,101,364,81
121,190,85,75,84,103,340,81
130,204,77,74,79,91,325,82
119,192,77,77,75,77,326,91
115,189,79,78,66,75,320,93
112,180,82,82,64,71,322,100
117,196,96,82,61,71,311,95
117,196,108,91,56,72,297,104
131,202,108,89,56,75,273,98
132,208,110,86,57,83,328,109
128,234,106,85,55,84,292,107
121,220,98,78,59,80,292,108
110,215,102,78,62,84,354,109
97,216,103,84,61,88,562,159
89,214,97,77,66,110,584,173
97,182,97,76,67,112,686,197
98,187,88,84,69,114,839,251
112,162,83,84,71,114,892,276
118,168,88,77,70,116,807,265
135,177,95,86,69,106,895,292
129,177,96,87,70,106,837,282
140,178,98,96,72,121,772,279
132,189,98,92,69,123,753,269
129,195,91,94,75,135,841,286
125,178,96,92,76,132,928,345
141,212,95,91,82,134,989,355
143,243,105,83,82,126,1057,389
155,254,105,84,86,133,1095,397
163,258,130,91,96,157,1138,420
157,265,124,95,101,152,1045,400
164,234,126,101,112,175,1132,455
174,215,125,98,123,178,1055,437
173,202,120,101,133,175,1043,441
170,181,93,97,124,158,1012,451
175,167,92,90,120,158,999,413
156,165,88,96,114,164,923,388
158,163,80,99,114,198,1076,404
160,170,79,98,100,207,1032,389
148,180,82,100,129,205,955,338
146,187,95,105,132,226,1006,349
154,197,104,94,128,211,971,305
147,182,113,94,123,180,753,229
139,179,115,100,125,168,720,211
146,174,111,99,98,157,722,206
152,173,102,94,103,172,622,205
145,176,95,93,105,184,594,191
161,209,82,85,97,188,632,208
152,198,83,81,89,188,631,213
159,221,82,82,88,186,581,215
156,223,82,88,76,151,569,198
159,217,84,95,86,158,660,216
147,179,84,101,93,170,735,207
182,194,83,99,109,216,824,220
191,155,93,100,116,240,856,222
191,189,93,94,123,246,833,207
186,197,102,90,117,246,794,190
176,202,117,89,112,245,764,186
157,203,112,86,103,214,742,195
141,212,106,80,97,188,715,187
140,193,106,80,96,208,752,185
174,201,95,81,90,190,726,191
179,216,93,88,87,171,638,191
184,222,117,91,89,179,621,249
251,233,118,90,86,183,612,254
264,237,119,100,82,158,631,267
267,239,118,95,82,149,624,269
293,252,108,83,81,154,701,318
287,239,90,80,77,153,755,302
241,243,90,91,81,169,814,348
261,234,93,85,78,158,776,347
292,244,111,98,78,180,809,382
308,235,109,101,91,184,827,361
337,237,115,104,93,172,829,358
343,253,114,92,89,165,887,396
322,247,115,86,90,167,934,399
294,236,100,79,94,179,991,417
272,216,125,74,81,172,975,410
234,216,117,82,79,174,977,406
225,197,124,100,97,165,929,347
230,213,127,113,122,185,929,373
218,253,125,121,137,162,870,314
214,257,101,133,159,163,859,333
242,261,106,132,168,176,842,328
244,241,102,120,160,178,797,303
242,233,92,114,138,161,775,272
266,178,94,101,118,153,774,279
252,228,95,102,124,152,801,305
260,239,85,103,121,129,734,307
266,250,120,123,121,119,725,305
287,251,130,122,126,123,723,298
288,254,133,124,135,121,690,292
286,203,133,112,104,119,742,272
279,190,133,104,94,129,850,285
270,184,106,104,97,132,950,343
270,187,96,101,92,123,1020,398
260,209,106,101,86,133,1004,391
263,224,106,102,120,152,949,358
240,227,110,100,130,138,840,325
255,227,102,83,129,135,770,283
225,220,99,80,129,153,744,219
217,193,91,96,127,165,850,290
208,164,92,108,91,148,811,295
212,141,91,106,68,167,903,308
226,128,90,100,65,176,869,296
228,152,90,107,68,157,785,280
207,173,81,102,67,147,719,211
212,203,88,94,68,143,725,224
212,204,84,95,74,121,673,231
166,219,81,97,75,124,740,242
161,195,80,90,70,125,736,242
205,191,79,74,70,108,656,243
198,157,71,64,70,110,685,241
194,175,70,66,66,109,610,220
203,158,76,69,65,97,566,207
204,158,91,77,66,99,598,209
168,149,89,80,67,101,652,234
171,173,89,87,65,95,660,228
186,164,100,90,64,104,693,221
188,163,102,89,62,103,724,239
179,181,113,100,63,112,708,240
201,165,121,103,58,117,757,253
197,155,130,100,61,139,825,319
177,149,123,111,61,135,871,346
171,148,122,111,61,136,840,350
181,144,115,98,62,131,863,353
155,146,114,97,63,133,848,371
179,145,105,109,69,124,787,342
202,150,116,98,79,146,787,350
216,153,124,102,81,149,857,355
227,152,127,113,75,144,894,376
237,147,123,111,73,137,868,346
225,157,122,102,69,129,934,356
235,155,118,95,58,119,896,352
223,166,110,91,51,111,882,338
206,173,94,82,56,115,879,356
185,175,92,80,55,118,877,348
188,167,87,74,53,134,853,318
144,162,81,80,57,122,930,334
145,160,83,76,56,128,864,324
160,136,78,70,52,129,803,267
176,144,85,70,52,138,897,314
170,138,93,70,51,123,826,305
172,153,94,67,46,121,749,269
167,142,93,64,62,135,748,266
173,151,98,60,63,140,760,273
171,162,104,64,63,130,632,218
179,165,100,61,61,127,619,213
180,170,97,70,63,137,623,207
170,167,99,85,52,115,590,201
151,165,96,87,50,112,669,214
134,146,92,83,48,108,620,192
116,134,86,85,62,126,642,198
144,129,83,76,59,113,610,179
151,129,100,75,60,117,628,195
146,116,109,74,58,105,534,175
159,130,113,79,61,109,583,200
158,130,115,80,50,88,552,196
135,139,119,90,50,90,556,205
134,154,104,89,43,83,545,199
146,169,93,88,43,79,466,185
161,159,80,84,43,76,406,156
163,162,76,87,42,71,370,147
160,142,70,83,41,68,288,130
157,131,64,77,41,70,302,118
146,126,60,75,41,69,300,113
118,142,69,74,40,69,330,129
121,160,71,67,43,71,372,147
116,158,62,65,42,69,411,150
114,169,68,56,47,69,451,175
129,158,74,58,49,76,468,180
125,143,65,59,50,80,478,179
117,133,63,62,48,78,439,160
117,130,73,67,53,79,402,148
112,104,71,75,50,78,372,130
100,100,72,77,49,69,370,124
99,99,77,77,44,62,343,120
98,82,75,73,42,61,350,120
93,94,68,68,38,60,371,126
103,98,62,67,40,62,401,134
91,114,66,67,41,68,402,137
103,121,74,75,43,71,405,151
104,129,78,75,44,69,394,150
110,128,77,72,49,80,408,152
112,134,81,67,50,81,353,140
120,124,82,64,51,79,348,145
107,121,70,52,53,84,335,124
114,110,66,51,53,85,346,124
123,104,71,48,52,73,295,118
120,94,67,46,51,70,350,121
127,96,57,45,53,76,376,119
128,85,68,49,49,70,409,129
116,94,73,54,51,71,411,142
113,99,80,65,48,70,404,141
108,99,84,64,48,67,357,127
88,100,84,67,42,66,329,120
120,110,73,64,44,64,294,114
134,122,75,63,46,78,292,102
125,115,71,57,45,78,297,95
132,116,80,58,47,84,286,110
132,115,79,61,49,78,258,98
106,117,94,65,52,80,264,96
97,93,87,63,50,75,324,97
99,98,84,60,52,74,329,105
99,97,76,61,56,69,327,95
98,112,85,56,54,71,398,115
102,140,79,54,51,64,377,112
93,139,80,57,53,54,346,113
104,139,79,55,49,55,360,117
112,156,74,53,40,51,355,122
122,167,69,54,38,54,293,106
113,138,58,53,37,62,344,119
126,140,63,53,33,61,329,123
128,149,62,51,36,65,345,125
120,141,66,65,38,65,355,118
118,111,79,68,43,68,423,130
125,123,77,68,41,62,378,114
115,120,76,64,40,58,356,106
105,119,77,69,40,69,365,96
101,109,77,56,44,71,355,101
93,118,73,52,40,66,255,97
86,106,78,60,48,68,259,103
88,106,75,62,48,71,285,106
82,93,72,57,46,66,251,107
86,104,75,63,42,71,287,108
88,95,69,64,43,72,307,106
88,102,73,60,40,69,306,110
87,105,78,64,43,68,286,107
94,100,82,64,46,62,275,109
88,81,78,61,48,53,228,101
90,101,77,66,51,70,313,113
92,94,68,64,48,70,305,103
102,100,71,61,53,91,450,111
100,100,67,63,52,97,462,100
98,103,71,61,53,105,481,111
96,85,64,57,56,100,443,90
108,113,62,56,57,99,446,90
106,111,52,55,56,93,368,98
102,113,51,58,56,85,351,103
104,114,48,57,54,79,355,97
100,112,46,54,47,71,325,96
107,101,61,56,54,87,341,115
101,94,58,61,50,79,315,108
95,96,62,62,51,78,302,107
97,89,64,63,52,76,277,103
112,97,66,67,55,82,305,111
101,98,55,64,47,67,286,101
103,101,60,68,42,57,224,90
114,98,59,64,40,71,282,120
111,107,52,64,39,67,277,130
99,101,55,60,37,59,270,124
96,91,54,59,37,59,276,117
96,99,51,48,40,65,347,140
98,108,51,48,37,55,330,129
95,114,83,62,36,65,343,129
104,114,82,68,38,71,339,129
102,112,88,74,41,76,356,134
101,124,95,75,41,77,308,108
97,123,98,76,41,74,311,94
99,113,73,65,42,66,288,81
87,115,75,64,35,61,278,93
95,112,73,59,32,60,271,100
91,98,65,58,33,58,281,100
90,102,65,58,40,57,263,100
102,100,66,59,43,63,273,104
108,111,61,52,45,63,266,92
96,108,56,49,44,62,299,91
95,102,53,47,43,58,268,89
88,96,45,46,42,58,275,96
92,101,52,51,37,56,293,96
84,99,60,53,36,55,296,94
96,102,61,62,40,52,253,96
96,105,59,59,40,52,258,97
102,109,62,59,35,53,257,85
89,108,56,54,36,51,246,82
96,109,45,56,36,52,270,94
88,107,42,45,30,56,287,87
91,105,51,49,34,61,313,93
91,121,50,49,34,61,297,96
92,123,55,49,34,61,294,96
89,111,56,44,33,61,286,93
85,112,60,50,37,54,252,85
87,120,63,54,35,46,218,86
90,98,64,53,34,52,259,91
85,91,60,52,35,55,254,88
81,99,58,55,37,60,241,83
80,98,52,53,40,63,246,93
83,88,44,47,37,66,265,87
73,94,48,51,43,61,220,78
80,92,47,55,43,57,205,79
92,96,64,70,41,50,242,83
90,95,65,70,38,48,248,77
82,106,68,72,42,51,225,80
83,100,68,69,36,49,224,80
77,113,73,71,37,67,278,94
77,104,62,58,38,68,249,90
77,116,63,57,38,67,233,83
78,99,63,56,36,63,266,99
85,101,56,55,38,68,285,117
91,90,56,48,36,49,231,108
83,89,63,49,39,46,243,106
95,79,66,50,41,50,272,107
97,81,63,48,42,48,239,95
95,103,64,50,41,43,220,73
95,105,65,54,43,43,227,84
98,106,62,50,45,46,204,97
85,112,60,49,42,43,199,104
88,112,59,49,39,41,199,100
97,100,60,48,40,44,223,100
98,111,53,41,39,53,236,90
93,109,49,44,33,50,230,72
96,101,46,43,31,47,204,63
89,101,45,43,33,51,235,64
73,97,46,46,32,58,234,69
67,94,49,52,30,50,211,75
68,91,47,53,34,54,210,82
74,90,46,55,34,56,222,78
75,98,45,58,38,61,225,91
80,93,40,55,36,55,215,89
81,90,37,50,38,55,219,90
94,98,42,47,39,60,270,97
87,101,41,43,44,60,275,101
86,100,45,43,41,55,250,94
86,93,46,40,40,53,265,99
89,83,47,41,42,57,288,105
77,86,42,43,37,50,243,94
83,90,45,44,32,50,260,96
82,82,40,39,29,48,267,96
79,87,41,41,30,58,268,92
72,85,36,40,29,58,246,84
72,90,35,35,31,55,239,83
75,83,33,37,32,55,210,77
91,84,36,35,32,57,207,70
88,93,37,35,33,46,185,61
91,105,41,41,38,46,219,64
96,97,45,48,43,53,250,66
96,100,45,48,42,51,268,70
82,104,43,50,44,49,264,73
85,99,44,47,42,50,263,78
87,89,41,47,41,46,234,76
83,86,40,43,34,42,226,90
82,89,53,46,35,44,226,96
87,89,59,52,36,46,221,97
95,92,60,52,39,51,230,99
94,89,60,54,38,53,239,94
92,91,63,51,38,55,257,94
87,88,55,50,39,53,242,85
83,87,56,53,43,59,265,84
87,83,70,59,45,63,303,110
88,86,71,54,44,62,301,110
90,97,72,57,45,57,271,100
92,102,73,55,45,59,288,103
98,98,69,48,37,54,293,106
91,104,64,47,35,45,263,78
86,102,64,48,34,42,282,82
97,92,60,46,33,45,286,87
102,87,58,49,36,48,264,88
102,92,68,70,40,47,236,82
100,80,64,70,40,47,207,82
117,110,64,72,39,49,221,93
113,113,65,73,38,50,232,98
110,112,70,72,38,49,230,93
114,123,57,51,36,49,263,101
112,125,53,46,35,49,263,99
92,118,51,44,37,53,264,88
90,115,52,42,37,53,251,79
94,114,48,46,34,51,255,79
110,114,56,57,41,52,251,69
108,120,66,65,40,54,292,74
111,108,68,66,43,51,254,74
118,109,66,67,45,49,268,78
113,134,65,65,46,54,296,86
87,124,61,58,41,57,280,91
94,121,50,51,41,60,277,93
93,124,48,48,39,62,279,89
97,124,47,51,41,65,279,98
96,97,55,59,38,58,241,90
97,111,55,57,42,58,233,90
115,120,56,56,44,56,206,86
121,122,61,57,44,55,212,94
106,142,70,62,44,54,224,79
111,149,69,58,45,55,249,94
115,145,66,61,53,71,284,93
89,133,75,62,51,68,273,88
92,135,75,61,50,68,268,89
103,118,72,56,49,85,340,95
102,121,68,50,49,88,334,82
113,116,86,57,39,74,307,85
140,156,79,57,43,85,376,109
140,148,80,61,49,84,385,109
137,150,85,67,53,72,345,110
133,144,84,68,57,72,381,125
128,180,69,60,57,73,382,125
103,149,76,62,53,69,351,106
92,145,73,60,52,70,372,99
92,146,69,53,49,65,338,94
108,153,77,56,49,73,314,90
109,166,81,66,53,74,342,97
117,178,72,72,57,72,334,101
121,184,72,73,52,84,360,118
117,191,77,73,49,83,355,118
108,190,68,70,49,73,366,115
102,163,61,62,46,73,338,106
108,158,63,56,43,72,371,111
133,163,63,54,45,65,340,106
132,147,55,57,51,72,401,117
135,145,68,60,47,75,392,108
133,121,87,71,48,76,424,113
128,118,94,73,48,75,402,113
106,105,95,75,48,66,380,102
110,111,95,80,46,58,345,103
122,134,85,80,46,56,383,137
131,150,73,73,48,61,359,133
125,146,68,68,48,62,371,129
124,151,66,67,49,68,395,139
137,153,69,60,45,73,426,136
138,175,86,65,45,79,444,104
126,169,85,63,38,74,450,102
128,175,87,65,40,71,422,98
122,184,88,73,39,77,450,83
115,203,85,74,44,82,413,87
98,177,79,78,47,76,368,105
101,175,87,86,50,76,365,113
102,172,83,85,47,75,376,117
101,171,86,78,44,72,368,117
133,149,85,77,43,65,385,121
130,145,84,76,42,69,424,126
130,130,82,74,45,70,424,121
132,134,84,74,48,69,413,123
134,132,80,70,52,64,375,123
96,135,90,73,50,80,378,110
97,129,88,67,48,81,324,85
106,134,86,79,50,84,330,100
103,139,86,81,52,84,324,98
114,138,88,83,51,95,333,109
114,141,77,79,48,87,368,129
117,148,87,88,55,85,368,128
117,157,92,77,55,87,399,119
125,169,93,79,53,97,416,113
117,160,94,83,54,95,430,115
112,152,98,85,61,91,386,89
115,152,92,82,68,104,386,91
114,148,83,79,69,114,351,87
111,142,83,88,83,136,418,101
116,145,90,87,86,129,404,96
115,146,96,91,89,150,472,113
104,134,100,101,84,143,462,118
105,132,103,98,81,136,477,126
107,113,100,87,75,129,465,130
116,118,100,86,72,144,493,133
121,113,96,84,65,132,459,121
139,134,86,67,66,151,503,132
137,150,83,69,70,159,525,126
144,149,88,67,65,149,483,119
129,143,93,70,66,143,470,123
135,155,90,64,66,138,448,120
130,143,94,70,70,123,401,118
126,152,104,66,70,128,409,132
117,157,99,69,71,131,523,141
124,156,89,67,68,129,512,132
117,141,89,69,66,129,513,137
112,139,98,68,58,120,498,123
125,120,88,70,51,97,444,115
114,110,92,74,50,95,341,109
112,118,92,78,50,90,320,103
106,123,109,79,50,84,302,97
113,128,97,83,49,92,338,103
102,120,107,82,50,93,340,92
101,116,106,78,45,78,276,76
114,116,103,71,49,80,301,91
122,112,83,77,51,78,300,97
114,115,81,68,54,76,281,97
110,114,71,69,54,78,303,107
118,117,76,87,52,75,303,106
102,119,78,95,50,72,285,103
101,141,80,91,47,69,262,96
106,131,88,90,39,64,295,113
105,134,86,90,39,66,271,116
104,144,78,75,38,69,283,122
114,138,78,71,39,69,280,115
118,118,76,78,45,72,312,116
124,133,64,79,48,72,275,106
127,126,61,79,49,68,276,88
129,131,59,76,53,66,304,80
121,129,56,74,55,72,309,92
111,147,63,65,51,77,322,94
94,132,71,67,49,73,317,87
100,136,71,70,47,75,330,90
98,132,71,69,47,72,283,92
101,136,82,79,46,65,294,91
101,120,75,80,46,65,259,96
107,156,73,75,45,68,268,102
95,155,69,71,44,65,263,106
98,146,70,68,41,70,285,106
94,150,63,56,43,78,274,101
100,166,67,63,51,86,291,92
117,154,65,66,53,86,273,87
128,154,78,73,57,94,308,109
130,156,86,79,58,90,297,111
149,161,90,78,58,87,298,112
144,145,92,72,50,73,298,117
137,140,97,70,47,69,308,113
127,138,93,70,50,67,259,90
120,145,106,71,53,67,284,88
104,140,104,70,51,65,298,87
109,135,105,67,53,68,271,86
95,122,100,71,55,77,285,84
92,124,116,95,55,82,318,87
92,107,98,100,55,83,289,91
84,91,97,106,58,88,279,95
74,84,93,117,65,86,272,92
77,91,97,124,63,78,276,93
91,90,72,103,61,69,232,102
91,108,85,93,55,67,238,103
110,145,82,88,48,58,239,95
110,156,82,72,39,66,251,92
110,170,77,53,38,65,249,102
113,190,80,52,40,66,274,96
137,187,68,55,42,70,282,91
118,180,65,53,46,77,308,112
124,173,64,67,51,74,331,115
130,174,64,72,53,80,349,105
125,168,61,72,49,77,331,99
98,167,62,71,48,88,385,102
105,169,59,72,45,81,351,80
104,171,68,71,40,76,329,80
101,156,62,66,36,70,289,85
105,140,64,70,40,71,315,85
107,156,61,71,42,56,258,88
112,140,66,66,42,53,265,93
112,153,62,64,44,54,260,89
125,166,64,65,46,53,271,86
125,180,70,60,44,63,288,91
126,164,77,60,42,57,271,85
120,165,74,64,41,59,261,85
128,155,70,56,40,67,305,98
108,133,71,54,39,68,313,110
109,123,67,53,35,54,271,105
105,136,61,56,37,54,273,104
103,128,61,53,35,53,284,101
98,127,70,57,35,44,244,100
96,128,73,57,34,48,276,102
83,119,72,59,37,59,302,104
90,110,80,60,36,60,298,107
100,111,77,57,38,60,330,119
92,108,66,51,35,59,326,108
99,125,63,52,35,60,301,98
97,121,61,48,43,69,307,105
94,137,48,45,46,71,319,108
96,149,52,49,47,70,282,94
105,166,51,52,49,71,288,94
108,161,53,55,52,73,279,87
116,166,56,51,46,55,232,76
124,157,67,51,42,52,210,66
126,167,68,48,45,57,218,75
119,154,68,45,46,55,209,77
121,160,66,46,44,51,193,82
117,167,64,47,42,54,214,82
108,162,55,48,45,52,205,83
102,149,56,51,45,45,179,86
107,145,57,55,43,48,177,97
101,129,56,50,44,43,188,96
101,127,62,51,45,42,171,92
96,127,62,51,47,40,176,91
98,120,64,48,42,44,200,89
87,114,63,42,41,40,202,80
90,121,62,43,38,40,188,73
89,112,54,41,43,44,200,76
106,107,52,42,43,48,199,75
99,105,49,43,42,47,187,64
108,116,52,46,42,51,187,64
105,123,50,51,44,51,227,72
104,119,54,52,40,49,252,86
99,124,56,49,36,44,253,91
94,132,57,47,38,49,251,92
106,138,60,47,39,49,255,92
104,125,63,45,42,57,237,91
110,125,62,48,42,58,199,83
101,123,61,48,41,59,206,78
114,118,61,54,49,65,244,89
96,98,54,58,52,67,240,93
105,124,53,58,51,62,242,102
103,131,53,56,49,61,235,97
104,134,53,57,50,62,278,101
93,128,59,53,42,53,252,97
92,127,62,45,35,46,244,96
88,128,62,48,40,44,230,92
80,125,59,49,41,45,248,92
81,120,57,49,42,42,207,91
82,128,53,56,41,38,189,87
94,130,60,60,41,40,196,79
107,111,57,58,45,63,276,76
117,108,60,57,46,68,304,85
123,145,61,57,46,67,293,84
130,142,58,48,47,72,333,90
132,152,54,51,51,85,356,91
126,168,53,47,43,69,301,83
121,164,49,46,41,63,255,70
115,136,46,45,40,65,260,78
107,137,50,46,40,65,223,74
100,125,51,42,37,51,187,91
92,101,63,48,39,51,182,94
98,107,65,53,40,53,186,98
108,112,69,53,42,57,223,95
113,120,70,54,42,51,207,92
107,127,67,54,42,46,211,78
108,135,59,51,41,49,237,84
94,132,60,46,41,58,254,82
87,121,55,45,41,54,217,86
82,114,48,41,39,60,226,89
97,132,47,40,43,64,222,86
101,126,46,44,43,68,225,86
113,125,51,46,42,58,202,85
113,146,56,47,41,56,201,76
115,151,55,46,44,54,199,77
109,140,58,44,38,53,236,95
103,137,58,42,38,49,247,100
119,144,57,52,40,50,256,103
119,147,52,52,44,51,270,111
121,137,52,55,42,53,291,122
126,129,49,53,45,52,263,114
128,135,55,55,42,48,227,103
102,139,47,45,43,50,225,96
100,111,47,42,37,54,242,93
88,116,56,48,37,49,216,80
78,118,57,49,34,46,216,76
89,123,52,46,38,51,231,84
95,107,53,49,37,50,237,95
110,116,57,50,38,43,213,90
113,120,55,53,44,44,204,83
114,127,60,61,44,45,219,89
100,122,60,59,40,43,212,80
95,125,61,56,39,44,198,66
76,126,60,57,38,47,190,64
79,126,58,48,29,46,200,67
86,116,51,47,33,51,206,68
88,110,52,51,32,48,202,75
95,117,53,52,34,48,215,78
92,114,50,53,33,44,222,81
88,106,50,52,35,46,216,92
90,101,48,49,28,43,190,88
93,99,47,44,30,46,196,87
93,93,42,48,39,51,206,95
97,92,42,54,44,60,224,99
95,87,37,55,45,58,223,85
113,92,40,54,55,68,243,91
110,87,39,55,54,68,235,95
110,82,40,52,47,64,225,95
107,100,47,49,46,57,216,93
110,119,59,57,46,58,222,100
91,127,60,55,38,47,207,94
93,137,58,58,39,44,199,84
97,137,58,55,40,47,228,91
102,143,61,51,39,46,205,85
99,134,51,40,40,48,191,77
95,131,50,41,37,49,193,72
97,128,55,43,40,54,228,85
97,129,55,44,38,50,191,71
95,106,52,41,41,55,221,73
97,100,52,39,38,57,284,81
105,103,54,44,40,53,293,90
106,102,52,39,38,48,266,92
94,100,52,40,40,50,269,87
98,109,50,42,37,46,252,89
100,118,47,44,41,48,243,97
89,117,44,38,43,49,236,91
96,140,42,43,42,50,243,78
103,141,44,48,42,51,299,87
100,134,44,54,42,50,309,92
107,130,47,55,40,44,263,84
106,131,47,54,43,54,265,90
104,105,48,53,42,53,257,91
97,108,45,49,45,50,180,89
92,104,42,45,47,53,183,88
85,108,41,44,46,51,184,83
86,94,39,44,40,45,172,77
80,97,39,48,43,45,190,87
83,91,40,46,41,49,222,99
90,87,40,44,38,46,203,94
83,79,40,43,38,48,205,93
76,81,39,48,40,46,200,91
68,83,36,43,40,49,195,86
65,92,35,44,40,46,175,66
58,124,37,43,39,46,194,73
82,131,36,40,39,43,189,79
95,138,38,35,37,39,192,80
100,130,46,34,34,34,184,81
103,124,45,35,31,38,210,96
109,98,43,37,33,38,196,93
95,104,48,42,39,57,219,87
88,97,49,46,38,60,224,88
99,133,43,50,41,66,255,90
100,137,43,48,40,62,215,75
99,143,46,51,38,62,216,81
100,131,44,50,31,48,196,80
98,134,45,50,34,49,191,76
81,101,48,46,35,42,142,78
87,93,48,47,36,43,142,70
85,97,49,48,41,52,216,99
88,104,49,46,42,51,229,110
93,115,53,45,39,52,236,119
104,117,54,43,37,52,246,121
99,162,57,45,45,63,306,141
98,164,58,42,48,81,360,135
104,178,68,46,52,91,377,131
107,179,72,58,53,89,382,133
111,201,86,61,57,110,523,144
134,214,97,71,60,119,500,133
159,294,124,87,65,142,586,150
168,295,125,84,66,160,684,162
177,303,125,81,71,178,758,175
177,297,119,90,68,170,680,173
162,288,118,82,64,167,716,216
151,247,114,77,59,141,646,198
138,245,112,83,58,135,707,234
133,253,113,84,57,126,689,240
153,254,119,109,71,142,741,245
162,278,119,110,72,146,740,212
188,336,101,110,81,148,775,260
198,339,97,110,84,145,733,255
192,346,90,111,86,173,721,302
174,351,85,84,75,164,722,301
173,320,86,88,76,159,735,306
134,225,85,92,78,166,780,307
116,216,95,90,75,160,697,284
140,212,97,88,69,124,723,229
141,217,99,86,76,123,717,238
135,237,95,81,80,137,748,239
153,277,98,78,84,151,656,192
162,280,92,86,85,159,675,189
208,316,108,90,97,181,665,202
225,310,113,103,97,181,638,194
224,305,110,120,98,174,568,202
217,286,115,118,102,189,647,211
218,305,125,122,110,181,640,234
170,251,111,118,106,165,589,218
153,243,132,115,105,172,608,207
173,246,133,99,101,171,619,214
190,240,133,99,91,140,500,202
192,213,121,95,82,146,452,172
188,203,123,97,76,137,454,167
194,224,86,84,74,128,393,180
189,215,94,80,73,128,354,148
170,191,95,73,63,116,348,152
191,231,106,72,64,98,363,160
190,235,103,67,67,122,356,157
190,227,102,67,73,139,397,148
186,216,93,74,74,140,442,153
181,218,87,74,77,141,463,144
161,175,94,69,76,153,499,151
149,170,95,71,73,132,486,147
150,159,96,74,63,114,472,140
147,177,96,70,61,114,437,135
151,180,84,66,56,113,424,135
136,171,76,67,52,100,359,110
139,168,75,68,55,98,340,111
128,167,75,70,60,94,293,102
108,142,74,66,58,81,281,103
103,138,76,72,56,75,272,109
130,149,62,63,53,76,313,123
144,151,70,68,54,73,320,135
138,135,66,63,50,68,327,141
137,148,68,64,51,69,314,133
136,134,65,61,53,70,302,129
108,133,67,65,51,63,276,122
90,122,61,60,46,75,391,112
84,131,65,57,43,80,411,112
89,116,60,57,41,76,424,118
84,139,59,55,40,74,430,117
85,129,54,51,42,73,414,111
84,127,56,46,37,58,289,109
90,128,59,64,39,47,251,113
113,140,65,63,38,45,214,106
126,150,79,66,40,43,172,99
129,156,78,65,37,41,167,102
136,181,87,66,40,54,265,130
134,174,90,78,40,62,290,135
123,184,90,81,38,63,311,158
120,166,81,82,37,67,347,169
121,162,85,83,43,78,367,169
115,135,76,87,41,74,323,149
116,139,77,65,39,69,353,157
135,118,80,70,45,79,386,147
145,126,78,71,44,77,360,133
139,130,75,69,39,65,341,131
142,132,71,63,40,63,334,124
160,134,60,60,49,79,315,110
142,136,49,50,45,70,263,105
143,133,49,48,48,70,256,107
142,129,57,52,50,82,284,109
144,139,60,59,51,82,286,112
139,162,67,66,45,67,236,103
137,158,72,79,50,72,238,88
144,148,78,77,48,73,250,82
149,157,77,79,48,64,263,88
158,149,78,78,47,65,253,82
145,139,82,74,44,60,251,87
142,145,81,59,39,56,243,92
115,143,75,55,39,50,251,111
118,132,73,49,37,44,216,109
112,171,73,50,47,51,243,113
111,174,64,50,49,52,258,109
117,172,70,56,54,52,279,112
119,187,68,55,53,54,313,111
119,188,70,60,57,60,318,111
103,158,70,63,49,58,328,110
126,143,70,61,46,60,304,113
127,155,66,57,42,61,321,123
127,144,69,58,43,69,296,110
129,161,72,62,39,72,296,110
128,159,68,55,38,66,268,113
108,155,71,56,41,63,274,104
96,147,70,56,43,61,231,90
111,168,67,56,43,53,196,93
104,151,59,49,43,47,194,91
112,160,66,52,44,53,211,100
114,154,59,53,47,65,225,117
118,159,60,56,46,63,220,116
113,143,58,58,48,63,232,113
131,162,60,59,56,85,287,125
130,145,50,53,55,87,283,127
131,151,67,59,53,83,319,118
129,145,67,58,53,88,329,116
143,152,70,56,52,86,326,120
123,125,70,55,40,66,271,109
124,127,74,62,42,64,268,98
127,129,66,56,40,69,219,94
128,119,62,53,38,64,210,90
115,104,59,51,41,73,269,95
128,115,57,52,41,71,282,96
127,115,59,48,40,75,290,94
120,117,57,51,41,69,284,99
117,121,56,55,42,70,302,103
122,131,61,62,39,66,279,117
108,122,68,61,44,68,304,125
101,138,61,60,45,66,300,125
109,136,59,58,42,66,306,124
114,149,60,56,41,63,282,123
104,147,59,52,41,56,273,105
112,158,59,50,37,52,222,93
122,168,71,57,40,46,237,92
126,190,72,54,44,56,284,95
131,210,77,54,45,59,323,105
141,222,75,55,46,62,313,105
135,217,70,55,45,60,325,105
137,202,59,51,40,59,312,101
132,185,55,51,35,51,273,94
124,161,46,50,34,51,227,90
121,164,51,48,34,49,221,91
126,159,54,52,34,53,213,91
116,156,54,58,32,49,197,93
112,156,57,62,32,46,175,90
114,145,61,63,37,46,187,78
107,133,60,63,34,46,226,86
109,141,61,63,32,47,259,94
113,141,62,54,36,47,258,93
106,144,66,51,39,49,281,95
108,151,63,48,37,51,286,108
119,133,65,50,38,53,267,107
121,126,67,47,41,51,230,100
116,130,63,46,39,52,258,108
117,136,61,49,38,52,249,103
120,137,59,55,38,49,271,115
101,133,52,52,43,55,288,121
93,161,45,54,45,64,289,119
98,173,57,56,44,65,266,112
104,158,54,56,43,65,303,121
95,159,66,53,40,65,281,116
103,182,68,51,34,57,261,102
101,158,73,48,34,50,266,107
99,142,70,46,36,49,268,107
92,153,69,42,36,49,219,99
96,161,62,40,37,49,229,77
82,142,62,44,36,47,221,73
82,144,55,47,39,54,242,74
79,145,53,47,38,56,240,74
87,149,55,46,40,63,264,80
86,137,52,48,44,65,258,80
99,128,53,52,46,65,247,79
104,128,53,54,45,58,218,79
102,129,56,55,49,58,248,90
114,111,54,55,50,47,218,84
121,127,60,53,49,44,202,83
112,127,65,53,46,43,211,85
117,123,69,51,47,51,232,95
128,123,68,53,47,52,220,90
113,121,71,54,47,58,245,89
113,135,70,54,45,60,275,93
126,149,66,49,45,63,285,100
119,151,64,45,41,61,276,87
112,159,61,41,36,60,259,78
113,160,63,47,32,58,256,84
104,145,56,49,36,57,259,100
111,136,57,51,37,52,244,95
109,153,57,50,39,55,234,93
115,153,58,51,41,65,262,96
114,155,51,44,43,64,243,104
122,151,66,39,40,61,203,92
115,165,70,45,43,62,202,91
128,158,67,44,40,54,202,89
120,167,68,42,37,45,190,92
144,195,69,44,40,46,201,90
149,233,55,45,39,44,197,83
142,230,52,44,39,46,196,87
145,245,53,47,40,50,202,98
150,240,52,50,42,49,206,94
139,231,50,49,40,44,194,87
130,193,53,52,40,45,192,91
126,181,49,50,38,50,202,84
119,158,57,50,39,53,209,78
122,161,58,49,36,49,182,81
111,147,62,53,38,54,205,77
110,147,65,55,38,54,200,71
117,146,66,54,39,55,212,73
109,154,62,54,41,49,204,80
111,169,64,54,41,52,226,81
128,175,66,57,54,46,204,82
137,196,61,56,57,45,209,84
138,210,66,59,55,36,193,87
140,207,64,59,55,35,191,73
144,191,59,60,58,47,185,73
134,201,60,57,47,48,181,83
123,185,62,61,47,55,237,96
119,170,61,60,48,54,237,95
125,156,60,60,47,54,237,100
118,182,67,65,46,46,248,105
134,160,63,65,43,54,261,104
129,139,61,56,43,54,221,94
135,150,56,55,44,59,239,96
128,175,59,54,44,57,235,93
124,140,55,47,41,56,210,86
106,147,52,42,39,49,194,72
113,162,54,48,39,44,196,87
117,157,52,45,35,38,173,83
117,142,53,45,38,44,171,86
142,157,50,44,40,44,156,80
164,194,58,51,51,47,179,85
172,194,59,47,50,45,166,64
163,202,60,47,52,44,163,66
177,205,60,46,53,40,155,79
166,200,62,51,54,46,167,88
146,182,60,50,45,40,146,85
155,175,69,52,42,42,168,88
164,171,71,56,41,43,188,90
153,172,72,59,36,44,188,78
151,164,69,54,32,37,190,75
159,178,77,52,34,40,205,88
136,174,64,49,34,39,182,84
136,174,67,46,34,37,164,85
136,168,67,48,37,41,196,91
128,166,79,52,41,45,227,89
109,141,72,51,42,41,214,78
115,146,72,51,41,44,219,85
116,135,68,51,42,49,239,86
117,127,68,46,40,43,213,84
109,133,61,45,35,42,188,83
115,117,57,43,32,45,217,87
117,117,69,42,33,41,215,85
110,116,69,44,31,37,214,85
105,133,68,41,30,37,220,81
115,127,62,37,33,38,219,86
110,123,64,38,32,35,196,80
128,132,54,37,36,43,212,80
123,147,50,33,35,43,208,78
118,135,50,41,37,53,214,80
127,138,53,41,35,54,213,86
126,138,54,39,37,54,232,91
109,138,64,46,36,51,221,88
107,126,67,48,36,50,197,85
109,125,67,47,36,43,221,85
100,131,76,52,36,46,221,74
119,151,75,54,35,47,207,68
111,137,68,50,37,50,233,78
122,137,70,55,39,51,234,78
123,139,71,52,37,47,208,84
119,144,57,50,41,46,206,83
114,118,57,53,42,46,202,81
115,139,53,52,37,39,164,68
104,140,48,47,37,42,211,73
98,139,59,48,37,41,204,66
90,131,63,48,30,37,189,61
71,143,62,44,28,38,186,65
61,128,60,46,34,43,200,68
55,118,57,50,35,44,170,63
53,112,54,56,35,51,176,67
58,113,54,56,39,51,172,67
65,105,56,58,42,56,175,70
71,104,58,56,45,65,174,72
75,102,62,50,44,62,162,66
76,116,56,47,44,59,165,68
81,110,52,44,43,58,175,69
88,137,49,41,38,51,161,68
86,137,46,41,31,39,173,69
104,154,47,39,33,42,194,105
109,144,38,32,32,39,190,103
101,141,39,30,32,40,183,101
103,110,39,32,35,40,186,100
116,148,40,35,38,44,186,102
103,141,45,40,38,50,247,72
118,153,52,42,38,60,262,72
120,154,50,43,36,59,262,73
111,158,50,41,34,60,267,73
112,131,52,38,32,52,249,68
113,126,47,37,33,51,204,73
99,124,42,35,33,43,177,73
101,128,54,39,35,49,199,78
101,124,51,40,39,49,192,77
93,147,54,43,37,52,196,78
96,153,55,40,36,47,185,81
94,146,55,38,36,47,193,91
98,153,44,37,36,44,186,98
97,158,49,40,32,41,212,100
108,169,52,40,36,40,210,100
105,174,48,45,34,40,183,92
110,188,53,50,38,41,211,84
112,186,53,48,35,42,207,73
111,183,49,44,38,47,198,77
109,162,44,43,37,51,206,78
108,147,51,47,36,51,203,77
99,123,63,45,32,47,194,82
91,115,74,51,38,49,226,87
93,113,78,53,35,46,221,86
80,97,83,57,34,49,237,84
84,105,82,51,34,48,238,83
99,112,70,52,35,51,228,89
99,109,61,50,35,57,253,88
95,103,57,50,35,56,239,85
102,107,52,46,34,50,225,86
98,98,49,46,36,52,234,88
84,90,48,42,33,50,223,71
89,94,48,39,30,38,147,67
92,98,47,39,29,37,155,70
102,87,54,41,32,38,169,77
109,84,52,41,29,34,159,73
115,92,51,40,32,45,195,78
111,90,50,42,30,46,200,75
109,94,53,45,33,47,193,71
99,89,42,44,30,47,179,66
87,104,41,43,32,48,179,68
83,112,46,54,35,41,186,72
84,114,51,54,36,43,186,70
85,114,66,55,33,45,190,71
67,110,77,60,36,45,182,68
67,101,78,60,35,46,189,65
71,113,78,52,34,47,149,63
79,128,74,51,34,44,157,62
78,130,67,50,35,45,155,58
78,138,53,42,35,45,167,62
80,134,52,41,39,45,175,69
73,120,51,38,35,42,168,67
60,107,48,39,35,39,152,68
58,103,45,39,40,39,156,75
60,93,45,41,41,47,179,73
59,112,46,41,39,45,175,71
71,115,48,40,38,44,174,72
73,117,48,38,38,45,182,70
75,110,45,40,33,46,186,63
75,117,45,39,31,36,156,63
69,102,44,40,31,36,157,61
58,88,41,42,34,41,169,61
59,94,47,40,37,41,175,63
59,100,43,36,35,44,195,69
57,91,43,35,34,44,200,72
62,96,45,36,35,54,217,69
64,101,46,33,31,54,216,70
74,93,42,37,31,56,239,75
73,93,48,44,33,51,221,69
76,99,49,44,33,56,260,68
78,95,50,45,35,49,244,69
74,90,48,46,38,54,273,74
66,94,52,46,36,50,252,70
76,110,46,37,39,52,248,74
76,107,45,38,39,51,219,71
81,103,42,41,38,52,218,70
89,127,50,42,35,42,186,63
97,133,47,42,38,46,174,61
91,114,48,44,33,49,193,70
91,111,45,42,30,46,178,74
83,125,46,39,28,43,175,73
74,99,40,38,29,45,155,71
80,90,41,37,27,44,189,71
80,102,39,34,31,51,216,65
86,109,41,35,32,48,209,60
87,101,40,34,32,48,213,63
89,101,38,36,33,50,237,70
76,99,39,34,34,50,267,69
77,89,41,40,38,46,235,68
70,82,38,39,39,49,260,75
66,78,41,40,37,51,262,72
68,86,42,36,37,52,274,74
70,80,48,40,39,50,218,80
65,82,49,39,40,46,222,78
61,83,49,43,42,44,215,70
68,81,47,46,43,45,205,73
72,76,46,46,41,44,183,75
66,76,43,47,37,50,215,82
69,86,45,44,30,46,227,87
76,92,57,46,26,44,208,87
74,95,60,43,26,43,209,86
64,96,60,44,27,46,217,84
64,99,57,41,30,40,189,69
63,93,54,48,30,43,166,62
59,97,47,52,32,42,162,62
59,99,47,51,30,40,161,60
63,95,45,50,32,40,155,56
67,90,43,49,29,39,166,62
71,97,42,42,27,46,227,76
77,107,39,36,26,50,251,79
78,121,45,36,29,53,265,86
81,126,51,37,29,49,247,88
76,129,51,37,31,52,238,85
69,120,50,36,32,45,216,75
75,109,50,35,33,42,223,75
93,102,45,36,34,43,212,76
88,101,45,36,35,45,218,65
90,94,47,37,35,46,243,66
92,98,47,38,36,48,225,63
88,98,44,37,34,49,199,63
64,95,45,41,33,44,196,56
73,90,42,39,32,46,215,57
76,103,46,41,33,48,209,56
81,111,48,42,32,44,199,62
76,106,48,40,33,42,220,64
84,98,46,39,36,44,214,63
78,104,46,39,37,43,195,72
92,125,49,42,37,38,173,73
90,129,49,44,36,38,168,65
94,131,49,45,37,46,151,66
91,134,46,40,35,48,159,71
95,130,43,40,34,48,173,67
82,100,34,42,37,46,179,69
81,92,38,42,40,47,174,69
81,102,45,42,39,38,155,64
80,93,51,44,39,38,146,57
75,97,51,45,37,37,129,55
75,98,51,42,32,40,186,53
74,100,51,38,29,39,199,60
74,84,43,37,29,40,212,66
72,92,35,37,29,42,219,67
71,87,42,38,29,40,224,73
71,88,54,39,31,38,179,73
73,90,55,38,29,37,166,67
69,94,56,38,30,36,147,62
69,91,58,43,31,42,278,73
69,97,57,43,34,43,300,69
65,100,48,43,39,42,307,68
63,86,45,49,38,43,311,71
59,82,44,50,38,43,314,70
58,85,47,48,38,33,200,63
57,75,43,49,36,46,196,59
53,70,43,50,29,46,184,60
51,66,47,49,31,47,182,56
76,79,52,50,32,49,180,56
81,73,47,47,34,54,193,55
85,80,44,46,32,45,164,60
87,83,46,43,34,49,179,61
87,89,43,41,36,49,187,66
69,87,37,37,34,47,182,71
70,85,39,40,35,42,174,70
66,83,41,40,35,38,157,66
69,85,37,38,36,36,153,65
72,96,35,43,37,40,187,78
80,106,39,47,38,40,194,81
76,110,39,46,35,38,186,79
82,111,46,47,39,43,192,77
82,128,51,55,40,44,182,77
84,118,51,49,36,43,153,63
76,103,48,45,35,44,147,55
74,104,50,45,36,44,148,56
68,107,43,46,39,46,166,57
65,80,35,40,36,47,179,57
61,77,40,42,36,42,158,54
60,77,41,42,35,43,155,57
64,76,44,42,33,43,161,64
74,72,43,39,33,43,139,72
71,77,46,35,32,43,180,76
68,79,42,33,33,44,184,76
67,86,43,36,33,43,188,78
64,82,40,35,32,47,215,80
56,80,42,35,30,45,219,73
63,92,45,36,31,42,184,66
63,88,46,37,30,43,189,69
69,86,48,39,31,42,184,63
75,92,49,39,32,44,249,60
70,96,49,38,29,41,247,57
69,83,49,40,26,41,239,60
73,85,50,41,30,40,243,55
73,87,47,40,29,42,249,54
68,86,46,40,28,37,178,48
73,89,48,41,29,37,204,55
69,85,48,44,35,39,206,52
65,88,51,46,33,40,199,51
62,97,48,42,36,39,225,63
80,110,52,43,40,44,209,62
79,106,50,43,40,44,172,57
79,109,44,38,39,42,181,61
90,109,40,35,38,42,196,66
91,97,41,38,38,45,189,62
71,83,41,37,34,39,184,62
86,89,46,38,34,41,190,68
89,87,48,39,31,40,180,66
85,83,47,38,33,37,159,62
82,80,46,37,33,36,157,58
88,78,41,38,32,41,162,57
70,70,35,38,30,37,178,55
69,74,36,38,32,39,179,54
60,96,38,42,33,40,200,67
62,96,44,41,33,43,186,69
57,97,44,39,35,38,184,67
60,97,45,37,34,39,160,64
56,101,43,36,32,36,150,65
56,87,43,35,33,35,127,58
60,94,40,36,31,34,143,56
55,90,42,36,32,35,134,59
54,89,48,38,34,46,153,61
57,77,48,37,36,48,170,72
62,80,45,33,33,47,171,66
63,72,48,48,39,47,150,63
64,79,49,49,37,47,168,62
66,88,45,48,37,37,163,68
63,88,46,49,38,33,162,61
56,83,47,53,40,34,156,64
50,83,46,42,40,34,147,67
58,77,45,42,38,34,141,75
55,86,42,42,35,32,150,67
59,89,40,40,34,36,156,59
59,89,42,38,33,37,160,64
68,92,38,32,27,39,184,64
67,97,36,31,29,39,175,53
66,90,37,30,30,42,167,52
66,88,40,34,29,43,173,53
66,83,37,32,28,48,179,52
61,84,46,44,29,45,190,54
62,81,51,45,28,46,187,57
62,78,54,45,29,45,179,58
65,77,54,43,29,43,167,58
69,76,53,42,27,37,171,59
70,74,49,39,30,42,238,71
66,80,43,40,31,42,252,73
66,79,43,41,30,41,255,73
63,77,40,43,30,40,247,73
65,88,45,44,34,42,269,78
74,100,45,39,32,35,210,67
87,98,45,35,32,38,202,64
91,100,43,34,32,39,205,65
95,121,44,33,36,47,237,74
91,120,40,34,34,44,204,63
75,115,38,37,34,50,209,64
65,113,38,37,35,47,215,67
62,116,37,43,36,48,226,70
53,98,35,44,34,43,200,63
54,100,38,42,34,47,204,65
56,95,35,38,34,44,198,64
51,97,32,40,34,45,197,62
49,87,34,33,35,45,203,59
54,97,36,32,33,44,196,57
57,90,36,33,35,45,201,66
85,94,36,33,36,41,177,72
90,87,44,38,36,40,198,80
90,96,45,39,35,40,174,79
88,87,44,40,38,47,183,79
88,86,45,42,34,46,199,78
65,102,51,42,36,48,200,71
59,110,46,40,37,49,164,59
59,100,44,43,38,49,176,62
62,102,45,42,34,42,200,67
60,101,45,41,36,41,177,59
65,89,45,41,33,41,184,57
63,84,49,40,30,40,188,60
63,84,49,36,30,41,183,62
57,79,47,36,32,42,181,63
59,76,45,35,33,43,200,70
50,60,37,34,35,44,186,67
48,72,38,38,34,42,191,65
49,77,37,41,35,43,217,62
58,90,46,46,39,50,247,85
58,96,48,51,39,49,233,82
61,97,48,52,37,47,233,85
62,87,46,48,38,50,242,90
67,86,45,45,36,50,236,91
60,72,39,40,33,42,192,76
56,64,37,37,31,42,194,77
50,59,39,36,34,45,227,79
57,73,40,43,35,42,216,76
52,70,39,43,34,43,203,76
60,82,36,43,32,43,186,72
63,89,37,42,31,40,192,73
67,93,39,41,33,42,220,72
59,80,35,33,32,41,233,73
62,79,36,34,32,38,229,72
57,66,38,38,37,36,235,64
56,75,48,36,39,37,241,76
53,74,44,37,34,37,189,76
54,78,45,38,36,40,189,79
52,78,47,37,36,46,199,82
49,80,48,37,33,47,208,81
55,72,39,38,34,47,201,67
55,72,40,38,34,42,217,73
57,76,47,38,36,40,225,70
56,82,46,43,37,34,210,70
57,88,43,40,39,36,220,73
53,99,50,44,40,44,241,76
57,105,51,44,40,45,222,69
54,106,45,44,38,47,245,66
55,103,47,40,35,46,242,60
63,97,48,43,33,48,218,57
64,85,39,38,33,44,194,62
63,88,43,39,36,45,196,66
68,88,46,38,36,48,155,63
67,92,46,42,40,55,184,69
73,104,45,41,41,52,186,69
81,110,48,44,45,52,200,65
82,107,45,43,42,52,200,62
85,104,44,43,39,46,177,62
85,99,43,39,35,38,147,57
80,95,44,36,37,40,170,75
73,109,42,33,38,37,164,71
72,107,44,32,42,36,161,67
68,108,40,41,46,40,172,75
65,107,37,39,49,41,200,80
61,101,37,41,46,46,202,73
57,81,36,39,40,47,186,72
50,74,32,38,36,50,213,73
53,73,32,32,34,52,216,74
56,77,36,35,34,61,230,74
55,85,34,37,36,55,221,70
52,91,39,38,37,53,213,71
60,99,41,39,38,49,214,72
55,96,39,36,38,47,206,65
77,101,41,33,37,34,181,63
72,92,42,29,36,36,192,62
76,78,38,31,35,37,193,59
72,70,38,31,33,37,152,54
73,77,45,30,33,37,197,56
62,85,42,34,31,37,202,59
63,85,44,33,31,38,181,56
60,88,49,33,34,37,189,60
65,93,48,40,37,39,209,65
67,86,43,46,41,39,183,69
59,72,43,48,44,41,182,88
67,86,43,52,47,43,182,90
71,95,37,50,44,43,173,88
69,88,36,46,42,39,173,90
72,88,37,43,39,44,161,84
77,88,36,37,33,43,174,70
73,76,35,41,34,39,184,76
69,56,37,42,35,41,204,79
67,60,38,42,36,45,206,72
61,74,39,41,38,36,220,76
62,74,40,46,38,36,199,65
61,81,42,39,35,43,200,55
68,81,45,42,34,46,192,53
65,81,48,46,35,44,180,51
70,75,47,44,32,51,179,54
64,77,45,42,34,51,169,56
64,67,43,42,34,49,177,55
60,66,36,40,36,50,165,57
61,71,31,35,35,53,167,59
56,64,32,40,35,50,143,50
55,71,35,42,33,50,165,52
50,68,35,40,33,50,176,57
52,75,38,41,31,46,188,60
56,71,38,40,29,41,178,64
54,70,43,36,29,39,180,69
50,76,48,35,29,41,163,65
52,78,48,39,31,38,174,84
66,78,48,39,32,38,183,82
66,83,51,43,35,42,190,81
66,88,49,44,41,40,197,80
71,83,45,42,43,44,211,79
77,86,45,41,43,45,232,55
71,84,42,38,43,47,233,66
71,85,39,35,41,45,232,66
79,100,37,33,35,47,232,70
79,97,36,35,32,42,230,70
72,97,35,33,27,38,202,73
73,97,36,39,28,36,186,68
72,107,36,41,29,43,192,75
72,96,34,42,28,43,218,84
74,102,36,43,31,44,207,84
81,107,38,46,38,46,184,81
78,116,39,46,39,49,212,78
76,101,46,47,41,48,240,74
66,95,49,56,44,46,224,62
63,96,47,59,44,47,235,59
56,95,48,58,41,48,238,67
62,88,50,55,38,42,220,72
64,87,43,51,36,37,197,75
66,91,41,41,36,36,177,69
66,83,41,35,34,36,174,71
65,77,45,39,36,40,184,68
59,74,42,41,39,56,199,59
58,81,42,42,40,58,197,50
57,83,43,41,39,60,215,54
57,85,42,39,38,59,204,52
66,104,36,39,38,57,197,54
67,100,40,43,38,46,177,63
72,94,44,42,38,42,182,62
79,93,44,43,35,38,190,65
77,94,47,44,35,39,200,69
75,73,50,41,34,38,212,66
73,73,47,39,32,37,199,64
69,71,46,44,36,40,177,67
64,73,45,44,37,45,183,64
73,88,41,49,44,48,197,66
66,92,36,47,48,46,180,65
63,94,39,51,57,48,188,69
61,98,37,52,56,47,191,66
63,93,37,54,55,43,162,65
55,86,42,52,51,44,218,65
54,81,41,53,46,47,234,75
56,85,38,47,34,45,238,68
54,78,36,41,30,46,250,72
51,82,41,43,31,47,259,74
51,76,37,39,31,44,215,68
52,92,40,39,27,40,197,64
52,86,39,42,26,35,185,62
52,87,40,42,27,35,178,58
49,91,38,44,30,36,174,57
64,90,39,43,31,37,183,67
78,83,37,43,37,45,220,72
80,111,39,43,41,49,232,72
78,110,41,43,41,51,233,72
83,107,45,37,39,50,258,85
78,101,42,39,38,50,263,82
82,111,50,45,40,45,245,78
80,102,49,42,39,43,247,77
85,109,48,42,43,43,260,80
81,111,44,41,48,44,234,75
87,127,47,42,50,45,206,80
71,128,41,38,47,47,221,79
92,136,46,43,46,47,243,88
114,159,49,49,42,50,226,93
115,157,46,47,38,48,220,86
116,147,51,52,39,52,236,80
121,143,51,54,37,54,270,101
117,129,58,57,39,65,281,101
101,102,66,54,38,71,319,98
105,110,71,69,43,73,348,119
99,112,73,68,50,74,343,119
103,130,73,69,52,73,307,106
106,160,80,71,52,65,306,108
107,175,72,72,63,73,353,126
115,175,82,65,61,86,408,124
115,174,87,65,54,95,455,131
126,155,90,63,53,106,552,157
122,141,89,62,55,110,547,164
123,139,106,81,50,105,514,152
130,161,104,85,53,109,487,147
130,168,100,85,52,99,455,143
126,176,98,89,56,88,349,107
120,169,91,89,57,89,352,98
132,166,75,71,52,83,367,101
124,139,68,62,48,64,351,88
129,133,64,59,53,80,378,104
123,127,69,53,54,78,373,111
123,123,65,45,50,71,357,108
109,110,58,46,54,72,330,110
108,107,60,44,51,74,312,109
112,124,59,46,47,57,277,95
104,124,53,43,39,53,257,87
101,118,51,50,37,56,275,85
103,114,55,53,31,50,259,82
88,119,62,61,33,53,266,87
82,103,58,64,32,51,263,88
77,91,63,64,34,59,294,85
93,92,64,60,39,65,291,84
88,97,64,58,40,64,301,85
92,101,54,51,44,64,320,104
88,105,53,45,44,62,302,100
101,112,49,47,50,58,271,103
89,116,59,51,47,47,251,102
102,136,59,56,46,48,246,95
105,128,59,57,47,47,194,76
100,125,60,57,49,47,181,75
97,123,58,57,43,55,201,75
102,118,47,58,49,66,202,87
89,85,47,55,48,64,205,95
85,94,52,58,47,71,235,90
86,92,51,63,48,69,246,99
90,89,51,60,48,65,242,96
90,87,50,56,42,53,237,86
93,113,45,59,46,62,228,76
97,111,40,55,45,50,194,75
98,108,41,52,44,57,194,72
96,128,52,62,46,54,180,72
96,128,50,63,46,57,204,78
96,104,51,57,44,55,241,80
106,113,50,58,45,55,264,83
108,130,53,60,45,54,304,79
99,113,47,54,43,61,343,87
92,119,59,52,43,64,360,85
86,123,57,53,42,61,338,83
74,120,58,59,40,68,365,89
78,135,55,56,37,68,364,92
87,139,51,53,36,63,332,86
87,141,41,51,36,60,313,81
95,150,48,56,35,61,310,87
91,141,47,49,34,52,255,84
95,122,49,49,37,54,247,90
90,118,49,51,38,53,230,89
86,107,48,54,38,57,206,89
91,91,47,48,38,52,199,86
88,94,49,47,39,57,226,84
86,97,46,46,38,57,185,70
93,95,44,45,37,57,205,71
105,112,46,42,37,56,219,72
91,113,56,45,36,57,234,67
102,123,56,44,35,56,210,62
102,126,59,54,37,52,234,69
101,138,61,56,39,54,249,77
97,134,64,68,39,49,253,82
103,134,53,67,39,52,278,85
97,126,51,67,41,48,275,82
105,107,49,63,46,45,269,87
100,97,48,62,46,48,251,79
97,93,43,48,45,52,248,73
99,104,43,48,44,48,220,72
115,110,47,49,42,52,239,82
111,122,48,43,32,52,228,75
114,114,47,43,33,53,231,78
113,112,45,46,37,49,221,84
109,103,45,48,38,50,215,81
92,99,40,46,37,44,255,88
80,90,35,45,39,51,248,93
80,94,39,46,39,44,246,95
76,104,40,42,37,46,240,93
78,108,38,38,39,45,231,91
73,114,42,42,39,56,208,86
81,109,50,48,40,55,212,76
84,111,48,44,36,54,198,70
94,105,50,46,35,53,212,68
99,110,55,52,35,55,229,73
98,97,54,51,34,45,227,69
94,100,49,45,30,38,217,69
87,110,49,45,33,42,219,73
88,112,49,43,35,47,238,80
81,103,55,45,42,55,245,79
90,108,53,45,44,60,255,78
93,114,55,48,46,64,286,88
96,109,54,48,44,62,292,95
90,103,54,52,44,57,269,88
88,97,44,46,36,46,245,86
82,103,45,48,37,50,250,85
74,118,46,51,38,47,214,77
75,110,48,52,38,51,243,75
85,119,48,48,40,51,263,76
83,121,44,50,39,53,275,78
88,110,46,48,35,41,235,72
88,91,43,45,33,42,233,73
95,97,39,42,32,40,203,71
84,87,47,49,29,39,189,73
86,89,56,52,30,37,181,74
95,94,58,52,31,37,174,77
98,93,57,49,28,36,180,74
90,99,59,53,30,37,180,66
99,105,52,45,31,38,169,61
101,106,45,42,32,36,169,58
87,104,51,41,31,42,191,51
85,101,56,43,34,46,195,63
82,94,55,40,32,41,175,61
67,87,56,39,31,40,189,60
60,85,55,37,29,42,183,65
60,86,46,37,30,38,181,66
59,85,43,37,32,38,184,55
55,83,41,38,34,42,207,58
54,80,39,37,33,43,191,57
57,93,38,37,33,45,192,51
59,92,38,37,33,53,210,67
53,96,40,37,30,56,229,71
53,92,38,38,32,52,218,68
57,102,44,40,31,51,221,70
56,90,47,40,32,48,231,73
50,96,47,40,32,49,242,77
57,88,43,38,33,45,219,89
62,91,57,52,36,45,214,90
64,83,56,54,39,49,237,90
61,85,53,55,39,54,257,95
64,86,54,54,40,51,228,89
65,89,56,54,41,49,234,71
69,100,43,47,40,51,239,70
70,99,43,44,40,50,251,71
72,98,43,43,42,53,238,63
70,92,41,44,41,53,273,68
72,95,40,44,39,53,288,76
66,79,38,39,37,56,315,81
62,77,35,41,34,54,293,87
60,76,34,44,31,50,284,89
66,96,36,44,34,51,265,85
63,92,44,50,35,55,259,82
64,103,50,52,35,54,233,78
63,104,51,52,37,55,229,72
76,118,50,50,41,55,225,73
81,106,53,50,41,58,207,65
93,116,46,42,42,61,220,74
93,105,40,40,42,60,217,78
94,102,39,39,42,60,216,77
84,88,39,39,39,62,240,78
76,82,38,37,36,55,237,82
65,77,40,38,34,51,262,82
71,81,43,37,33,53,289,80
84,95,45,37,38,58,329,93
86,97,47,37,38,57,320,91
94,95,42,38,37,59,321,88
91,91,42,38,39,55,281,79
87,111,41,37,43,60,310,91
78,115,41,38,39,55,268,74
83,115,40,41,39,53,254,73
85,120,42,42,44,56,307,79
80,123,42,43,41,56,309,80
76,109,43,45,40,49,256,65
69,99,46,41,40,49,288,71
59,94,45,37,38,48,290,70
42,89,44,35,32,41,223,61
42,83,42,33,32,40,211,59
38,73,39,30,30,36,199,56
49,70,34,32,35,47,226,60
52,70,33,35,35,47,231,57
53,86,36,36,37,47,231,61
53,92,36,36,37,51,245,67
59,104,36,36,39,53,249,67
54,103,38,39,34,44,192,63
58,103,44,41,35,45,190,67
73,97,47,53,38,42,216,70
83,101,55,57,41,47,226,73
82,92,55,57,40,48,247,81
88,89,52,53,42,47,258,86
90,106,48,52,40,45,253,85
86,106,46,41,37,47,254,87
80,99,38,37,33,45,241,84
95,129,44,42,37,53,232,77
92,137,47,42,34,56,224,71
92,131,47,38,35,58,222,71
83,128,45,34,39,58,213,66
79,127,46,36,42,53,202,59
76,130,47,28,38,48,183,58
88,126,45,32,40,46,212,75
99,128,46,34,43,46,235,81
102,135,46,41,40,45,214,80
106,134,46,41,40,46,225,85
96,106,42,43,41,47,245,93
90,104,46,46,45,54,227,88
77,108,48,45,41,54,201,86
77,119,52,44,40,54,208,86
77,126,52,47,38,52,204,82
77,123,47,49,41,54,201,79
73,126,43,45,37,46,175,73
76,115,41,45,40,48,199,80
71,93,38,41,42,47,197,79
69,93,39,38,43,47,196,81
75,104,41,41,41,40,169,72
77,99,41,41,41,42,188,68
73,112,40,41,43,50,217,72
72,111,39,42,42,56,225,75
77,110,40,40,43,57,216,77
93,96,39,36,41,54,214,82
99,99,39,37,38,54,208,84
98,98,46,38,32,46,166,73
108,108,46,38,31,41,216,88
111,118,48,40,28,38,218,83
97,121,54,39,30,43,226,80
90,118,57,40,32,43,237,77
92,111,55,41,31,45,250,81
88,122,54,42,31,49,201,63
82,112,51,41,33,55,212,65
75,110,44,40,33,54,215,66
70,113,44,40,35,54,193,68
70,123,40,38,38,53,167,62
74,101,41,36,40,54,199,63
78,97,39,32,39,51,179,61
86,98,39,33,38,50,206,83
88,102,36,32,35,49,203,79
84,88,38,32,32,46,211,80
80,88,38,35,32,38,199,82
77,89,40,38,32,37,235,89
73,134,43,39,34,39,204,67
82,128,41,38,36,37,210,71
91,132,42,38,36,41,205,74
90,138,43,38,36,44,191,68
93,134,44,40,38,41,151,65
96,102,43,44,35,42,180,75
96,113,46,45,33,50,195,74
89,108,45,47,35,51,221,69
93,99,41,46,36,50,226,69
88,104,40,44,35,50,225,62
95,97,42,39,35,47,202,49
89,82,40,38,35,40,178,51
89,75,39,34,31,34,153,58
85,83,40,32,28,33,136,58
108,76,40,33,29,35,155,68
97,72,37,37,32,39,167,68
95,94,35,38,33,38,172,69
97,103,38,37,34,39,179,74
105,113,37,38,33,40,188,71
79,111,43,34,31,40,179,61
77,109,45,33,31,40,174,63
79,101,50,35,29,38,166,56
79,112,48,37,28,37,155,41
67,96,49,40,31,42,157,45
74,102,48,42,32,45,158,44
80,117,46,39,29,47,154,44
78,109,42,40,31,49,176,59
73,89,41,40,32,53,201,63
77,113,43,41,34,51,208,70
82,120,43,43,32,48,215,71
84,119,46,48,37,47,220,77
103,141,48,48,38,44,212,70
110,141,52,49,37,39,196,72
109,127,57,47,36,41,184,66
105,139,55,44,41,42,181,67
121,129,52,41,37,39,174,68
106,111,52,38,35,41,198,63
111,114,52,39,37,47,189,62
115,110,43,38,35,44,182,61
112,88,42,41,30,47,191,66
103,109,46,40,34,50,230,69
113,122,45,38,34,49,217,71
110,124,43,37,30,43,217,66
118,136,45,44,29,43,221,66
150,135,46,44,33,39,212,76
149,130,47,48,37,42,210,89
188,116,45,50,38,44,228,92
201,116,46,52,39,46,238,100
198,121,46,46,40,43,234,102
181,122,44,43,38,44,235,94
181,115,40,42,34,38,200,76
137,115,44,42,34,35,186,78
113,116,44,41,34,34,193,77
108,124,54,49,33,36,198,75
96,117,54,50,33,36,189,78
87,114,54,48,33,36,209,84
86,117,50,46,30,35,200,77
86,121,50,45,32,40,183,71
98,98,39,34,32,38,171,71
129,106,44,38,37,36,168,67
128,103,45,39,36,36,144,53
131,113,46,41,38,39,133,51
133,105,45,42,38,42,202,71
144,122,45,44,40,46,222,76
119,122,44,40,36,44,230,75
119,129,43,40,38,45,225,76
121,116,42,42,39,47,222,76
123,113,45,45,38,39,154,63
97,92,43,42,35,35,126,65
133,93,42,41,33,37,122,72
140,85,40,40,33,35,144,78
135,103,44,38,33,32,153,82
162,108,42,40,38,34,157,85
161,114,43,47,42,42,175,80
143,115,45,52,50,42,213,88
151,123,45,52,50,42,203,87
156,116,42,54,49,43,197,84
140,114,40,49,45,45,197,82
142,105,47,44,42,40,208,90
133,106,51,45,35,40,182,75
117,116,51,44,32,41,178,68
114,112,52,46,34,41,186,74
123,118,56,48,33,42,190,72
128,135,49,49,34,40,159,66
131,134,42,43,31,40,157,85
131,127,45,43,32,38,161,92
134,124,44,41,30,35,173,90
108,119,41,38,32,32,169,86
113,108,40,36,30,35,175,78
113,106,45,37,31,33,160,69
115,106,46,37,31,33,170,64
111,102,45,33,29,32,147,61
111,101,47,35,31,32,146,68
105,99,49,35,30,33,157,72
104,116,45,33,30,33,165,74
113,107,41,34,32,39,187,80
109,117,44,37,34,41,191,82
110,119,42,41,33,41,181,76
111,115,42,42,32,38,176,72
103,109,48,48,33,45,223,70
109,123,48,47,31,44,211,67
115,116,47,44,30,45,215,66
115,111,48,41,29,47,218,66
109,114,49,42,32,47,226,69
112,106,48,39,31,47,214,72
95,99,47,40,33,47,198,67
85,99,43,44,34,48,209,73
97,104,51,45,32,52,226,85
101,115,51,45,30,55,209,85
99,111,50,46,31,52,162,73
97,111,52,46,28,49,165,70
105,135,55,46,30,49,177,73
92,135,49,42,32,42,164,60
112,123,43,38,31,39,166,59
115,128,46,36,31,39,177,70
115,128,42,36,33,43,187,73
115,107,45,38,32,46,182,83
120,107,48,42,29,46,183,83
110,108,49,43,28,46,189,82
111,103,42,41,28,46,200,84
111,103,47,46,28,44,207,91
113,109,47,44,27,36,180,73
116,116,47,40,27,40,184,79
116,116,50,39,28,45,197,82
118,110,53,38,28,43,177,72
118,102,50,31,26,40,161,65
110,95,46,26,27,44,168,66
127,115,46,35,29,41,160,56
120,111,51,40,29,35,150,58
117,123,53,46,29,35,164,66
126,128,60,48,29,34,159,65
132,147,62,50,30,35,171,66
107,139,60,46,28,33,162,67
102,137,55,41,27,33,150,66
107,130,53,37,27,34,132,55
98,137,46,37,27,36,129,52
95,112,44,39,27,33,112,54
97,95,41,38,27,35,130,58
104,95,40,37,30,35,125,53
94,99,42,37,29,38,132,54
98,100,43,37,33,39,140,59
106,100,43,35,32,41,138,60
103,104,44,35,33,38,127,60
98,105,43,35,30,43,144,56
102,110,40,34,33,47,181,65
100,98,34,33,31,45,180,59
89,111,32,30,29,45,187,62
83,106,29,31,30,47,184,61
85,109,36,38,30,44,189,68
102,101,37,37,29,38,151,59
99,98,38,37,27,41,145,61
94,78,40,41,28,39,137,55
96,79,40,42,27,40,141,54
94,74,41,39,28,39,115,54
77,78,41,41,27,39,146,55
74,76,46,43,29,39,175,61
70,81,43,41,32,45,219,79
75,82,45,41,30,43,223,80
71,88,42,42,33,46,225,77
76,82,43,41,32,44,200,78
81,87,38,36,33,47,212,76
97,98,40,39,31,44,191,66
94,135,41,43,33,44,185,65
95,131,44,45,29,40,188,65
84,138,43,45,28,41,223,71
90,139,42,45,29,47,216,74
81,130,42,42,31,43,191,65
80,89,41,37,31,44,203,71
84,115,36,36,33,46,205,74
88,114,37,34,33,43,176,65
87,123,38,35,31,39,158,66
79,128,37,39,30,40,162,64
81,136,42,40,31,43,155,60
82,160,44,39,29,40,153,56
77,155,43,42,32,42,162,63
66,145,43,42,32,42,153,55
79,153,46,43,34,44,177,63
89,147,41,41,32,45,173,66
98,119,40,40,33,46,182,77
95,125,40,40,34,44,167,76
99,135,43,41,34,40,181,83
94,118,41,40,32,37,186,81
87,118,39,39,34,33,202,84
71,102,39,43,34,33,190,74
79,100,45,40,33,35,219,81
80,86,42,40,32,33,208,75
83,91,42,39,30,36,213,85
80,107,41,39,31,39,219,79
80,105,42,33,31,39,219,79
77,104,37,33,29,38,189,72
94,104,38,37,31,37,179,71
92,102,37,35,30,38,160,69
90,93,39,34,31,36,144,73
99,98,38,34,33,39,167,75
107,118,39,38,38,43,192,86
93,133,40,37,39,46,200,96
90,136,44,41,44,44,188,90
90,131,45,44,42,46,190,90
79,123,43,45,42,44,172,88
83,125,40,42,39,39,167,79
87,112,35,39,39,38,170,71
95,109,29,37,37,39,165,69
102,114,32,37,38,39,156,71
100,122,36,36,36,38,157,71
93,107,36,34,33,38,139,69
89,115,39,34,31,43,152,63
80,114,42,31,27,41,156,78
72,108,41,30,25,39,160,73
78,104,40,31,23,38,155,72
73,104,45,34,24,38,167,72
67,96,42,34,24,34,147,71
66,104,39,35,33,32,150,54
65,107,37,32,34,31,151,57
62,110,39,33,36,34,164,61
74,111,38,32,39,35,160,58
78,109,42,34,40,31,150,57
78,108,43,34,34,35,132,55
77,110,45,34,37,35,125,47
80,117,39,32,36,35,114,41
71,114,45,33,37,35,111,46
75,124,48,40,37,36,141,55
73,117,50,39,36,34,158,59
76,115,49,40,33,35,164,66
72,95,50,41,31,42,189,83
65,90,45,40,28,41,180,81
59,84,37,32,27,40,164,76
63,95,35,33,28,39,158,74
73,94,33,43,32,50,214,80
72,93,35,44,34,44,196,65
76,89,32,44,31,43,197,63
79,95,35,45,32,44,216,71
82,94,37,44,34,48,230,74
73,96,37,33,33,41,185,68
75,98,37,32,32,44,188,70
83,104,40,31,35,44,186,74
86,114,38,31,35,44,161,67
86,108,38,32,32,45,181,73
86,104,39,31,30,41,197,91
84,109,36,29,29,37,194,86
75,115,32,29,28,40,205,87
65,96,33,30,27,40,207,92
61,96,30,29,27,36,183,84
62,108,33,29,27,36,146,60
60,105,36,30,27,36,135,63
57,108,36,32,25,33,122,58
58,116,36,33,25,33,132,57
67,133,39,34,23,31,131,60
63,125,37,36,26,29,134,65
68,124,35,35,24,31,156,68
65,111,34,33,25,33,161,69
64,103,36,30,22,36,168,65
70,83,39,29,24,34,155,61
68,84,40,31,21,40,158,50
64,84,39,33,23,38,155,47
68,94,42,35,27,41,150,48
79,91,40,34,27,39,149,46
62,87,33,34,27,37,143,46
66,90,33,30,29,34,142,49
64,87,33,28,29,35,140,60
61,80,34,26,25,29,137,61
53,73,33,30,25,31,136,67
60,75,32,34,27,36,141,66
62,68,35,35,28,35,133,66
61,73,35,35,26,35,119,54
61,68,32,37,26,38,124,54
57,78,35,36,27,35,101,44
53,74,36,33,27,32,146,59
59,79,33,34,24,36,170,59
63,111,39,39,29,34,166,58
64,113,41,40,32,39,170,59
62,109,40,38,32,39,177,64
57,114,41,36,31,39,151,51
46,113,43,35,33,36,152,58
57,78,37,29,30,39,163,65
59,78,36,30,29,31,156,68
58,77,36,31,31,37,158,63
58,65,38,33,31,40,171,64
59,58,36,35,30,43,158,61
46,68,38,37,30,42,155,55
47,76,39,34,28,41,152,49
60,86,40,38,25,46,190,59
61,90,37,37,24,44,186,61
57,89,40,38,28,43,190,64
58,95,42,40,30,43,185,62
60,85,40,39,31,44,196,66
51,77,45,38,31,38,168,59
53,79,47,37,32,37,157,54
56,82,46,34,28,36,167,51
62,81,41,28,25,32,169,52
58,111,41,25,24,32,179,59
70,146,42,25,30,28,163,58
71,160,50,32,32,28,164,62
84,177,51,33,34,29,184,68
83,184,50,34,34,31,200,70
90,169,52,37,36,34,208,65
105,144,49,38,33,37,206,63
109,142,42,39,32,36,208,60
99,122,44,40,32,36,170,55
113,117,49,41,34,42,164,55
109,114,47,41,35,40,155,67
103,116,44,38,34,38,161,76
97,107,45,36,33,42,160,80
103,114,42,35,33,40,162,78
85,102,40,34,30,32,153,76
84,101,42,34,27,31,134,67
67,108,41,35,30,37,135,59
72,116,39,32,29,32,126,66
75,113,37,32,28,33,137,66
77,116,40,34,29,34,139,66
77,129,49,44,32,37,152,60
72,136,51,45,30,30,152,61
73,124,51,46,33,34,148,54
66,117,52,47,34,40,163,55
62,114,55,53,37,48,210,65
70,126,48,46,35,46,200,69
78,123,49,45,37,48,201,68
79,131,50,44,36,44,205,65
74,132,51,44,34,42,205,65
78,131,45,34,30,37,172,61
69,106,44,33,31,37,168,62
59,97,43,32,28,36,158,60
59,95,47,34,26,38,152,59
65,102,47,34,30,33,130,54
62,104,45,36,33,27,92,46
64,121,48,32,34,27,100,42
79,131,49,37,33,28,128,59
73,123,45,36,36,27,136,61
68,116,46,35,34,28,135,61
66,124,47,36,33,30,162,65
72,117,42,37,31,32,156,65
62,94,40,33,31,30,136,58
63,90,37,34,29,30,133,54
64,98,38,34,27,33,178,70
65,89,39,37,31,34,169,68
65,75,39,35,35,32,175,67
59,90,38,33,35,35,181,62
56,92,40,33,35,35,178,63
58,91,35,33,34,32,125,43
61,89,38,30,32,34,122,46
59,90,42,33,31,36,117,53
59,83,43,32,32,38,149,57
58,90,41,30,33,40,162,59
54,85,43,29,33,40,165,60
50,89,42,31,31,37,155,57
41,87,41,32,28,36,152,49
53,91,43,34,31,32,122,49
62,87,45,34,33,38,154,53
70,97,44,40,36,39,166,58
72,106,44,47,36,41,213,71
74,108,47,49,35,43,223,73
65,97,45,48,38,47,222,71
65,97,43,51,38,42,191,67
58,90,44,47,36,42,181,62
54,73,42,37,39,39,119,49
52,75,41,34,39,42,135,61
47,82,43,39,37,41,133,63
38,77,46,38,35,37,139,62
43,84,46,39,36,41,160,66
52,88,45,37,32,40,168,66
53,119,43,34,29,35,142,51
56,116,38,29,26,31,141,47
56,117,37,26,26,31,149,50
55,114,36,29,33,30,176,58
50,120,38,32,33,33,169,56
56,85,35,32,36,36,170,59
55,81,37,31,36,37,168,57
54,79,33,31,35,36,179,54
54,89,33,30,30,41,164,47
56,73,33,28,32,37,162,47
50,72,37,31,32,34,159,43
49,72,35,33,33,38,188,44
62,86,43,37,36,44,178,45
62,80,42,37,35,39,147,41
61,90,44,39,34,40,155,45
63,99,44,39,33,39,193,51
65,98,46,41,33,38,234,74
56,94,41,36,32,33,229,76
54,92,40,34,33,35,236,76
54,84,40,38,33,36,232,78
51,75,41,41,31,40,223,76
57,100,48,41,31,37,161,52
52,95,47,43,30,38,166,45
51,91,46,43,28,37,172,46
49,88,43,38,28,38,183,47
50,88,39,31,29,37,175,49
44,83,33,31,29,41,173,52
47,86,33,32,35,41,166,54
46,94,34,35,39,40,153,52
50,97,36,35,40,39,136,45
57,99,39,37,41,38,148,51
61,83,42,35,41,38,178,58
58,84,44,35,36,39,191,59
60,86,46,32,32,40,201,64
55,83,46,35,31,38,207,66
50,80,42,33,29,34,210,63
50,83,36,33,29,34,180,57
51,82,35,34,30,30,162,54
50,78,37,33,30,33,159,57
53,78,39,31,30,37,175,57
52,81,39,33,30,41,166,59
58,78,42,32,31,40,169,60
61,79,41,28,29,41,188,60
60,72,36,28,29,36,179,52
58,73,37,30,33,35,168,49
59,70,37,32,37,33,152,42
52,71,36,32,36,35,165,39
48,70,37,33,36,33,155,39
49,82,41,37,38,39,176,45
57,83,38,35,35,37,171,52
57,82,40,34,33,41,208,57
66,80,38,38,41,43,204,57
67,75,37,36,42,43,211,58
67,61,36,33,39,39,190,52
66,63,42,34,41,41,187,52
71,66,44,37,43,39,152,53
59,65,44,33,36,39,148,52
59,65,46,35,37,39,140,53
59,63,53,39,42,46,168,55
54,59,49,38,41,51,213,55
54,59,47,42,37,49,212,51
53,66,47,42,35,44,210,57
53,73,45,43,37,48,206,58
58,81,35,38,36,42,183,58
61,86,34,40,37,41,133,56
61,94,32,35,36,40,123,57
61,95,33,34,36,42,154,53
67,96,34,34,32,41,157,53
65,88,34,34,28,41,164,52
59,84,41,34,25,34,159,52
57,73,43,39,26,32,167,49
55,66,43,42,27,35,162,49
43,54,44,42,27,33,171,49
43,59,45,44,27,33,169,51
52,65,39,41,25,33,178,50
56,80,38,45,23,41,193,53
61,81,40,44,24,41,203,52
65,89,38,44,24,40,188,51
71,90,37,43,28,39,196,52
64,82,37,43,31,39,194,51
68,71,39,34,32,40,180,54
65,68,35,34,32,36,140,52
62,70,34,33,33,37,160,62
55,66,36,36,32,38,148,60
59,67,39,38,35,46,141,61
50,72,35,38,36,39,162,57
50,73,42,40,35,40,164,59
49,67,45,43,35,39,146,50
53,76,44,44,36,42,170,51
57,78,42,42,32,36,180,54
53,76,41,42,33,35,165,49
60,80,35,38,31,34,163,47
60,78,34,37,29,35,161,46
57,73,31,36,26,35,182,46
56,84,35,36,25,40,179,48
55,80,35,37,26,42,173,51
46,75,40,36,27,44,178,48
49,72,40,33,27,45,200,52
56,77,43,32,30,43,161,51
48,61,40,34,32,36,153,45
53,62,41,36,31,40,173,51
59,85,37,38,30,42,199,60
57,91,36,39,35,39,180,59
51,95,38,38,35,38,180,60
55,97,36,35,36,38,182,62
50,96,37,32,35,36,154,56
42,80,36,30,37,34,142,49
42,73,37,31,35,36,142,48
41,64,35,30,33,36,155,52
42,62,35,30,31,38,158,49
44,63,33,30,30,34,174,55
55,65,35,37,29,36,150,59
56,73,39,37,30,35,161,61
55,68,37,37,28,37,170,55
51,72,40,38,26,34,163,54
53,73,42,40,26,36,156,53
49,69,40,37,27,32,153,51
49,60,38,35,25,32,150,51
50,58,38,36,29,30,142,53
52,75,35,36,31,33,149,55
49,79,35,33,30,30,139,56
41,82,37,33,31,31,142,54
43,83,37,34,31,35,135,53
48,83,37,33,28,34,115,54
48,69,36,31,28,32,134,54
52,66,36,36,29,34,155,53
54,60,32,33,27,33,160,64
52,57,30,35,25,31,155,61
61,76,32,34,29,39,187,69
60,73,35,36,28,40,187,69
58,69,35,34,28,38,179,66
59,74,37,35,30,39,186,57
59,75,38,31,31,38,187,56
49,65,36,33,31,31,152,51
46,72,35,32,30,32,231,57
45,80,35,34,33,38,235,58
41,78,35,33,31,37,231,57
43,80,35,32,31,35,231,59
42,72,35,37,32,35,235,51
42,69,37,38,34,34,201,48
46,63,37,39,34,33,201,55
44,65,34,38,34,34,201,55
40,64,35,39,31,33,200,55
36,65,35,34,29,36,208,57
38,62,36,31,27,37,183,57
32,59,36,31,24,34,171,48
40,61,43,34,24,34,165,51
43,65,43,37,25,35,166,55
49,73,41,36,24,34,162,59
49,70,38,39,25,32,116,54
50,74,38,37,26,32,149,55
50,80,34,35,29,33,151,52
49,89,35,36,30,37,165,53
46,83,39,38,35,37,173,50
53,89,41,36,36,38,181,57
57,95,41,36,36,37,154,55
60,96,41,36,34,35,153,54
62,86,39,30,32,33,147,54
63,89,37,31,28,30,144,54
57,82,38,32,27,31,149,52
55,71,41,34,25,35,152,52
47,56,41,36,23,36,154,52
48,71,42,39,25,37,195,58
60,82,41,37,25,40,206,61
61,84,40,35,24,39,205,64
66,97,37,32,27,39,212,66
75,99,38,34,27,44,229,68
75,91,46,37,26,43,209,63
67,86,48,42,28,40,187,61
70,88,48,43,30,46,227,63
84,95,52,54,36,53,254,72
78,101,53,55,40,60,286,82
75,114,49,56,44,70,326,91
80,122,54,53,45,72,345,92
83,122,56,57,50,79,333,88
68,125,56,53,48,84,350,81
75,131,53,51,47,83,341,71
76,129,53,49,52,79,327,65
80,120,47,47,53,79,313,72
77,120,44,41,50,69,299,71
73,104,38,36,46,57,250,70
67,92,40,39,49,53,207,70
79,86,38,36,41,46,179,71
71,86,39,39,38,46,177,63
69,89,42,41,39,48,170,63
74,92,42,41,40,48,187,63
71,91,41,37,40,51,225,65
59,82,37,36,39,51,220,62
53,78,39,35,40,49,223,64
53,72,36,36,39,47,226,63
47,58,37,35,40,51,219,64
53,60,40,34,34,45,183,62
52,59,41,35,34,45,162,56
56,66,38,35,33,44,143,55
60,77,35,30,32,44,151,58
58,86,35,31,29,42,155,57
59,87,36,40,31,43,175,59
64,92,38,44,32,45,182,55
69,88,41,47,34,44,192,51
65,83,43,50,35,43,178,47
73,94,45,48,35,42,176,49
68,98,44,48,37,49,171,45
64,95,47,48,37,51,189,54
59,104,45,45,36,53,183,58
60,107,49,44,37,55,195,57
56,93,47,44,38,57,203,64
58,98,45,37,37,51,193,64
58,103,41,33,38,51,182,59
62,102,44,40,53,74,235,75
60,98,40,39,54,74,249,77
59,107,38,37,53,72,235,71
66,126,39,37,52,71,240,71
64,120,37,39,51,72,232,72
60,111,38,36,35,51,191,54
69,111,36,36,31,49,190,53
68,99,38,37,30,51,191,53
61,58,43,40,31,48,171,52
59,69,53,39,31,42,169,46
64,71,51,35,29,39,167,47
57,69,52,35,29,39,136,45
54,72,50,36,32,36,132,42
53,82,46,34,31,39,139,43
55,76,34,32,34,42,164,50
53,79,31,34,35,42,179,50
51,77,31,35,34,41,178,50
52,73,32,35,31,40,181,49
53,58,31,32,29,41,200,56
55,54,29,31,27,39,173,61
48,51,31,31,25,38,137,58
47,51,32,31,30,35,136,57
57,59,40,38,31,37,153,63
65,59,39,39,32,37,139,59
63,67,44,47,40,43,143,51
63,78,43,49,42,40,162,55
78,87,40,47,39,44,160,58
71,83,34,41,37,47,150,51
66,90,36,39,37,45,146,49
64,87,29,29,29,37,146,47
63,73,31,28,27,37,125,45
56,67,34,29,30,34,147,45
58,68,32,31,30,36,167,52
56,55,29,31,32,35,158,59
57,54,30,32,31,39,158,60
62,58,28,33,33,45,229,61
54,55,26,33,29,45,218,60
53,52,28,32,32,39,203,58
55,58,27,32,32,39,201,53
57,59,27,35,34,37,198,53
54,59,28,34,37,34,109,49
64,59,32,34,40,35,110,50
65,62,32,36,37,39,125,53
58,61,33,36,36,39,129,54
59,62,33,35,33,40,134,55
57,75,32,34,28,36,133,55
44,78,29,33,26,38,141,54
51,75,29,30,26,34,124,51
53,75,30,32,31,49,169,50
52,78,31,30,31,48,171,47
55,62,32,29,31,50,180,52
57,58,32,29,31,48,182,53
52,59,33,34,32,52,184,50
51,65,33,31,28,38,168,47
52,61,34,32,31,41,164,48
51,75,37,33,32,40,165,43
51,73,36,32,35,38,148,43
48,73,37,30,34,35,149,45
48,69,37,33,35,32,114,44
46,67,33,32,36,29,110,47
44,51,29,31,35,32,128,46
49,55,30,33,31,30,131,45
52,51,26,29,32,30,137,43
50,45,25,30,30,31,150,43
52,48,28,33,29,36,161,43
52,52,31,33,30,33,141,45
54,51,32,30,30,37,141,45
58,54,32,31,33,36,126,47
62,64,34,28,32,36,125,58
61,61,32,24,31,34,115,54
59,59,30,25,30,34,110,54
55,58,27,25,33,37,118,51
63,60,29,29,36,42,126,54
65,51,26,31,36,44,132,53
66,52,28,32,37,44,132,55
67,50,28,33,37,44,133,55
62,50,31,33,35,40,121,56
46,47,30,31,28,35,121,51
53,49,31,30,29,38,172,51
53,50,30,29,29,42,170,49
54,55,33,30,30,41,165,49
57,56,32,34,36,43,169,47
55,55,29,33,39,42,174,47
49,55,29,34,38,47,146,43
50,55,31,34,37,41,147,43
