117,54,30,102,108,61,34,83
124,64,32,100,125,54,35,100
126,73,33,104,152,55,36,111
100,85,33,97,156,56,33,92
104,88,39,89,152,61,35,93
108,123,36,90,151,55,34,93
109,125,38,92,146,55,32,78
117,119,38,108,139,54,30,73
114,113,37,113,144,56,30,76
108,113,31,112,149,51,28,75
104,85,35,122,153,52,28,74
92,85,35,117,142,50,27,70
76,84,35,109,129,46,25,61
64,79,37,115,134,44,26,69
67,88,37,112,123,48,27,69
78,85,39,119,148,48,25,72
81,84,41,124,153,57,27,85
80,81,40,113,144,73,29,84
78,91,39,100,130,74,28,73
81,85,42,143,152,77,29,72
80,77,41,134,138,77,30,84
82,71,41,128,150,78,29,76
95,77,41,127,158,69,29,77
131,79,42,131,173,68,28,78
138,74,39,87,157,62,27,79
132,79,37,77,141,59,28,65
144,85,29,89,158,48,28,64
138,82,28,94,167,46,29,67
103,67,28,93,152,46,33,64
93,80,28,94,150,49,33,68
96,75,27,102,151,48,33,67
82,72,29,97,139,51,34,67
83,88,31,94,123,49,33,68
85,97,31,95,126,49,33,74
78,115,34,102,150,50,33,76
101,120,38,100,163,57,37,86
107,121,36,94,148,60,36,85
103,108,35,106,161,62,35,80
111,105,38,112,164,62,33,80
115,86,36,104,142,56,31,78
100,77,31,113,150,49,27,65
90,77,36,119,167,46,24,64
91,84,42,125,157,43,25,65
86,91,39,116,148,43,28,60
94,91,38,121,165,46,31,67
90,97,42,114,159,44,33,74
96,96,39,111,179,43,35,73
101,95,32,92,175,43,35,78
102,83,31,92,174,44,33,76
112,76,32,87,179,46,34,69
114,70,28,83,171,47,34,70
106,67,30,80,124,45,34,68
105,63,30,87,164,43,34,61
106,66,31,93,175,40,33,66
88,52,30,90,156,35,30,60
82,54,33,110,212,42,34,52
86,61,39,143,263,48,34,52
88,59,42,154,255,51,36,53
90,60,41,165,249,49,34,62
88,84,42,165,255,51,38,66
93,94,43,155,210,48,33,68
94,90,35,129,176,41,34,68
98,90,32,115,162,36,31,70
96,105,34,101,193,40,35,64
99,89,33,98,203,36,31,60
99,76,29,92,201,36,30,62
101,75,31,86,197,36,29,79
91,75,32,89,206,38,30,80
88,54,28,100,218,37,29,75
84,86,30,104,209,41,29,77
75,96,33,119,227,41,31,73
87,108,32,124,215,43,34,65
87,107,32,129,221,43,33,58
90,103,36,136,193,45,33,58
89,91,38,141,184,42,32,62
96,81,36,131,158,43,31,62
76,66,38,136,163,42,28,48
81,69,38,139,146,42,29,50
76,71,38,123,141,41,31,67
84,59,37,119,160,47,34,82
76,63,39,126,168,48,36,80
92,58,38,108,156,47,37,86
99,57,37,96,165,44,35,84
97,57,37,105,175,44,34,77
90,51,37,111,177,45,31,56
95,44,36,103,181,45,28,59
90,45,35,101,177,45,27,67
74,41,36,109,172,50,28,67
76,35,37,135,188,52,32,60
86,47,36,136,175,45,34,65
90,64,37,138,168,45,36,72
99,67,38,159,203,56,40,65
100,69,37,154,196,59,41,69
103,70,34,120,169,56,39,85
93,71,31,131,170,56,39,83
88,88,32,133,171,56,37,77
68,93,30,109,125,46,33,72
70,96,31,105,115,38,34,73
70,96,31,109,127,37,31,56
70,110,33,91,134,41,30,58
62,95,31,82,129,41,34,58
58,88,32,90,134,54,35,57
60,85,31,97,147,55,33,57
69,89,30,92,137,57,36,61
70,61,32,85,120,53,37,54
83,59,32,93,122,53,35,63
87,61,31,103,126,39,32,71
93,64,36,117,192,46,33,70
82,57,37,117,196,50,33,67
97,78,34,115,196,51,32,84
88,76,40,145,211,51,28,81
90,83,44,142,220,55,32,76
88,81,39,126,159,47,31,77
97,89,49,133,145,44,32,83
97,114,82,132,145,43,30,70
103,123,108,99,120,40,35,70
104,137,112,86,87,36,33,67
99,136,113,84,72,34,34,63
91,136,113,94,104,34,31,57
73,103,94,209,261,44,32,51
65,92,77,266,288,49,31,47
53,75,74,312,292,46,30,47
63,84,76,332,306,48,29,50
59,90,72,330,312,45,28,49
62,124,70,271,209,37,28,56
61,133,49,214,173,32,24,61
60,133,46,145,168,31,27,64
51,135,39,94,139,27,26,62
70,142,36,88,100,28,28,64
77,124,32,85,75,28,28,65
82,117,41,80,54,27,28,60
81,110,37,68,46,28,27,56
91,114,43,64,47,29,27,62
90,102,47,50,36,29,27,57
87,89,48,46,34,27,28,53
83,93,41,44,32,27,28,52
96,124,38,34,32,27,25,71
110,116,32,27,29,27,31,77
110,130,31,28,34,27,38,90
121,160,39,39,36,26,40,95
134,160,63,51,41,27,42,102
147,148,73,57,42,30,46,96
152,152,83,66,46,33,44,103
158,139,81,64,44,36,37,117
149,108,79,60,42,36,35,118
139,103,64,53,38,36,35,115
125,95,63,53,37,41,32,133
113,107,56,50,32,44,31,137
107,124,79,62,34,43,31,116
112,132,79,67,37,43,30,115
111,130,89,81,41,42,27,117
121,124,117,89,42,33,27,106
108,107,134,91,44,27,26,91
100,90,154,96,43,26,28,95
106,75,167,93,43,25,29,106
124,112,169,85,42,28,36,124
136,129,156,77,43,31,37,113
176,148,141,73,41,31,42,131
218,154,128,67,37,29,50,139
242,164,117,67,37,31,53,132
257,141,113,64,38,33,80,124
260,148,107,59,37,35,87,141
264,238,109,61,39,41,90,140
289,243,90,51,39,41,88,157
271,258,90,52,37,42,88,165
251,285,94,50,32,41,64,171
255,288,90,50,33,42,73,164
231,211,87,47,29,40,72,150
150,204,90,53,32,41,74,127
150,183,97,53,31,40,74,117
154,142,87,50,32,40,72,103
119,120,87,50,35,36,55,94
119,125,88,51,36,38,47,94
159,129,84,46,39,38,39,97
152,131,64,45,39,38,39,86
155,146,65,47,41,36,36,82
201,162,67,50,41,42,40,94
224,161,63,47,40,37,40,101
200,162,55,41,37,35,41,95
221,158,57,43,37,38,40,112
227,145,55,41,39,42,40,112
195,134,48,38,38,35,33,102
168,125,46,41,38,36,33,96
180,114,44,42,38,36,31,105
162,114,50,41,36,35,28,102
144,111,69,47,34,31,32,100
139,95,72,46,28,32,30,103
131,90,72,44,27,28,29,103
111,119,75,46,33,33,30,101
95,131,69,44,33,30,33,92
94,132,50,41,33,32,29,92
87,143,48,38,34,31,30,87
104,150,48,38,34,33,29,84
115,127,45,35,27,28,29,85
116,121,44,38,27,27,26,83
131,130,43,35,26,23,28,84
134,123,43,36,29,26,28,86
133,127,42,38,29,26,27,83
126,132,48,38,32,26,26,65
136,117,53,39,36,27,26,89
137,118,51,40,36,30,28,87
134,117,49,40,33,27,28,87
130,113,53,39,35,29,28,86
127,108,54,42,36,31,31,87
121,116,49,38,34,34,32,63
106,129,54,37,34,33,30,56
99,128,55,37,34,34,31,54
96,131,55,41,39,35,32,59
98,147,50,40,36,34,29,59
84,142,53,42,36,33,27,55
93,119,54,41,36,31,28,79
108,124,64,54,39,33,33,78
128,123,67,52,33,28,33,89
121,103,65,51,37,29,35,98
126,107,61,49,36,27,34,106
123,158,57,48,35,26,34,92
114,155,51,38,32,24,30,94
99,153,60,36,32,25,28,85
110,159,62,37,29,26,26,76
115,164,64,39,28,26,27,66
116,120,64,40,29,26,24,81
130,115,61,37,31,31,21,83
129,122,46,37,31,32,24,89
125,122,57,40,33,31,26,95
128,120,54,39,34,30,26,108
130,115,53,39,35,33,28,100
127,121,54,40,32,27,30,100
131,120,58,43,32,25,29,100
133,114,51,40,30,26,27,92
126,112,52,40,31,27,29,81
121,118,56,40,31,25,31,87
109,111,54,37,32,26,29,77
113,104,56,35,33,27,31,74
115,115,53,36,33,28,31,81
129,120,54,39,31,26,33,82
126,112,54,36,29,25,30,71
122,114,54,40,30,27,32,70
104,114,44,40,27,25,29,63
96,106,42,37,28,24,28,62
80,97,40,35,30,24,24,59
83,106,42,38,34,23,25,62
96,112,39,36,32,23,23,66
93,118,40,35,34,25,23,63
103,135,44,35,32,25,23,66
100,136,44,35,32,27,27,69
110,140,39,32,30,27,26,77
104,138,43,36,28,25,26,76
120,135,47,39,31,25,27,83
112,116,44,38,31,24,27,74
128,116,42,37,30,21,27,84
116,110,47,38,30,22,26,74
114,100,45,34,31,23,27,77
105,92,48,31,28,23,27,78
110,95,50,31,29,24,31,81
88,94,52,32,28,25,28,64
86,112,56,32,28,26,29,66
86,118,62,33,28,26,28,71
83,116,58,36,27,26,26,63
72,122,55,38,27,25,23,66
68,116,55,38,27,27,25,70
70,94,51,42,29,29,25,74
70,89,43,39,27,28,27,70
66,92,48,37,28,28,28,74
71,78,49,40,28,28,27,71
77,106,83,43,31,29,29,71
75,112,85,38,29,26,29,66
107,119,88,42,31,28,31,93
115,132,89,43,31,29,32,93
113,142,90,43,31,27,31,93
132,144,64,40,30,25,30,103
158,149,69,45,31,24,29,108
156,146,66,43,31,23,25,87
166,135,60,40,32,24,20,86
171,127,71,42,33,24,26,85
155,99,66,42,34,26,26,70
139,90,51,37,35,26,25,65
121,88,53,37,35,26,27,59
101,89,55,39,34,26,27,59
96,95,36,37,34,26,24,69
111,142,37,38,33,23,23,73
101,146,43,40,32,25,28,76
104,146,41,42,34,24,27,91
106,147,40,45,33,24,26,89
124,141,43,43,33,25,26,84
117,98,51,44,32,24,28,86
119,85,49,42,32,24,25,88
125,101,54,43,33,27,26,73
127,110,54,40,32,27,27,73
122,111,53,38,30,26,26,85
121,108,49,37,31,29,24,78
118,108,49,38,29,30,23,74
113,101,42,35,30,29,23,74
105,96,41,34,29,28,23,75
98,114,45,39,30,29,25,63
102,111,45,41,31,29,27,72
109,115,46,41,32,26,28,70
118,125,51,46,29,26,27,70
138,125,47,48,30,27,25,71
134,109,49,44,31,31,25,76
128,113,48,42,30,30,24,71
124,117,47,40,31,29,22,71
114,106,52,36,30,28,21,81
94,102,54,34,30,28,29,86
94,104,50,34,27,26,36,79
93,110,50,35,28,25,39,78
121,101,51,37,28,27,52,98
123,113,46,36,28,33,62,90
123,108,43,41,32,54,65,89
121,107,44,40,31,55,66,95
123,100,41,40,31,58,64,94
92,105,45,38,29,59,57,73
89,94,40,39,31,57,48,72
83,102,41,34,28,36,46,63
100,100,41,34,29,45,54,51
112,100,45,32,31,44,62,52
120,108,47,38,30,42,61,58
122,118,50,38,30,42,61,64
138,128,56,38,30,46,58,67
127,151,57,43,28,37,45,73
113,151,54,45,27,35,36,78
106,146,47,41,27,35,37,69
100,132,53,40,25,33,37,73
76,116,47,40,23,26,36,75
78,100,45,36,26,27,37,81
108,105,53,34,25,27,34,80
123,111,55,33,26,30,34,87
121,108,48,34,27,31,32,76
127,108,48,32,29,33,33,73
133,93,48,28,28,35,39,59
129,89,40,30,28,34,39,56
117,86,39,29,27,32,36,45
124,90,41,28,26,32,36,49
127,107,39,29,28,31,35,57
121,111,45,34,29,27,34,59
112,150,62,35,33,30,34,63
123,155,66,37,33,29,35,75
121,161,65,38,36,31,36,84
115,152,65,39,35,31,35,79
111,163,66,43,34,29,30,78
100,138,50,44,31,27,42,75
105,138,51,42,31,27,41,71
101,217,85,44,31,25,43,57
100,252,99,44,30,27,44,53
102,243,97,38,28,28,44,59
117,242,96,34,26,25,32,63
114,250,98,39,26,27,37,57
126,179,73,37,20,27,36,68
130,133,56,39,22,25,35,76
130,142,66,38,23,25,34,73
123,139,65,39,24,28,34,76
113,117,57,38,25,26,26,81
111,120,54,37,26,28,23,78
164,119,55,37,29,33,25,89
176,115,42,38,32,33,26,102
181,108,44,37,34,32,25,97
191,153,48,36,34,33,27,98
217,157,54,38,35,32,27,126
184,162,69,42,33,28,23,113
187,166,70,41,32,28,23,106
181,237,101,45,29,26,27,106
176,240,112,48,29,27,30,124
159,248,111,46,30,25,29,104
162,249,101,42,28,26,29,104
149,253,106,40,27,25,28,106
187,230,85,34,29,25,28,118
199,216,84,31,27,23,26,98
191,223,98,34,27,24,30,91
199,223,100,32,29,25,38,103
209,227,94,39,30,24,38,99
184,193,87,40,30,24,37,86
186,172,76,39,31,24,37,90
177,148,57,41,32,26,36,101
168,143,59,42,31,26,29,99
178,128,60,40,30,28,30,104
191,136,94,55,34,26,34,137
197,161,99,61,37,32,35,137
259,172,110,61,36,30,37,148
267,185,113,59,34,32,38,145
261,262,148,70,38,31,40,152
258,257,141,60,36,34,47,158
266,261,143,55,32,30,53,168
219,279,161,57,35,34,61,162
222,331,208,66,36,32,62,172
223,307,202,59,33,32,65,165
226,361,223,63,33,33,61,147
210,358,233,64,35,34,68,141
201,344,225,62,35,33,68,139
202,304,204,53,38,39,71,128
199,344,215,60,42,44,72,133
213,323,195,65,42,43,87,140
258,346,194,69,42,45,85,192
307,344,187,71,46,48,90,224
304,369,175,75,46,45,99,232
330,325,170,66,47,40,100,247
368,331,187,69,53,41,90,264
341,356,206,72,57,41,86,236
320,375,209,77,56,41,84,212
364,430,246,76,56,45,75,229
390,462,262,81,58,46,73,243
442,485,292,88,57,54,92,262
468,462,279,85,67,68,97,283
473,450,293,82,68,67,95,313
501,401,280,91,70,64,94,305
481,369,262,88,66,67,112,309
418,357,223,76,61,63,106,295
503,337,220,73,47,50,112,316
562,360,243,81,43,48,114,305
516,358,242,73,45,53,123,383
546,397,261,83,47,54,134,387
540,368,260,83,49,52,136,383
440,390,254,95,59,56,157,377
384,380,230,92,59,60,196,360
425,384,233,93,56,58,192,316
428,384,228,92,55,59,183,314
458,368,248,95,52,60,193,310
497,378,265,96,45,61,178,400
558,400,277,110,48,61,141,461
518,446,290,121,58,65,145,431
533,405,264,115,60,64,159,470
518,461,289,114,62,69,153,478
488,455,272,104,62,69,169,389
387,424,247,82,62,72,182,312
393,368,208,61,51,68,207,320
360,385,228,72,51,68,214,255
365,327,153,65,55,65,210,249
390,353,185,79,64,67,206,259
439,398,196,82,63,62,218,284
494,426,195,82,64,66,197,313
472,444,216,76,70,70,173,290
459,433,216,76,66,65,185,272
487,409,197,71,55,61,202,263
491,377,189,69,55,58,174,250
520,373,190,69,55,54,186,260
506,322,133,63,46,54,198,261
512,325,132,63,49,67,219,293
458,318,113,47,47,65,237,281
394,330,108,48,45,64,245,269
279,274,82,45,45,66,250,212
283,273,84,47,45,60,269,241
272,286,90,47,40,52,274,217
299,299,144,61,44,51,242,222
318,272,139,68,45,54,246,223
317,295,141,69,44,56,280,235
325,322,165,68,43,58,271,210
328,305,158,67,45,57,245,197
315,312,125,59,49,63,256,192
336,323,124,49,49,65,246,200
343,300,125,51,47,63,207,189
381,328,98,57,53,71,185,173
403,437,108,68,57,73,176,247
381,424,104,67,54,72,155,251
409,444,117,72,58,71,155,267
454,462,112,71,64,75,236,310
429,424,105,65,60,68,252,358
480,313,101,58,58,70,268,326
498,365,104,59,58,67,263,327
580,342,116,69,64,67,271,341
577,334,117,71,59,63,195,344
630,336,115,72,65,67,201,390
583,368,122,75,66,61,210,390
580,343,116,73,62,67,217,384
490,334,90,57,51,65,204,355
451,309,90,52,53,67,225,321
358,337,95,53,48,59,213,231
329,363,80,45,45,59,185,207
317,626,74,51,50,52,185,218
247,793,76,59,59,53,222,230
266,817,75,65,65,53,195,227
326,804,80,70,68,57,197,228
363,794,99,75,66,55,212,269
417,591,101,80,68,58,238,284
431,337,98,75,60,56,229,297
447,282,101,72,54,63,243,321
429,276,95,66,52,61,232,300
411,295,99,65,57,66,217,304
390,291,102,58,50,65,214,295
400,287,110,63,51,69,229,284
376,280,105,60,51,61,213,242
361,301,104,62,49,60,226,239
362,243,83,55,47,59,234,184
364,258,76,55,48,57,235,170
340,258,65,48,46,56,204,155
427,247,70,50,44,56,206,174
438,241,77,67,46,54,197,176
490,236,79,67,41,53,223,206
464,240,82,65,41,53,194,204
481,246,88,66,39,54,212,204
440,261,89,72,46,55,216,212
425,260,90,54,44,58,219,216
383,265,88,56,48,59,193,224
395,243,84,54,51,67,195,227
414,248,84,52,53,64,165,229
381,232,115,51,50,69,153,221
381,216,170,71,55,68,131,234
384,241,181,74,56,68,114,204
416,248,187,83,66,76,129,215
385,265,206,87,69,75,125,223
428,284,233,86,68,73,133,247
472,290,241,79,64,71,166,260
444,313,244,78,67,76,167,259
474,325,256,71,60,63,170,244
487,311,245,70,57,65,189,236
456,293,206,67,57,61,194,224
409,315,157,59,56,63,189,197
421,274,140,57,50,57,204,205
414,270,109,58,57,57,189,219
473,271,105,63,59,58,186,240
466,263,100,62,59,58,176,214
495,249,100,62,57,57,173,225
491,246,105,61,57,61,174,221
450,229,107,60,45,63,182,221
366,223,102,61,46,60,185,199
374,255,135,68,46,62,186,206
327,231,124,67,47,62,213,204
340,247,127,74,52,60,212,232
301,238,127,74,52,59,202,222
310,239,125,70,55,60,183,225
259,207,100,68,53,55,180,216
246,209,109,68,53,57,141,198
228,177,158,76,57,59,124,163
231,195,159,73,58,60,149,152
206,182,158,69,51,56,159,145
227,199,153,72,53,66,217,190
249,246,150,72,53,69,218,197
259,245,85,52,41,59,216,202
277,288,92,51,40,56,205,206
277,287,87,56,47,58,212,207
302,271,85,52,47,48,161,177
303,230,74,53,49,48,167,168
267,238,75,55,52,48,175,150
256,178,57,54,51,47,172,138
275,195,67,54,44,44,157,146
255,198,73,48,44,48,176,157
234,184,78,49,37,41,160,155
250,175,75,48,39,47,158,151
257,179,80,50,38,49,165,153
235,181,79,46,36,48,171,149
267,225,92,55,41,49,191,157
268,243,86,54,42,48,196,156
268,243,87,54,37,44,192,155
253,230,83,56,40,44,183,161
326,213,89,61,40,51,186,178
290,185,69,53,36,46,141,154
308,200,76,63,39,49,155,190
318,252,94,61,40,50,148,203
334,257,95,58,38,49,155,201
266,256,85,51,39,46,198,193
334,239,85,49,37,46,230,207
453,234,85,42,36,46,226,247
615,214,76,50,40,48,234,318
675,280,89,53,41,50,229,333
751,291,95,57,46,53,184,340
739,312,108,62,47,55,143,337
692,340,177,76,52,56,152,293
554,332,198,91,52,57,158,218
581,341,204,92,54,58,181,273
503,339,206,93,52,57,192,275
531,332,201,91,50,55,203,278
587,305,142,80,48,61,192,326
588,296,114,65,45,61,178,317
493,232,105,67,43,61,173,263
491,226,97,64,42,58,170,279
529,213,95,65,41,59,160,313
432,237,99,65,47,52,176,270
479,239,103,67,48,48,182,300
509,238,93,71,57,46,166,312
512,241,93,76,62,47,229,282
409,244,95,85,68,49,244,257
424,227,108,90,63,46,246,283
457,247,102,84,63,48,255,259
472,254,99,84,58,51,271,246
469,259,103,82,52,51,273,263
504,268,104,77,48,49,256,245
509,269,84,66,48,48,257,199
425,264,76,71,50,50,271,196
399,247,83,68,49,48,288,219
390,236,74,65,47,46,234,203
383,244,72,60,46,49,235,206
439,243,72,61,41,49,258,228
475,243,77,62,47,51,240,245
491,272,74,58,44,53,213,224
496,270,77,58,48,54,245,226
482,263,79,57,47,50,244,222
407,248,102,66,49,53,238,201
388,257,109,62,43,61,260,218
325,218,108,60,42,59,259,210
310,217,105,58,40,59,240,202
327,227,103,60,44,65,271,212
326,244,89,53,45,71,255,210
286,199,69,49,42,60,225,173
266,202,62,50,43,62,238,169
298,228,77,75,55,63,240,204
267,236,75,75,54,57,222,200
262,234,66,72,54,49,195,201
346,246,74,74,58,52,203,271
371,283,85,81,63,55,172,280
423,271,80,70,53,54,174,328
461,269,92,75,55,57,146,334
468,258,95,78,54,57,157,341
420,256,93,78,54,59,172,294
429,214,87,83,48,57,201,289
361,207,104,87,51,60,211,237
304,201,110,85,48,62,215,227
363,186,112,93,52,59,222,234
364,183,117,94,49,57,206,242
357,195,127,85,49,57,212,265
378,204,115,81,51,59,213,237
373,180,99,78,50,55,226,233
309,208,100,69,47,55,244,220
295,196,90,65,50,56,245,193
251,199,79,68,54,65,226,149
239,205,85,65,48,61,218,194
248,207,83,63,48,71,201,185
291,172,79,60,46,77,202,195
293,177,93,60,44,82,225,200
346,192,109,60,39,73,225,215
342,178,98,57,40,73,216,190
342,171,101,56,40,64,237,192
317,184,99,56,44,66,213,179
345,188,89,55,44,54,223,206
308,166,62,51,43,54,261,192
290,199,79,55,40,51,265,183
282,204,82,72,44,48,273,186
264,201,81,71,38,36,270,194
243,193,80,69,35,39,264,170
238,210,82,77,38,39,230,165
207,184,68,76,39,40,225,150
215,204,61,64,41,43,209,154
227,209,61,63,42,46,239,163
197,227,63,63,43,47,221,155
186,242,65,58,43,52,223,166
208,241,63,52,46,54,213,185
207,234,60,50,38,53,211,194
247,232,62,51,40,53,176,188
251,218,63,62,40,54,180,190
250,214,78,67,41,51,169,183
226,210,90,72,37,49,179,169
270,208,98,72,38,47,166,175
235,208,99,75,39,46,215,164
251,215,98,67,41,43,220,191
256,183,86,55,38,40,222,196
274,185,74,52,46,46,233,196
291,196,63,57,49,46,249,207
283,193,59,55,48,44,254,225
276,182,64,54,46,45,273,219
279,192,59,57,46,44,272,222
288,185,60,54,41,43,258,221
214,159,62,49,36,43,254,203
240,156,74,52,38,47,216,211
247,196,81,57,40,49,174,204
250,180,98,58,44,52,169,199
258,205,105,61,43,47,170,193
303,226,104,61,48,51,164,198
285,229,97,59,47,47,165,171
305,207,96,61,46,43,172,159
295,230,78,58,41,41,189,172
289,218,82,64,40,46,197,182
283,200,90,65,36,48,210,192
277,196,87,62,38,46,197,188
244,200,80,55,37,47,199,193
274,171,89,59,37,48,194,185
273,165,78,52,39,51,204,184
232,158,70,51,39,46,175,151
240,178,72,55,37,50,174,149
297,315,70,59,45,51,184,205
268,367,62,57,51,55,176,204
266,380,64,56,49,47,159,226
286,382,63,63,49,47,171,236
289,384,71,63,50,45,169,275
298,272,68,62,43,48,149,258
389,195,82,62,39,40,187,326
406,160,113,68,48,50,212,330
400,166,119,68,50,54,202,325
419,152,116,68,56,59,258,300
374,151,121,65,61,60,268,276
278,157,116,65,61,62,242,187
288,210,92,60,57,56,238,189
301,200,84,49,54,52,247,186
283,186,81,45,45,47,193,190
286,193,79,50,39,47,192,198
300,194,76,55,42,49,212,198
254,136,64,51,38,48,187,155
229,149,63,50,42,51,178,151
195,190,72,64,46,57,195,153
185,196,77,61,44,51,174,149
175,210,74,57,42,48,169,149
157,216,74,57,43,48,168,154
155,223,80,75,47,47,189,161
169,399,74,67,45,40,174,134
204,443,74,71,45,44,169,186
219,562,75,70,41,45,157,231
245,699,86,77,44,42,168,257
308,743,82,63,40,41,138,324
312,657,108,64,38,41,129,330
312,680,104,58,42,40,156,310
301,642,109,65,45,42,155,284
306,660,106,63,40,47,171,280
275,700,107,71,43,54,185,207
268,719,89,71,45,53,186,210
250,675,91,70,43,53,172,206
308,621,84,61,39,49,177,214
289,444,78,59,39,47,158,185
272,267,84,65,36,40,147,166
273,215,76,64,36,44,167,149
261,194,80,78,38,44,160,137
193,188,80,79,39,48,155,129
205,163,89,80,41,46,176,150
268,175,78,69,41,46,186,205
273,181,73,68,43,46,169,218
301,186,61,52,43,45,206,229
336,172,64,56,47,43,216,222
349,202,69,55,44,44,194,214
309,215,70,51,40,44,184,174
322,218,72,50,38,43,207,165
322,221,78,58,42,50,208,169
304,241,75,54,38,50,206,193
287,230,62,50,42,51,232,203
276,227,66,53,43,57,234,192
306,238,74,56,42,55,223,212
322,243,72,52,37,48,210,214
317,235,76,59,40,61,203,200
333,246,76,67,45,67,171,194
336,247,69,67,45,65,202,209
293,230,67,74,54,71,228,188
251,233,65,74,58,74,226,173
232,225,60,73,58,68,220,189
198,214,57,72,56,67,240,182
188,227,60,71,55,66,229,167
187,227,51,63,47,61,210,167
185,224,51,63,48,67,213,177
171,241,49,58,45,62,215,158
177,230,55,51,40,57,205,170
226,220,53,52,42,56,208,172
237,209,53,48,43,58,230,173
271,203,57,45,42,56,235,162
275,201,63,52,46,58,235,151
264,202,60,51,45,57,238,154
236,175,61,50,42,58,223,151
227,175,61,51,43,55,201,144
201,193,61,49,38,49,177,148
218,176,56,46,35,49,175,148
239,200,56,48,40,58,238,130
230,210,53,49,40,56,260,149
251,213,60,53,40,58,247,157
262,202,55,48,39,54,255,162
269,217,54,49,40,58,277,180
349,201,54,47,38,46,213,261
351,209,66,55,39,50,188,259
364,224,69,60,45,53,187,285
437,211,72,64,50,60,184,286
454,224,77,65,52,58,133,277
461,231,80,68,55,68,132,224
489,215,70,62,55,66,149,237
485,254,72,59,52,62,158,223
423,264,71,59,51,58,155,242
421,236,68,56,47,55,187,243
348,232,63,54,44,44,205,259
318,240,64,56,42,44,190,239
310,182,57,50,41,44,182,239
380,169,61,51,39,51,176,235
375,191,55,49,37,51,166,248
370,187,57,44,34,53,149,208
362,194,77,42,36,53,158,209
350,197,80,46,40,55,199,197
253,198,79,43,40,46,201,170
215,223,81,45,41,51,208,164
219,216,80,47,40,52,208,174
215,213,71,48,38,54,208,175
228,224,71,44,34,53,180,182
234,217,73,46,34,55,200,191
245,165,74,50,33,54,211,171
246,190,75,57,37,51,218,183
261,236,70,55,38,49,209,200
252,277,66,61,40,53,245,208
242,285,66,68,43,56,242,198
217,292,66,69,45,54,232,205
200,275,69,63,42,52,243,182
204,237,69,66,44,54,275,173
225,207,76,61,41,52,249,156
238,204,71,54,36,55,253,153
253,206,74,51,36,54,239,152
265,206,69,50,39,51,227,178
248,221,69,45,38,54,208,163
228,188,57,43,38,52,185,151
234,185,63,41,39,48,172,190
229,173,63,41,38,45,165,182
225,175,66,43,34,52,172,175
234,149,59,45,37,48,163,183
221,152,61,45,37,52,164,181
207,503,65,51,34,49,198,147
241,635,63,50,36,49,200,155
229,681,70,55,35,43,189,139
223,689,75,56,37,48,183,151
242,693,77,62,39,47,239,164
244,513,71,64,47,47,208,163
217,339,71,70,48,54,213,163
222,233,62,69,50,56,219,170
222,210,55,69,52,55,234,154
266,339,50,66,52,53,192,154
267,360,47,58,44,51,192,141
260,391,45,52,43,46,186,143
263,392,44,55,47,48,184,154
277,409,57,57,41,46,163,158
227,302,64,56,41,44,144,170
219,288,62,63,41,45,172,197
229,278,68,61,43,53,197,203
223,298,75,57,38,54,185,190
206,312,73,53,40,53,178,197
207,319,77,54,42,54,186,172
205,286,80,50,44,55,167,156
205,258,79,52,43,48,136,134
227,236,72,49,44,43,136,132
225,215,70,46,43,52,137,112
229,248,66,46,40,56,125,115
245,251,62,43,42,60,139,119
229,250,57,36,39,58,159,123
208,247,55,36,38,61,164,133
203,217,60,41,38,58,204,141
189,179,57,48,39,54,251,143
154,184,58,47,33,49,257,134
190,185,58,50,35,48,275,151
195,191,62,49,35,48,279,144
202,190,52,44,34,44,254,139
201,170,43,34,32,46,210,152
218,162,53,43,36,45,184,166
218,200,57,42,34,48,182,157
215,193,59,47,35,45,184,162
208,200,62,50,36,42,178,162
212,203,69,54,36,40,192,156
203,195,62,52,37,40,212,134
172,156,58,52,35,36,176,130
161,167,57,53,35,37,216,124
165,154,63,56,39,45,271,123
203,155,59,54,41,46,296,146
229,160,62,58,39,47,281,160
276,161,66,57,39,48,291,161
315,160,75,58,43,51,283,163
331,167,70,56,43,46,235,169
325,166,76,60,43,46,206,142
333,200,75,53,42,43,221,127
306,202,71,56,45,46,213,139
277,195,61,51,42,47,243,159
263,188,59,54,40,45,254,167
279,194,52,52,42,44,243,184
335,165,50,51,42,45,253,194
332,159,49,51,40,43,290,185
332,158,51,55,44,44,237,165
334,164,56,49,41,44,238,166
301,159,52,48,36,43,242,145
205,171,57,55,36,44,224,130
216,168,57,54,40,49,178,143
217,172,57,50,36,47,203,145
214,211,51,57,38,46,191,123
222,211,54,55,39,48,191,139
247,204,54,53,45,53,185,140
236,218,54,50,41,47,185,123
259,249,59,66,44,45,156,118
257,212,65,69,42,46,176,118
251,213,64,70,44,47,224,107
240,228,62,68,37,42,220,99
239,213,64,67,35,43,221,117
206,189,64,54,35,45,226,116
203,190,64,49,41,56,233,126
213,220,68,46,41,54,184,133
188,204,65,46,41,55,187,145
182,214,61,47,41,53,180,129
211,198,67,54,39,53,197,153
214,202,60,52,31,43,187,161
208,172,55,50,30,45,196,148
263,166,56,49,31,50,195,143
291,148,64,57,40,52,202,156
292,170,51,50,40,52,177,138
306,196,57,52,45,56,164,130
335,188,59,56,47,58,165,149
323,194,61,58,51,55,165,146
304,214,59,54,46,54,157,127
297,213,62,55,49,56,196,125
307,189,58,54,44,54,214,107
280,201,58,52,45,51,218,112
261,201,56,52,39,49,232,134
275,197,56,50,43,50,243,141
279,205,52,49,38,52,229,143
259,232,59,57,44,53,226,146
272,238,62,59,42,54,228,140
282,241,75,66,45,53,218,121
258,238,91,77,48,62,207,123
244,217,91,77,52,62,208,119
225,183,86,70,47,57,190,126
194,165,87,73,51,63,201,107
151,172,82,70,54,64,198,109
151,169,82,70,48,59,206,100
158,169,91,70,46,57,214,120
164,179,96,70,48,60,218,114
162,187,96,64,43,56,189,111
164,180,92,59,37,52,202,105
248,178,79,49,37,49,199,112
237,179,74,51,35,46,171,96
289,219,74,52,35,44,157,105
292,244,70,51,32,40,153,111
296,237,70,54,36,49,128,115
236,229,60,47,38,57,134,106
239,246,50,42,36,57,190,106
174,211,45,41,35,56,219,98
188,204,51,52,39,61,236,101
211,214,59,52,37,55,249,101
226,212,58,50,32,48,244,104
233,194,60,61,37,46,201,95
235,239,66,67,40,50,190,97
242,222,69,59,40,49,200,91
229,225,65,59,42,55,193,96
246,233,66,59,44,54,190,94
234,237,81,49,42,57,191,97
228,194,74,38,40,56,204,94
224,201,68,39,38,58,203,105
237,191,67,39,36,59,195,101
197,253,72,39,33,58,189,99
202,262,55,37,32,54,189,100
213,262,66,45,38,63,161,118
202,246,64,44,40,61,130,110
183,271,69,48,44,60,174,109
191,214,62,52,46,59,174,114
196,209,63,56,51,63,192,125
199,202,54,49,45,55,184,114
196,219,62,52,45,51,215,108
197,233,60,46,40,46,191,103
193,233,63,46,39,46,209,101
185,216,63,53,35,47,204,84
166,215,68,56,37,45,220,77
161,195,63,55,36,44,220,91
150,154,58,56,38,42,217,104
148,151,61,56,42,46,210,116
146,156,59,43,39,40,252,117
142,154,53,39,39,45,259,115
193,226,53,39,40,51,252,118
204,214,57,47,41,50,258,112
203,218,58,49,39,43,285,110
203,222,56,54,45,53,241,107
228,228,57,57,49,50,231,111
180,165,60,57,46,50,229,98
158,199,59,52,45,52,223,96
153,202,61,47,42,53,181,85
142,210,63,43,36,46,191,103
129,244,64,48,35,44,196,94
157,248,60,47,35,49,180,101
162,224,59,47,36,59,183,103
167,235,76,51,40,58,190,107
250,226,75,51,42,60,202,125
243,189,73,44,39,62,195,129
229,178,74,45,39,64,193,124
231,175,83,46,41,57,207,128
248,202,81,45,40,60,198,143
194,230,91,47,41,58,186,122
222,248,93,55,48,72,198,162
269,288,93,54,47,71,212,183
283,326,87,56,51,75,200,185
283,320,74,64,53,76,200,178
273,314,63,62,51,75,223,181
246,307,68,59,47,60,244,149
202,281,68,61,48,55,234,144
188,230,64,56,43,49,249,136
186,211,60,42,38,42,257,141
175,204,57,44,40,42,243,129
207,206,57,46,38,46,206,135
207,197,68,48,36,49,206,114
216,198,68,50,37,47,226,141
207,189,68,50,39,48,212,138
225,168,69,49,39,48,197,146
202,168,63,41,39,48,219,138
193,159,51,39,41,48,241,141
170,186,55,41,39,55,211,117
169,189,52,40,37,55,215,115
164,226,57,45,36,61,257,121
152,219,58,50,37,61,244,121
160,224,60,47,33,58,225,117
193,227,57,45,34,52,220,118
176,223,56,43,33,53,220,102
157,189,49,38,36,48,164,89
160,186,47,34,34,45,176,87
150,200,41,33,33,43,175,87
113,209,46,34,33,40,158,83
137,216,59,43,38,42,154,89
157,222,62,47,40,42,155,89
148,214,60,46,40,42,130,91
163,202,64,47,42,43,130,104
177,169,61,58,45,48,191,117
223,158,47,53,41,43,232,144
219,176,45,50,38,38,232,143
243,181,48,51,38,45,272,149
249,186,45,53,40,48,275,145
243,184,41,41,39,46,238,135
197,194,43,41,39,48,202,108
184,178,43,38,37,52,233,113
172,192,43,38,37,51,185,115
169,190,55,49,35,52,179,114
186,183,59,50,33,54,210,131
196,182,63,53,36,53,241,161
204,188,65,59,38,53,237,163
198,191,69,61,38,47,243,162
185,189,75,62,37,43,254,158
160,199,73,62,39,45,252,153
139,195,70,62,37,47,220,132
168,186,74,57,35,50,206,134
157,189,69,58,38,52,202,133
153,191,58,47,40,52,221,133
170,192,56,46,36,63,195,129
189,183,58,45,36,64,209,123
181,175,55,47,37,67,237,144
183,163,54,44,35,78,235,136
216,156,53,46,33,80,213,140
221,158,61,53,34,71,220,161
210,168,61,60,38,74,226,168
185,180,58,64,39,68,193,147
186,175,60,66,38,55,206,157
146,174,58,66,40,63,198,162
130,184,49,59,40,59,200,139
127,169,66,57,41,56,186,125
136,159,69,49,43,61,178,124
145,155,75,52,43,60,165,118
154,170,81,48,44,55,163,103
152,156,81,54,46,60,182,117
155,172,67,52,46,59,177,112
163,171,64,54,43,51,212,122
148,179,59,50,42,52,199,120
145,172,55,55,41,56,244,128
158,169,59,56,41,57,246,120
156,157,71,61,39,64,256,122
162,172,97,73,41,70,256,128
174,166,248,123,44,72,269,137
170,155,261,126,44,70,228,134
156,160,265,125,44,70,206,125
168,159,263,121,48,68,215,143
152,138,256,114,47,61,194,136
165,137,117,74,49,56,176,137
162,142,83,70,54,60,197,139
159,141,68,66,51,56,212,142
152,161,69,71,47,49,188,126
167,177,72,70,45,47,173,121
141,189,68,51,41,50,196,108
153,180,64,44,34,42,226,112
148,172,64,47,44,50,209,108
140,177,66,44,43,57,204,123
116,177,56,45,46,58,220,113
129,171,56,49,47,62,199,121
168,173,56,49,48,62,148,118
179,171,65,52,40,64,149,118
176,159,59,51,38,58,157,100
180,203,59,52,36,62,183,104
197,202,57,48,32,58,181,114
160,212,56,48,34,57,187,112
149,210,54,46,34,50,200,111
150,203,55,42,38,52,204,127
164,144,54,36,39,47,173,128
134,153,61,36,38,48,185,124
147,140,66,38,37,45,175,117
165,137,60,38,37,46,171,127
179,148,59,43,34,43,164,123
200,159,70,50,35,50,167,149
206,143,63,49,35,55,174,139
201,151,61,49,34,54,168,146
197,168,58,46,35,54,146,147
202,177,60,45,39,58,168,147
166,172,70,47,38,55,156,126
177,166,71,51,40,56,163,138
191,168,72,50,38,54,173,151
185,155,73,52,36,57,207,147
203,135,72,53,34,54,191,142
217,152,53,50,33,52,201,146
209,157,55,47,29,41,187,136
197,156,53,48,29,41,190,126
213,152,59,50,32,43,162,129
176,152,60,49,31,44,175,131
152,125,58,43,30,44,167,123
144,126,53,42,29,49,160,119
157,142,53,41,29,50,154,106
180,159,46,37,27,45,161,102
196,218,48,33,27,42,161,97
210,230,51,34,31,46,197,130
218,229,52,33,34,42,197,137
222,225,51,39,35,43,201,168
183,220,53,43,37,46,216,164
176,179,47,45,36,48,212,164
172,173,44,47,34,43,181,147
165,173,51,54,35,49,191,150
152,192,51,53,43,47,183,113
151,183,49,55,50,41,169,122
145,164,55,75,97,44,168,126
145,174,58,86,111,45,164,122
143,178,54,84,112,46,159,126
124,140,59,83,110,46,155,127
116,144,59,82,108,48,131,117
113,156,57,64,68,44,127,110
96,141,53,48,46,45,138,98
89,171,57,57,43,37,138,75
102,173,51,67,48,39,143,75
131,176,50,72,48,35,152,85
140,165,53,80,65,37,143,86
155,174,54,83,78,36,130,93
170,133,51,105,88,38,121,99
169,134,55,126,96,36,108,99
153,126,64,133,114,42,115,105
145,154,74,133,112,45,115,97
141,141,74,134,107,44,110,97
129,155,82,114,99,50,105,93
125,165,82,89,103,52,108,93
121,193,102,88,109,64,93,93
125,175,94,82,111,61,97,108
108,190,98,81,119,69,139,108
100,182,91,89,138,71,152,114
94,171,93,93,141,73,150,117
95,144,65,95,130,63,156,121
106,147,79,112,132,65,152,125
109,154,79,115,137,63,118,132
113,157,85,119,164,57,108,123
148,161,83,113,166,56,111,130
173,174,91,114,167,58,158,121
176,208,81,101,168,55,180,131
190,223,88,100,167,50,183,128
198,219,83,107,132,69,180,141
196,217,82,143,173,74,200,132
183,227,96,148,185,77,177,141
179,214,104,148,181,84,173,122
166,188,110,154,177,86,176,124
153,196,122,157,178,75,182,111
148,206,120,145,131,70,190,121
135,190,116,131,114,69,181,107
144,163,121,134,114,63,161,109
156,169,108,130,104,65,169,113
172,163,95,111,92,64,172,126
160,152,97,89,80,62,192,136
175,166,88,93,63,65,264,148
165,192,68,87,61,85,408,155
161,179,84,78,62,85,422,146
151,206,93,90,67,87,451,140
159,210,93,99,75,86,441,123
145,207,86,96,75,85,419,110
137,207,88,95,73,71,302,95
133,205,73,104,75,72,298,87
160,175,65,105,81,66,267,98
143,177,61,95,77,68,255,103
147,185,61,99,79,68,237,113
150,157,65,107,81,63,239,118
159,173,64,115,99,85,262,126
134,180,66,107,107,87,250,119
137,222,65,115,142,96,259,126
150,199,65,113,154,105,247,117
148,215,58,103,153,112,256,130
132,207,67,86,143,99,208,122
127,202,63,86,130,99,203,120
165,166,63,76,94,100,187,130
154,173,68,71,77,95,202,134
163,186,78,71,77,88,163,123
163,186,71,71,71,89,174,128
157,195,73,71,72,90,172,132
112,177,74,69,69,84,176,115
111,172,70,64,63,78,170,110
108,165,64,71,59,78,178,100
134,196,67,72,61,76,203,105
144,193,66,71,64,77,213,105
153,194,68,70,56,73,210,107
153,208,68,79,57,70,200,103
147,199,63,74,58,68,223,110
139,160,57,74,59,72,199,106
163,158,51,72,56,73,207,123
165,161,45,72,57,88,220,121
172,144,41,66,54,88,236,134
176,134,42,69,53,96,232,133
163,147,47,72,62,89,229,133
137,137,47,71,60,88,214,109
125,144,48,70,59,74,247,113
138,170,45,68,57,81,237,106
143,188,50,67,61,73,215,104
152,176,48,57,46,72,232,97
153,181,47,59,43,77,231,115
158,177,50,60,49,78,191,121
142,147,56,65,58,70,178,117
127,114,58,66,54,67,202,115
119,145,62,68,55,71,181,124
110,159,63,67,55,62,180,110
110,162,59,64,49,66,212,107
91,174,61,59,42,65,264,103
105,181,60,56,40,71,244,109
108,192,66,54,42,71,247,98
141,184,68,58,42,72,246,100
145,179,69,55,45,71,236,98
144,172,65,56,42,74,188,99
137,171,60,65,67,73,228,93
141,161,51,77,85,72,223,98
110,157,46,86,94,73,227,101
97,158,52,92,93,64,211,87
100,154,48,96,96,63,229,81
119,156,47,90,84,58,182,105
127,139,45,84,72,73,213,111
129,132,62,87,77,73,225,105
134,125,59,94,90,88,220,105
139,136,63,97,97,92,198,105
127,154,69,107,100,96,198,85
118,163,71,113,99,91,168,80
126,165,56,105,106,94,141,76
138,174,57,104,97,78,139,73
140,190,57,102,90,79,140,76
152,169,50,94,84,74,140,89
147,151,52,81,82,64,127,88
143,153,57,84,55,55,145,93
142,177,56,73,49,62,148,104
144,157,55,77,73,54,143,104
135,170,58,75,78,65,144,113
137,170,56,78,77,67,163,114
132,176,55,69,78,71,172,110
130,162,56,71,81,76,177,109
129,164,54,62,59,76,184,120
145,157,48,63,59,75,201,103
146,161,45,68,81,80,220,113
145,159,54,101,121,81,219,118
152,181,56,110,130,87,229,109
159,213,65,119,140,93,236,109
144,211,65,119,155,107,243,109
138,211,67,130,157,105,225,116
142,205,62,109,135,107,224,124
145,202,62,138,149,97,210,128
148,174,53,135,147,102,192,124
139,172,58,137,140,83,218,128
140,170,56,133,134,91,216,108
148,177,63,143,136,89,214,102
137,173,65,130,125,89,223,124
135,185,64,130,134,73,241,134
142,208,62,130,127,72,191,129
157,210,62,129,121,62,205,159
161,225,56,132,121,59,189,162
153,205,58,114,116,62,180,149
141,193,61,108,103,64,161,138
136,166,59,108,103,65,176,142
119,161,60,106,109,65,151,110
98,141,53,81,100,64,161,106
98,134,48,75,99,65,212,99
107,117,47,73,95,71,224,97
148,111,45,71,89,75,226,125
147,112,51,70,75,73,221,122
141,104,49,75,77,78,247,116
175,135,53,75,58,81,265,124
175,138,54,71,46,75,251,124
149,144,56,67,44,68,238,92
163,145,53,54,44,78,271,96
179,139,55,57,100,80,303,108
142,105,55,70,117,71,253,116
134,124,59,84,122,77,268,129
130,123,68,94,135,77,269,133
122,140,65,124,159,68,236,130
114,144,66,132,141,71,167,135
126,205,62,126,126,73,159,116
141,219,68,135,153,85,160,115
141,229,60,144,148,85,159,115
141,216,60,150,128,86,173,136
135,236,61,148,120,82,198,123
143,194,61,150,122,80,193,134
138,165,46,138,87,64,200,121
137,165,44,119,84,83,240,131
137,182,46,87,80,83,240,109
148,179,43,70,72,78,218,108
146,172,43,65,71,78,233,95
138,188,46,54,60,74,241,115
159,172,42,53,48,53,201,110
161,163,42,34,36,46,188,111
147,132,43,39,33,44,176,108
152,132,43,42,36,44,156,116
157,105,40,43,36,46,109,100
134,125,44,46,37,41,124,85
133,144,48,50,36,41,138,99
132,140,47,52,38,48,141,100
117,146,48,50,34,45,226,113
120,155,47,50,35,42,228,121
116,161,48,47,35,44,255,121
118,151,51,41,34,46,272,119
130,176,53,38,37,49,304,134
133,204,55,38,37,50,269,118
131,199,56,41,35,51,264,108
134,185,51,41,34,51,229,122
128,181,45,41,38,49,212,112
124,183,48,36,34,39,182,104
122,154,45,35,37,37,157,110
141,182,46,32,39,37,160,139
159,200,56,33,40,41,171,139
175,231,61,35,38,47,158,143
177,224,63,48,41,46,149,139
182,231,62,51,40,46,140,143
167,208,60,51,38,45,170,124
154,195,55,49,36,39,163,117
165,238,53,58,38,34,163,110
178,231,55,52,34,34,159,118
212,219,53,50,32,32,181,121
211,222,53,51,31,39,171,124
218,241,54,55,34,44,168,146
205,176,54,47,33,42,179,155
197,179,54,42,34,46,175,151
158,183,56,40,33,47,152,150
166,180,56,39,36,43,139,142
163,173,58,36,34,40,169,111
157,151,53,41,34,41,159,97
172,169,49,41,32,38,154,98
175,169,51,44,34,38,179,89
188,203,54,43,33,40,171,94
178,190,58,41,32,41,160,107
179,188,61,36,33,41,154,108
157,167,57,38,34,39,163,106
178,173,55,37,36,41,136,101
166,133,55,39,34,38,146,103
167,136,48,41,34,38,130,98
174,151,45,43,32,40,137,103
177,146,45,44,34,43,133,106
146,128,45,43,31,40,143,114
128,128,45,42,31,40,132,108
141,143,52,44,34,46,138,126
126,139,55,52,33,46,142,125
162,143,57,64,69,47,140,125
181,167,57,70,78,51,125,120
186,197,61,70,80,51,118,122
195,181,57,71,80,46,103,95
214,171,53,68,84,49,96,112
197,168,56,58,57,47,108,109
180,167,59,52,46,41,116,106
213,142,55,52,44,41,139,107
211,143,54,50,41,43,141,123
190,153,53,45,32,37,147,104
180,183,54,42,32,35,162,102
177,182,55,44,30,41,175,100
148,175,52,45,29,41,164,105
137,178,58,45,29,37,161,84
144,187,62,44,30,39,147,80
142,160,61,54,30,38,123,82
154,143,57,54,30,35,102,103
136,136,60,55,32,36,96,97
128,127,57,55,32,35,97,106
121,116,52,57,32,33,102,105
138,148,51,51,31,36,119,111
129,160,59,52,31,37,113,95
126,163,58,48,30,38,107,89
142,162,61,46,33,43,127,112
140,156,61,44,32,44,138,113
127,140,67,41,35,44,117,113
152,127,59,39,35,43,120,123
162,136,59,41,36,41,127,133
147,145,56,40,33,37,111,106
156,150,56,37,31,37,99,119
170,140,44,35,30,34,106,132
151,139,44,34,29,33,110,120
146,124,40,32,30,39,115,118
155,175,38,36,29,36,114,124
147,184,38,38,31,37,123,114
143,183,42,38,30,39,121,89
151,191,42,41,32,38,127,114
154,192,44,43,30,34,131,110
164,139,47,39,29,35,129,114
169,119,50,45,30,34,145,116
172,128,52,48,30,34,143,128
160,118,51,46,27,37,143,110
161,128,55,43,28,38,148,123
144,148,51,43,30,38,154,128
144,146,48,39,32,36,132,125
135,145,44,37,32,33,133,127
130,145,45,36,35,34,154,126
122,139,46,40,36,34,136,109
132,132,47,42,35,34,129,97
127,133,47,40,36,35,121,98
121,124,49,37,36,34,133,89
125,121,48,38,33,34,89,87
123,143,42,33,32,34,101,86
106,148,36,32,31,43,110,84
139,164,43,37,27,50,129,102
142,157,40,40,28,54,125,103
152,175,43,42,30,54,129,107
161,157,42,44,30,53,125,111
166,146,46,46,34,49,155,129
152,125,42,45,38,44,143,115
209,145,44,44,39,40,144,135
208,132,43,44,38,38,144,138
199,128,46,49,39,38,147,136
201,122,42,48,37,39,121,129
203,125,42,44,34,38,142,129
144,125,42,45,31,38,144,116
144,134,43,47,31,42,154,115
154,155,43,39,30,42,162,117
150,163,49,39,31,50,169,110
156,177,48,38,29,51,156,128
162,181,48,38,30,51,144,112
158,169,47,35,32,51,133,103
158,194,49,40,34,54,149,112
152,183,43,37,32,44,137,112
129,169,48,40,36,43,127,91
110,151,46,41,36,45,146,92
109,147,50,51,34,42,149,93
105,108,54,50,32,40,123,83
125,113,55,50,34,41,125,85
148,146,54,49,33,42,156,135
151,151,53,47,34,47,158,142
151,164,52,40,33,49,159,144
163,158,51,39,32,47,152,150
152,155,51,39,32,44,144,156
130,161,49,42,30,42,126,119
125,173,54,43,28,36,129,115
130,165,52,48,29,32,131,115
154,154,47,49,49,33,135,126
159,158,46,53,55,34,144,114
158,148,61,76,64,35,142,109
156,131,57,78,66,37,114,106
150,137,56,75,65,38,118,116
106,147,56,73,53,38,123,99
97,168,57,71,49,39,112,95
96,168,52,61,52,38,97,99
114,171,52,62,53,37,100,106
116,185,50,66,55,36,95,96
125,177,51,71,55,37,90,95
119,177,53,74,56,37,89,100
138,172,41,68,72,37,93,113
125,173,42,69,73,37,118,104
123,148,43,72,73,40,135,112
131,154,42,69,72,45,148,115
136,140,41,72,75,46,163,113
111,216,52,67,50,45,169,101
123,301,77,62,45,45,154,103
143,310,77,55,45,45,143,95
144,322,82,57,47,42,153,118
150,358,87,51,40,53,148,118
156,321,83,47,36,52,145,127
167,243,61,43,35,54,164,127
157,240,60,43,34,54,177,132
148,235,58,49,35,51,157,125
148,166,62,51,38,39,162,128
185,155,61,53,35,42,161,122
197,202,69,57,38,40,145,123
196,192,69,56,38,38,119,123
192,187,71,51,35,40,118,99
206,194,62,44,30,39,113,103
185,184,59,44,33,41,124,95
161,121,51,43,34,43,112,103
157,124,55,46,32,40,113,94
166,108,46,42,34,44,120,118
142,99,42,45,34,45,113,108
159,102,43,44,35,41,102,129
160,129,52,48,37,40,104,120
172,124,48,46,39,41,104,128
159,132,46,46,38,35,123,109
156,123,47,47,41,36,132,111
137,125,47,47,39,35,129,93
126,100,35,47,39,32,136,87
126,127,61,48,37,34,133,79
130,144,63,46,37,34,120,97
132,157,65,49,36,32,119,99
120,166,66,50,39,31,136,106
133,172,68,44,35,32,129,112
121,160,48,44,37,33,129,107
122,158,58,50,40,35,149,100
122,164,70,52,40,35,139,92
115,169,71,52,40,35,126,78
96,165,70,55,43,42,140,83
110,166,73,51,42,40,157,95
145,155,67,52,40,38,136,107
144,142,52,47,40,39,136,110
151,121,48,47,37,42,160,108
165,116,47,45,33,37,152,101
154,121,45,48,37,43,138,96
133,155,41,43,36,41,158,103
133,155,43,43,35,42,164,108
149,156,46,45,37,43,145,114
138,163,51,45,38,40,142,121
144,174,56,44,35,43,151,122
136,139,56,41,35,44,121,99
139,152,57,40,34,45,111,93
118,170,60,42,34,42,119,89
125,209,69,41,35,43,125,85
132,213,68,43,34,37,111,83
145,221,73,51,38,42,125,83
180,213,81,60,42,42,130,98
188,216,81,56,42,40,114,98
189,191,86,58,44,42,110,103
178,167,97,58,45,42,130,108
175,170,94,55,47,36,115,113
154,187,86,47,42,34,111,102
147,170,82,46,39,38,120,106
145,164,69,47,38,40,126,100
153,174,51,49,38,40,105,103
140,171,51,51,33,40,109,93
132,183,51,52,36,48,114,98
136,207,55,54,38,47,140,110
126,208,53,53,40,48,154,118
160,209,61,61,42,48,158,129
166,199,58,72,47,50,167,130
171,169,59,76,47,47,183,148
161,161,55,74,45,46,173,138
165,155,60,76,43,44,161,133
160,153,48,68,40,46,157,128
156,196,56,59,34,48,174,133
159,202,57,52,34,46,166,128
178,206,63,53,35,46,161,127
177,204,57,49,33,49,167,131
162,215,56,44,34,50,187,146
172,202,50,40,33,47,167,144
164,196,46,39,34,45,159,125
144,174,54,41,34,47,156,121
140,170,56,47,37,46,146,110
148,178,57,48,36,43,148,74
137,162,58,49,35,44,142,81
129,169,67,54,38,48,135,83
146,177,58,51,37,45,157,98
148,176,56,46,36,42,175,107
118,168,55,46,35,40,158,107
114,169,50,39,36,39,165,113
120,168,37,33,31,35,182,112
121,169,34,39,33,40,189,132
125,175,36,39,29,38,176,138
138,155,36,40,32,44,169,136
135,154,38,45,32,43,184,124
151,146,50,48,38,41,203,138
152,130,50,47,37,40,181,124
155,133,51,46,38,40,176,109
144,152,54,50,37,36,212,108
147,141,53,46,37,44,198,127
126,144,47,44,33,44,164,114
102,148,52,42,32,44,163,96
129,145,50,44,33,50,168,113
155,158,48,39,38,52,124,119
157,152,50,37,36,44,121,98
154,148,47,35,38,43,136,97
160,151,41,37,39,45,193,107
139,157,42,41,36,41,201,110
115,134,41,41,31,36,199,101
123,144,41,43,32,39,202,115
128,147,59,47,30,40,193,119
139,141,60,45,34,37,153,127
128,150,68,56,35,35,130,108
147,145,71,60,35,37,141,123
136,144,71,64,38,40,131,109
137,146,58,62,37,55,153,110
130,162,63,66,35,58,152,93
130,153,60,57,33,60,172,106
100,149,55,54,34,58,166,93
109,148,53,46,30,58,168,98
105,157,53,44,31,46,143,97
109,154,50,41,29,42,132,103
115,138,42,42,33,46,111,93
126,135,43,41,36,50,111,94
121,139,47,45,38,45,112,104
120,133,53,46,36,43,116,98
107,123,48,43,37,43,115,88
113,132,50,41,35,43,109,87
109,141,52,43,32,43,130,82
127,133,50,46,36,44,130,78
135,142,44,45,38,47,129,81
142,145,44,49,38,47,170,85
136,137,44,51,38,41,183,85
132,135,39,49,40,41,165,97
112,166,44,51,41,45,170,95
122,156,56,50,38,43,180,103
135,160,57,49,37,42,143,99
146,164,54,47,38,43,138,112
164,159,56,50,34,38,143,105
168,130,52,44,30,35,138,101
169,132,39,44,34,36,129,105
156,151,44,48,35,39,125,111
189,198,55,52,35,39,116,112
190,214,56,48,35,41,156,120
198,210,58,48,35,52,155,122
199,220,61,48,31,52,152,112
208,233,62,46,32,52,165,112
171,217,62,49,34,51,166,103
155,201,61,53,36,50,125,94
135,203,60,52,37,41,124,89
141,211,62,52,41,43,131,106
125,182,56,48,40,41,108,100
116,146,45,39,36,41,100,92
133,145,54,36,36,43,115,93
147,149,53,41,32,39,121,93
126,123,46,40,29,38,118,74
126,106,44,39,26,40,112,74
137,129,52,44,30,39,119,98
136,140,46,41,32,39,104,94
140,128,45,42,33,42,97,112
172,124,49,46,34,42,84,113
191,153,58,49,36,41,106,119
191,144,51,46,33,42,137,101
180,130,48,46,30,39,138,102
175,142,48,44,32,36,141,90
141,160,45,40,30,35,156,84
111,154,37,37,27,31,151,74
101,160,50,40,30,31,122,82
100,177,53,43,30,34,114,86
119,173,58,42,27,37,123,78
133,164,64,47,27,38,120,93
145,174,62,46,29,39,112,101
148,173,52,45,28,38,119,102
146,177,53,46,27,36,144,99
126,184,50,45,29,32,175,111
115,184,42,40,31,34,168,101
104,159,41,42,33,34,169,95
102,154,43,40,33,35,169,94
122,140,42,33,36,35,163,106
122,125,42,33,35,34,118,98
121,121,43,37,34,34,121,99
180,117,43,35,33,34,134,120
204,135,46,35,32,34,139,141
200,122,45,35,31,34,133,134
201,138,43,36,32,35,160,131
204,146,43,33,30,38,167,136
159,157,46,47,35,37,161,123
124,135,42,49,35,36,151,96
109,148,45,57,38,36,150,92
147,149,45,59,38,37,130,111
168,173,62,61,40,35,123,121
173,169,61,53,34,36,134,117
172,169,70,54,35,38,144,128
189,163,67,46,32,41,144,138
172,153,69,47,35,44,142,122
150,101,55,48,33,41,136,109
138,92,53,49,36,41,148,113
147,97,42,45,43,44,154,98
132,94,42,45,42,43,158,100
148,126,52,49,42,40,157,113
150,139,56,49,43,42,153,108
149,149,59,45,42,41,153,105
149,155,58,45,34,39,138,112
155,157,61,45,33,37,135,110
151,158,53,41,29,36,131,113
149,151,48,36,29,39,145,114
149,144,48,38,30,41,118,111
141,141,47,39,27,38,127,113
138,149,43,40,27,37,121,104
138,121,48,37,27,38,167,116
137,124,49,45,27,36,178,113
140,133,48,47,27,39,179,115
140,152,54,50,30,38,174,117
145,146,56,51,31,40,175,128
111,150,48,53,34,39,156,101
112,156,47,50,33,41,132,103
118,166,49,52,35,40,128,113
128,151,43,48,34,42,132,117
111,147,40,48,34,42,155,104
116,165,45,45,31,41,173,108
125,159,42,42,33,38,179,114
129,159,42,38,28,33,186,109
115,162,45,41,28,32,185,102
126,189,45,40,30,30,179,130
124,168,41,38,29,30,148,130
115,176,45,47,31,33,156,137
105,159,46,52,36,37,153,132
113,177,62,60,37,39,156,125
101,175,63,59,38,41,157,95
104,197,67,63,40,49,163,96
104,200,71,58,38,51,161,89
101,212,71,52,33,48,182,94
110,200,57,47,33,49,180,100
117,185,65,50,28,51,178,103
122,174,66,49,31,47,163,106
146,169,60,48,34,44,164,105
166,157,58,48,35,45,164,117
170,186,56,44,37,44,171,113
179,180,51,45,45,40,172,120
178,200,47,44,41,39,209,124
175,207,50,45,41,42,206,121
186,245,61,48,45,42,188,128
182,318,116,54,46,39,177,128
195,366,168,54,41,67,162,162
216,375,172,52,41,71,135,238
228,391,199,49,40,70,146,350
258,371,211,55,40,72,140,403
276,317,196,54,38,79,138,412
272,294,159,52,37,59,142,399
275,329,164,61,41,56,128,379
281,359,155,66,42,60,105,362
266,369,150,58,40,61,113,304
247,352,140,54,40,54,131,316
246,353,136,50,38,54,130,322
240,307,125,43,36,53,118,299
232,258,93,37,36,48,110,217
225,248,67,37,36,53,118,221
195,366,168,54,41,67,162,162
216,375,172,52,41,71,135,238
248,248,81,40,37,50,101,188
251,212,76,40,37,49,101,202
237,196,76,36,38,47,109,209
217,166,80,34,35,45,122,188
197,176,93,36,37,41,110,174
162,166,78,32,34,46,124,174
145,164,82,35,34,47,131,157
146,172,78,35,36,50,154,145
154,184,81,35,36,53,145,165
140,169,65,35,35,52,142,157
147,174,67,35,36,47,136,152
165,207,76,33,37,46,136,146
178,204,76,32,33,43,108,142
174,195,67,33,35,41,107,107
210,205,69,37,37,37,114,131
221,207,69,42,37,38,106,142
211,182,58,42,37,39,115,145
195,171,60,44,35,41,114,144
208,194,59,43,35,42,116,174
179,189,61,38,32,41,113,160
172,193,68,41,43,53,130,166
206,190,66,44,49,57,120,177
241,196,62,44,49,56,116,181
237,239,75,48,54,55,124,170
241,257,80,50,56,55,148,183
244,276,82,46,48,51,157,184
240,383,88,46,47,47,158,178
224,400,91,48,50,47,158,181
233,378,90,48,47,48,154,169
224,376,83,45,43,50,133,170
218,367,77,44,45,54,121,158
196,268,91,44,40,52,123,143
178,246,89,41,37,52,141,130
170,236,80,41,35,62,141,129
191,240,99,49,40,70,148,137
182,226,101,48,38,64,141,128
229,219,82,49,45,67,132,182
223,231,89,51,46,68,116,184
218,271,99,47,44,63,145,191
218,263,85,41,43,54,160,183
223,272,88,41,43,51,174,189
203,277,93,47,39,52,196,176
208,286,107,53,51,53,213,199
220,295,207,112,56,59,227,214
218,346,322,153,64,62,280,247
268,436,359,160,65,67,280,320
272,443,364,158,72,71,353,310
335,481,374,161,65,69,383,350
347,454,335,133,65,64,390,348
426,509,265,97,58,64,369,344
402,432,212,92,61,71,382,301
395,454,217,94,52,75,310,325
400,420,194,92,55,81,273,278
387,466,190,86,50,82,273,293
306,380,134,73,48,81,269,317
303,424,147,75,48,72,247,306
302,417,141,72,46,67,288,272
252,395,135,61,43,65,308,268
250,342,128,62,47,64,300,252
265,325,132,65,48,73,282,198
268,293,135,59,43,75,277,183
272,244,122,60,42,76,277,239
294,280,125,61,46,78,255,263
303,281,123,60,40,77,232,257
323,300,119,61,43,69,222,283
340,356,127,59,48,71,229,312
383,427,158,68,50,79,200,342
378,471,203,85,48,86,233,324
427,533,265,100,60,102,241,352
449,629,330,108,62,101,260,389
448,631,327,109,68,119,312,384
469,620,315,104,69,111,342,389
508,615,301,94,68,103,330,417
484,662,306,84,67,94,328,431
450,642,267,84,67,96,335,430
443,650,271,82,59,71,317,454
445,656,281,93,64,80,278,435
376,637,276,91,63,89,271,420
338,558,222,86,60,103,269,390
410,495,195,78,60,105,274,351
412,446,181,76,62,117,319,298
353,413,169,60,53,111,325,241
383,437,175,60,55,108,319,244
391,426,159,56,49,87,324,238
340,508,186,68,47,92,321,224
343,519,184,68,45,74,247,262
323,558,187,79,54,74,241,277
366,529,173,77,51,80,274,260
393,516,171,76,53,79,307,322
375,465,136,63,50,77,317,320
439,547,176,69,52,77,345,338
458,556,180,63,46,79,339,330
437,545,189,63,46,70,318,342
421,614,201,68,51,90,342,295
432,581,189,65,54,91,317,291
359,488,160,62,52,90,282,255
335,453,174,70,55,93,287,264
322,591,202,72,54,107,287,312
346,543,200,69,51,101,240,323
329,535,205,71,46,100,250,321
349,537,202,73,49,107,252,328
352,522,183,62,48,105,269,331
328,404,167,72,54,98,295,298
287,422,176,77,54,93,267,272
272,452,186,84,61,89,263,273
236,452,187,82,59,80,275,255
235,428,184,82,58,75,291,249
219,387,157,69,52,66,250,215
237,422,149,66,50,69,248,235
245,405,149,57,42,77,243,240
257,395,157,56,42,82,228,232
248,410,162,55,39,86,160,236
243,420,168,55,40,85,167,222
253,340,160,50,41,85,196,187
225,317,153,47,39,73,202,162
214,351,143,44,44,72,215,177
225,381,146,46,55,73,223,151
224,378,149,50,57,77,223,185
192,388,153,50,56,74,226,182
185,390,154,49,56,76,230,184
195,364,160,55,53,75,237,242
187,318,148,56,46,79,252,255
195,317,135,55,44,84,262,239
201,287,120,57,44,82,260,233
217,282,120,58,50,82,258,240
215,328,120,61,58,88,234,152
226,319,128,66,60,87,211,143
231,337,132,64,59,80,216,131
239,352,146,63,59,75,205,161
322,398,164,76,56,73,198,183
347,367,157,71,47,67,209,249
354,527,304,94,47,58,210,253
356,664,398,114,54,67,210,269
380,678,404,117,57,72,195,292
331,670,424,130,66,79,201,277
300,669,435,132,65,78,189,240
286,621,365,122,70,81,183,244
288,446,259,103,65,67,221,251
255,438,245,100,64,65,243,235
230,429,200,74,55,57,237,248
235,488,199,78,60,57,233,242
258,457,172,67,51,60,282,260
302,473,183,72,53,62,253,280
298,462,191,71,50,58,297,256
303,469,185,68,51,64,293,239
314,441,170,59,45,60,302,248
293,415,183,57,43,48,263,227
267,422,178,51,41,52,282,190
264,417,170,57,44,70,213,199
251,375,165,58,43,63,219,210
250,407,171,64,44,64,207,194
299,375,143,63,46,65,213,194
269,411,165,66,46,68,174,186
281,403,163,63,41,51,190,209
299,419,183,65,40,52,215,230
296,380,178,60,38,52,218,224
236,386,190,61,40,54,205,211
223,370,193,66,42,61,233,207
212,417,196,69,47,57,239,187
198,421,185,63,44,58,216,152
181,393,176,64,46,59,246,163
194,386,162,62,44,58,256,165
204,350,140,60,44,45,238,166
188,322,171,60,40,52,241,163
183,299,161,61,43,57,275,176
180,295,169,57,41,55,258,180
168,299,173,56,42,54,256,185
167,279,161,47,41,63,242,193
180,276,121,40,41,62,232,189
192,274,122,40,40,57,242,178
184,255,98,39,40,57,236,173
184,280,109,42,40,60,234,177
173,291,115,44,37,49,241,161
168,259,110,41,39,52,235,218
137,268,104,41,38,53,175,214
149,296,129,44,36,58,228,206
166,259,113,39,32,57,239,201
172,256,111,39,32,56,234,202
192,246,112,40,33,59,279,138
203,265,119,43,33,61,282,151
191,249,98,40,34,55,254,156
189,287,100,47,38,54,236,149
219,344,124,50,41,54,249,147
197,417,150,56,39,48,205,146
187,410,149,53,41,45,226,128
195,399,158,55,42,48,205,126
208,417,196,57,39,47,233,142
182,384,186,59,48,53,245,152
199,302,163,52,48,54,253,153
211,295,167,55,47,52,251,172
212,338,193,61,50,55,252,171
182,281,152,52,52,60,257,154
175,248,148,51,43,56,238,139
143,276,155,54,42,54,220,144
167,273,151,51,39,53,213,120
153,243,111,46,35,46,219,115
181,252,108,48,33,40,183,131
181,279,116,43,32,38,196,142
205,305,172,56,32,36,191,130
185,300,172,59,36,38,180,140
197,319,174,59,39,46,187,140
177,327,182,60,37,49,185,132
180,322,188,60,37,47,199,117
198,307,136,50,38,51,216,148
193,308,133,48,36,54,204,155
243,319,141,50,36,55,216,184
246,358,166,53,37,58,241,180
255,346,150,51,36,58,226,192
237,390,164,51,37,54,226,182
232,384,161,51,37,52,268,168
173,352,145,46,35,49,246,146
165,304,110,45,36,45,224,144
148,335,108,46,37,47,222,134
129,248,87,41,35,47,216,120
150,250,100,44,34,45,165,138
162,244,113,47,33,40,167,141
184,237,116,41,33,45,172,163
210,187,122,47,36,57,197,175
225,202,117,47,36,56,189,184
235,208,117,43,35,56,193,177
226,192,104,41,39,61,191,167
219,246,121,45,39,61,184,148
206,268,119,40,36,49,160,137
203,311,153,47,38,51,176,133
181,302,144,46,38,50,170,124
176,317,144,46,35,47,180,122
187,302,125,43,33,43,190,125
192,338,137,42,33,44,173,147
183,293,107,38,35,43,146,157
187,302,116,39,35,41,154,175
193,291,113,38,34,39,166,191
172,268,109,35,32,38,203,190
177,241,96,36,30,42,210,188
171,252,89,34,29,43,218,178
156,264,96,35,27,44,217,161
152,282,101,39,28,45,198,142
169,287,107,41,31,43,154,152
130,253,103,40,33,39,202,135
129,232,98,41,34,42,202,133
144,261,108,42,38,43,200,143
140,244,106,38,38,42,208,140
125,232,97,38,38,46,228,133
130,251,102,37,36,46,203,124
133,260,103,41,39,46,202,119
122,230,76,40,36,46,205,112
153,242,83,43,40,51,197,118
190,260,87,43,38,47,177,142
196,246,79,44,39,49,205,146
194,253,108,40,34,47,211,143
211,258,111,39,34,44,208,165
205,244,113,37,30,47,225,161
196,235,118,37,30,51,270,168
194,232,123,38,31,50,235,174
195,217,104,36,32,51,228,178
178,238,102,34,31,53,232,159
155,280,108,36,33,50,232,162
109,268,100,34,36,47,184,137
106,270,125,35,35,49,193,136
113,261,119,35,37,49,190,155
125,220,123,40,37,46,213,153
123,161,111,36,38,45,286,166
135,158,115,36,35,45,300,165
141,164,98,38,35,38,294,158
138,196,100,39,34,36,297,148
147,210,101,41,39,41,281,144
197,210,105,42,35,38,197,145
193,212,99,40,34,35,155,139
189,211,88,41,32,38,146,137
199,213,82,40,31,39,176,137
188,193,74,37,31,42,185,139
163,194,68,35,33,44,173,138
158,191,67,36,37,50,187,133
202,209,65,35,38,55,219,156
198,192,88,38,40,55,186,156
206,181,85,34,36,49,200,153
211,183,82,37,37,51,221,137
223,186,95,40,34,46,225,138
193,158,91,40,32,38,194,126
198,148,70,36,28,37,209,127
194,163,72,39,32,40,203,134
170,179,79,38,32,36,206,139
171,205,65,37,34,42,194,142
162,212,81,38,37,48,197,136
157,208,80,38,39,50,182,137
152,202,81,38,38,49,157,144
159,243,77,41,38,49,152,159
167,226,74,39,36,53,159,166
184,224,70,40,34,47,157,163
187,232,82,43,34,45,161,155
188,240,85,45,33,46,164,151
181,211,85,43,33,48,154,122
170,205,88,48,39,42,146,115
163,209,79,46,41,46,153,148
158,220,79,47,41,50,160,156
165,255,76,43,39,53,166,161
172,250,83,45,42,52,205,169
174,258,84,40,35,51,234,171
164,248,86,41,35,51,239,141
152,238,75,39,36,53,237,140
186,207,85,39,42,53,237,121
177,243,85,37,39,51,198,125
174,236,82,39,41,49,163,119
186,251,83,38,39,43,174,129
187,267,86,36,37,41,168,130
139,253,79,35,31,34,162,134
143,213,70,36,30,35,157,124
140,217,71,35,30,37,159,121
130,205,72,34,33,44,141,111
157,220,74,33,34,43,146,114
180,235,73,34,33,42,163,128
208,251,82,33,35,42,169,158
203,251,80,34,34,42,172,158
208,244,73,32,30,36,203,167
208,213,77,36,29,31,206,160
192,217,84,36,34,41,211,159
163,219,80,39,32,40,208,143
179,221,86,39,33,41,240,156
168,260,92,42,34,45,215,144
161,280,91,39,37,48,219,151
180,292,92,41,33,41,212,142
199,274,87,39,35,41,232,138
184,298,82,38,35,43,208,130
190,271,80,36,36,43,223,142
183,256,76,36,38,44,219,132
167,236,64,35,39,45,207,130
142,226,63,37,41,46,181,114
153,197,73,36,39,40,158,116
158,182,72,34,36,37,144,113
149,181,77,37,33,34,132,115
143,184,83,36,35,39,131,118
154,218,91,33,33,37,137,125
169,204,81,32,37,38,148,129
161,204,80,33,40,41,141,120
162,230,79,29,39,43,154,119
174,223,84,32,35,38,161,125
167,199,80,31,35,39,173,135
164,200,82,32,34,46,191,142
184,275,97,38,36,45,188,153
187,252,111,44,39,45,177,166
181,253,102,46,41,48,231,157
182,263,101,47,41,53,227,158
173,267,103,48,39,47,216,146
141,203,90,46,35,45,216,134
137,210,81,42,32,48,216,119
126,232,80,38,30,49,165,122
135,224,90,39,29,43,160,131
140,232,93,36,29,43,151,128
185,234,92,32,27,42,138,149
190,252,80,29,29,41,149,156
193,233,87,33,29,40,172,154
182,220,82,33,29,39,170,137
185,208,73,33,29,43,167,160
151,219,82,35,33,43,187,171
148,187,79,36,35,46,242,162
147,179,73,32,35,41,217,160
199,215,66,33,33,42,211,182
195,245,76,35,33,40,216,170
194,247,73,33,28,43,229,151
192,240,72,34,24,36,198,155
211,237,69,36,27,39,195,173
168,218,78,36,28,40,199,143
159,194,74,36,28,39,216,135
163,168,63,37,31,40,194,125
159,189,64,36,32,42,168,127
137,229,73,37,30,41,183,126
137,223,61,33,28,41,180,127
137,248,68,39,28,43,167,131
127,263,99,44,31,48,189,145
124,264,101,46,32,48,196,140
126,237,99,46,33,51,198,116
132,249,122,51,35,51,215,118
124,230,120,46,35,52,214,109
118,220,99,45,34,50,227,103
133,222,104,42,35,51,212,110
137,223,100,40,35,47,207,133
132,213,74,33,34,46,205,131
136,207,68,34,35,48,205,133
147,202,76,28,30,42,180,122
152,231,85,31,31,41,184,127
144,249,136,40,30,46,186,105
145,270,156,41,29,44,192,121
159,361,185,48,31,41,233,125
165,366,201,52,33,45,229,148
168,355,210,52,31,42,266,156
174,338,188,49,35,41,276,174
185,395,191,58,41,51,284,171
212,334,178,56,40,52,276,164
214,354,168,55,42,63,294,160
227,367,154,58,47,76,271,149
258,403,189,61,44,74,264,217
263,525,326,88,52,70,259,232
271,573,339,98,59,79,228,240
288,565,335,96,62,74,210,244
283,580,353,97,59,73,201,251
272,582,346,97,63,80,309,190
276,539,281,82,60,78,294,213
254,493,256,66,54,73,313,208
228,511,255,68,50,71,343,190
214,488,230,64,47,64,352,180
201,483,236,70,45,57,319,188
199,375,150,54,38,65,341,158
194,353,152,52,36,61,326,165
228,332,165,54,39,66,296,178
237,383,172,58,42,74,291,178
239,408,184,49,38,76,221,184
251,372,181,48,40,70,194,177
248,398,180,50,45,80,228,177
219,400,173,52,44,85,228,171
217,357,167,48,44,76,238,168
235,307,105,43,43,74,252,150
203,356,122,47,41,76,268,134
200,330,121,47,41,67,239,128
205,323,115,45,38,51,237,116
194,321,117,46,36,53,222,113
175,335,127,48,39,59,227,97
177,310,117,42,41,58,220,110
182,313,117,40,38,61,215,106
185,302,119,40,40,72,250,126
197,322,145,43,43,71,270,145
179,315,140,38,41,66,244,146
197,336,136,40,40,69,251,150
195,340,146,46,40,63,270,152
179,351,146,45,36,54,224,137
191,320,113,40,33,59,193,127
193,350,130,49,36,73,215,136
174,308,125,47,34,74,221,136
159,289,114,41,33,75,208,128
171,272,110,39,31,71,207,133
139,293,112,47,37,70,205,121
147,236,95,44,37,55,194,142
158,235,92,42,36,51,228,158
169,274,97,47,39,56,220,170
158,275,97,47,40,65,278,175
172,264,100,40,36,63,280,179
183,263,91,36,33,65,281,173
176,277,106,38,34,65,252,144
179,265,112,35,31,66,272,139
204,261,110,39,37,61,210,144
240,254,107,41,37,58,214,160
221,288,115,43,37,59,225,149
216,300,105,41,36,60,190,147
214,290,98,43,39,69,166,154
198,359,132,45,34,66,216,155
161,378,134,43,35,67,212,134
163,347,128,41,36,65,193,126
167,336,131,44,39,65,249,144
181,340,130,40,38,60,263,139
179,265,95,32,37,61,252,123
155,212,90,32,35,64,260,121
154,209,96,34,41,78,274,128
176,214,93,36,39,79,245,121
151,217,86,35,36,71,237,106
138,215,85,36,39,69,206,101
153,215,92,39,38,65,230,112
153,210,82,39,38,50,220,115
134,230,78,34,35,49,206,105
140,259,100,37,38,56,199,109
170,279,104,38,38,58,237,115
167,290,99,38,40,58,231,107
168,296,99,36,33,57,235,117
161,268,102,37,36,55,236,113
162,235,86,42,37,51,239,119
132,211,82,41,43,60,221,123
140,201,89,38,41,59,206,126
141,210,91,42,43,59,251,119
148,210,85,41,42,66,240,120
144,191,88,37,42,68,235,119
145,198,87,37,36,68,285,119
128,211,79,36,36,68,293,116
193,287,106,44,38,74,251,106
192,277,111,47,37,68,262,112
193,275,106,45,34,66,327,117
200,292,112,45,33,70,276,120
223,283,115,45,34,71,264,125
179,267,118,39,34,67,384,147
175,280,117,42,39,70,389,157
173,338,135,43,39,72,342,150
183,322,131,44,39,58,445,190
162,336,130,46,44,61,452,275
161,325,129,45,42,64,358,269
187,345,148,46,38,61,361,274
205,354,146,49,39,57,375,382
299,411,189,71,47,68,293,497
355,562,227,83,49,63,304,561
356,575,232,83,48,56,305,566
371,619,280,100,65,68,293,575
414,601,293,105,69,72,283,517
350,582,274,93,64,61,243,393
297,466,249,85,65,67,226,244
328,502,254,86,67,69,220,307
305,538,211,68,53,55,224,310
254,563,195,58,48,51,202,337
251,569,198,59,53,65,278,336
246,557,204,57,50,61,281,328
205,555,217,62,51,64,283,296
216,518,198,59,49,66,273,272
195,488,203,59,51,66,271,241
187,468,197,55,44,52,177,235
187,449,185,53,41,50,191,272
199,395,143,46,40,46,204,287
178,344,161,61,42,48,221,331
179,359,145,61,46,47,235,334
190,379,145,63,47,51,243,354
208,426,171,67,49,51,209,352
186,400,165,64,47,48,188,314
179,394,150,53,47,48,184,268
215,383,152,50,42,46,193,266
204,357,154,52,45,46,181,283
180,302,131,47,43,47,171,233
202,324,141,51,42,52,197,240
235,302,124,45,38,49,177,237
193,303,168,46,37,50,148,247
198,301,163,44,32,47,145,207
198,299,160,49,44,58,203,210
184,267,158,43,45,54,177,257
148,262,160,47,46,53,178,257
156,251,142,51,47,52,177,227
174,266,140,52,49,56,188,216
223,313,134,49,39,42,173,247
219,321,127,49,40,46,180,180
210,313,128,45,40,45,180,163
225,324,89,41,43,51,198,171
234,325,85,39,46,54,221,230
193,294,81,37,46,55,205,204
191,304,88,36,47,51,196,197
194,313,91,41,47,52,194,236
174,278,88,38,44,49,197,234
156,259,96,38,40,43,225,179
159,250,102,37,37,45,218,171
149,228,99,38,33,43,220,225
151,202,93,33,30,43,229,185
156,190,90,34,36,51,248,194
140,256,81,33,33,54,192,249
149,274,76,35,35,51,185,246
156,361,143,44,39,59,183,201
173,366,147,45,42,60,276,233
166,365,146,43,37,52,257,246
184,375,165,48,42,47,260,197
191,388,181,48,41,48,290,213
192,315,139,43,38,40,328,211
179,327,135,46,41,40,263,220
182,341,144,46,41,40,264,201
163,375,143,42,36,39,261,201
142,362,125,43,39,42,226,187
148,365,121,41,38,47,166,236
162,368,138,40,34,50,260,202
162,431,138,43,36,51,248,193
166,378,136,45,36,51,248,198
179,354,132,43,36,54,253,225
180,356,131,46,36,52,278,188
173,372,122,43,34,48,177,183
186,296,119,40,31,45,170,184
200,266,95,35,34,53,177,183
208,366,123,45,39,56,217,157
201,375,122,40,36,55,205,145
197,385,120,41,38,54,200,189
183,385,111,40,37,53,207,194
174,418,137,44,37,51,201,193
162,335,114,35,31,41,155,193
167,311,111,41,34,40,124,191
177,253,105,39,34,42,127,140
209,277,110,40,40,51,176,135
208,219,93,35,38,44,203,227
254,280,102,38,39,45,209,225
251,280,110,33,38,46,223,224
247,292,111,35,41,61,252,255
255,266,106,34,38,55,245,275
265,280,110,38,37,58,229,200
221,232,103,35,36,57,220,200
233,251,94,34,35,61,237,210
219,234,99,33,32,49,266,207
196,274,122,35,29,47,251,214
174,323,127,34,30,48,242,224
156,342,127,35,31,51,242,220
140,328,126,35,29,45,225,214
153,350,123,38,29,44,158,230
132,340,129,46,33,46,180,195
149,342,144,49,34,47,186,185
163,321,144,49,37,48,209,186
162,330,154,50,40,49,219,247
148,321,156,51,45,51,230,209
146,304,137,48,42,50,200,216
131,244,96,43,42,50,193,209
168,244,100,48,43,51,231,284
187,244,91,46,42,49,219,243
188,225,87,44,36,45,202,239
189,252,86,38,37,48,210,234
182,270,93,38,36,44,217,252
137,261,79,31,30,42,196,161
104,247,80,32,26,41,189,138
172,265,84,31,29,44,203,158
172,245,87,33,28,43,216,155
190,211,94,34,30,44,226,203
189,233,106,34,31,41,200,200
196,227,102,33,36,44,197,204
159,229,104,37,34,44,217,192
172,228,99,34,32,42,212,200
181,241,92,35,35,49,220,141
184,226,88,37,35,50,205,140
221,240,88,37,35,49,218,175
246,231,77,35,35,52,191,173
239,210,82,39,40,66,178,170
223,219,89,40,38,61,143,199
229,225,86,42,42,66,146,204
224,260,94,44,42,68,169,190
201,253,93,43,43,71,205,257
198,336,114,44,41,58,209,252
199,346,111,42,40,64,225,238
189,338,107,38,39,71,302,246
148,379,141,46,37,72,321,232
122,409,150,49,38,71,304,203
136,368,135,47,36,69,310,206
201,353,132,47,39,63,318,200
211,383,150,53,38,59,278,194
211,313,121,49,40,57,234,193
214,319,120,46,38,51,230,134
206,321,124,47,38,55,239,136
144,355,144,48,36,64,251,129
135,338,133,44,33,55,221,165
133,345,126,40,28,54,217,167
139,307,120,43,31,53,208,170
145,289,119,40,34,55,184,175
133,234,89,38,34,54,147,211
123,228,77,36,34,53,159,183
124,277,85,34,33,51,159,189
125,288,85,32,34,53,188,191
131,282,77,33,36,49,185,189
152,289,78,32,38,52,192,138
170,290,93,34,39,54,196,177
197,238,85,36,41,60,235,174
191,232,83,35,40,59,219,181
183,304,86,33,35,57,232,174
189,314,87,33,31,46,225,177
173,300,82,32,32,44,248,193
145,296,84,36,35,40,219,193
147,323,97,37,34,40,219,190
143,266,91,40,41,46,215,199
123,247,96,38,39,44,209,190
134,245,91,38,41,46,188,123
152,257,94,34,39,44,186,121
157,235,94,33,40,50,177,124
176,223,96,32,33,50,163,154
176,222,93,34,35,54,189,171
171,271,104,37,35,55,169,181
151,292,99,37,32,54,162,223
147,259,82,36,31,49,173,215
131,269,89,35,30,43,181,188
139,316,101,35,28,39,156,184
151,314,90,31,26,36,179,209
155,290,99,29,28,41,189,218
149,307,116,32,28,44,212,219
154,312,116,32,29,49,240,226
179,305,113,33,34,52,237,219
172,283,109,34,34,52,213,183
174,284,113,37,35,48,204,180
192,293,104,35,35,44,178,186
192,279,101,37,34,42,137,176
165,237,92,36,30,41,141,175
159,249,91,35,28,39,135,177
156,249,86,33,25,39,137,108
157,226,82,39,26,40,172,93
159,271,82,39,27,37,174,101
161,284,89,39,29,43,166,104
157,268,91,37,28,42,175,97
154,259,79,38,29,44,182,89
131,273,92,35,34,50,157,87
138,231,89,34,34,51,157,178
148,219,79,32,32,50,186,178
159,221,81,33,37,55,182,182
163,222,92,34,36,54,178,186
165,200,77,29,35,50,180,190
152,250,80,30,35,53,182,196
129,263,90,33,35,49,161,199
144,252,88,37,34,44,175,200
142,262,82,35,34,45,172,201
152,289,92,37,33,45,163,199
158,259,105,38,32,40,156,193
187,254,99,40,32,39,149,202
170,284,116,42,32,48,128,201
167,274,112,46,33,50,199,208
172,262,108,47,33,56,200,247
176,268,95,45,34,59,201,197
159,357,113,45,35,61,199,197
159,331,98,40,32,57,243,201
188,327,99,39,34,56,206,210
170,332,103,36,32,48,210,164
163,378,109,40,32,45,210,216
171,280,86,37,35,51,215,215
179,314,98,39,35,55,181,214
149,316,98,39,33,57,177,196
152,310,93,38,33,57,156,196
152,231,87,33,30,56,152,122
144,230,90,34,29,54,154,119
143,195,70,30,28,45,133,169
173,208,70,28,29,42,106,183
190,201,73,34,32,44,115,185
191,195,65,35,34,43,165,190
189,211,65,32,31,38,167,186
193,227,64,31,32,41,169,137
169,268,81,36,31,39,178,188
153,313,101,36,30,39,251,191
151,313,101,37,31,43,236,190
148,306,105,36,33,47,228,186
148,307,109,39,37,46,235,191
173,275,95,35,39,46,262,136
168,218,68,31,37,43,241,129
207,234,69,30,36,43,246,123
208,244,74,35,39,40,250,123
210,269,82,34,36,39,264,126
192,258,84,36,34,44,246,172
190,264,92,39,38,45,200,174
154,264,93,39,40,45,191,173
151,264,87,38,37,45,193,177
130,237,75,37,39,53,166,169
128,247,93,36,37,49,144,104
154,267,86,32,34,47,131,103
166,283,86,33,31,47,128,111
171,266,78,29,33,54,171,108
172,257,86,30,29,48,181,106
173,244,64,28,31,48,179,107
169,239,74,28,36,57,188,109
155,211,74,29,37,59,225,102
160,222,75,31,35,52,188,187
163,231,65,29,35,51,181,188
172,222,67,30,36,53,191,192
177,239,62,30,32,60,218,193
181,235,59,28,31,55,183,199
198,268,63,32,30,56,209,140
199,259,68,34,33,57,204,138
188,270,68,35,32,59,210,139
171,234,57,36,34,47,197,140
165,240,57,35,35,48,208,132
159,217,69,31,35,47,183,144
165,277,100,36,33,48,194,140
158,286,101,35,33,47,241,132
172,291,101,37,32,48,223,128
168,288,109,38,30,46,218,127
141,313,104,37,29,44,233,82
133,276,79,32,31,47,240,94
145,278,87,32,32,46,182,101
156,266,86,30,35,47,183,179
150,297,78,31,36,49,174,179
144,294,74,29,35,54,167,183
146,300,70,28,34,51,158,188
184,308,70,31,38,52,168,196
186,323,70,30,36,53,171,137
188,297,68,31,39,63,161,134
196,267,75,31,38,65,146,125
203,262,69,32,39,68,182,118
188,248,55,29,36,68,199,102
185,258,71,32,36,65,204,153
183,268,80,33,33,51,206,168
184,259,77,37,37,52,219,170
191,250,77,38,39,48,180,169
167,262,86,38,34,45,159,175
141,275,90,38,32,42,159,122
155,274,84,36,33,46,179,101
185,326,83,35,34,47,165,105
208,350,90,32,32,44,167,202
216,337,88,31,31,42,163,197
217,309,72,29,30,47,164,197
221,303,70,29,30,47,136,200
198,250,69,29,25,47,159,200
160,218,65,33,27,54,205,173
152,238,70,37,28,55,208,173
161,237,72,35,28,53,197,173
159,221,70,35,32,65,213,172
150,265,72,34,30,59,194,179
150,257,65,32,29,54,161,106
149,240,52,28,32,53,148,103
141,271,60,32,35,63,169,105
138,298,61,31,36,53,142,116
150,268,63,30,37,52,185,198
139,259,64,28,35,53,184,207
136,256,64,26,33,56,185,216
156,265,89,29,30,44,179,221
142,286,93,31,30,49,190,218
139,281,91,36,30,47,152,144
142,289,94,39,33,47,148,130
157,333,105,43,36,47,194,126
149,302,77,40,35,46,191,113
162,259,77,42,32,37,190,105
159,264,85,38,33,39,209,95
163,264,82,38,38,45,200,95
157,210,71,36,44,41,156,86
159,210,69,37,45,42,208,148
150,204,64,38,44,43,213,150
150,206,54,38,43,44,188,145
167,251,80,37,38,38,191,144
162,232,77,35,29,42,196,143
174,223,76,35,31,44,147,76
172,229,81,33,31,46,141,70
180,235,78,32,33,47,145,73
163,170,53,31,33,47,147,72
161,190,55,35,36,47,174,86
130,267,84,37,34,44,169,81
130,273,87,42,32,44,161,83
118,283,88,43,34,45,186,92
153,293,88,45,40,56,197,98
158,298,87,42,40,54,184,91
161,255,72,40,40,55,172,95
158,260,68,32,40,52,168,95
163,247,66,31,40,51,168,92
126,242,68,30,33,39,152,88
144,234,70,31,36,44,177,78
149,236,54,35,40,48,185,76
196,248,50,35,41,48,190,84
189,242,49,34,39,48,199,80
192,284,59,33,38,47,201,85
192,281,60,33,35,40,164,81
188,265,60,27,33,41,158,85
154,239,59,26,32,40,187,82
161,239,58,26,34,42,155,80
165,187,47,28,36,43,146,79
145,181,44,30,34,42,144,85
149,167,48,33,36,48,204,81
157,220,51,35,36,51,186,83
154,213,49,36,34,50,186,85
147,224,47,34,34,49,191,79
150,283,68,34,32,49,209,78
169,330,70,32,27,39,173,83
157,299,67,32,28,41,167,96
155,324,69,31,27,39,162,100
158,329,70,32,26,42,159,100
151,300,49,31,30,43,165,100
128,270,45,30,35,46,148,99
137,275,47,30,34,38,141,81
134,253,46,30,33,36,144,74
141,242,42,30,34,35,143,75
139,217,44,29,31,33,134,71
135,191,39,28,26,30,134,72
114,257,43,26,30,37,138,67
109,268,46,28,31,37,138,63
92,274,45,29,31,38,135,63
98,273,43,29,34,42,124,68
96,294,43,31,34,40,123,62
88,248,33,30,30,35,126,68
79,234,28,29,29,34,124,74
77,236,27,27,32,41,133,80
82,243,31,28,32,48,173,81
102,221,34,34,33,50,174,81
105,195,36,36,34,52,176,85
126,176,39,39,35,54,190,85
136,172,42,38,33,47,188,83
171,169,40,40,33,40,169,95
165,181,36,34,32,39,166,93
176,183,39,33,30,39,160,92
166,215,40,34,32,42,231,90
165,229,38,35,34,47,287,86
123,235,40,29,32,42,279,78
130,225,43,41,34,47,280,81
146,250,42,49,34,49,349,80
158,226,40,51,35,49,302,84
155,234,42,50,34,49,248,91
156,261,39,51,37,53,243,87
149,335,55,44,36,52,256,107
147,332,61,35,36,51,172,118
145,349,64,29,35,49,179,176
143,341,68,33,35,48,179,174
138,314,68,32,35,47,183,173
153,258,63,31,36,47,186,179
168,259,63,36,38,52,173,241
176,374,115,42,39,54,181,235
201,406,136,51,44,53,190,310
239,461,138,53,41,49,194,325
320,533,145,57,48,52,177,368
404,552,153,59,48,52,176,401
412,499,145,63,48,53,221,437
477,491,166,68,45,54,228,419
474,507,175,72,50,63,237,429
443,439,172,70,47,77,288,411
360,418,168,66,45,72,294,370
369,410,159,58,44,70,249,315
278,379,117,44,46,73,243,284
259,315,106,41,45,72,236,256
245,293,99,41,45,58,174,235
255,289,93,41,45,57,156,226
250,253,68,40,43,56,158,218
246,262,69,39,42,57,156,215
265,228,60,33,37,54,210,219
248,235,59,32,31,53,220,253
228,224,61,30,31,59,224,220
213,275,74,34,32,61,223,222
227,275,79,33,30,63,263,226
205,306,82,33,29,63,221,259
227,290,79,38,35,61,209,229
228,300,81,39,35,60,204,225
211,265,72,36,35,62,290,259
185,270,61,36,35,60,275,250
198,242,70,36,36,57,267,210
159,254,76,31,32,55,278,192
179,263,81,33,32,52,358,200
177,292,79,32,32,50,316,228
176,285,90,35,33,44,293,228
154,289,82,34,33,44,296,225
148,313,79,34,34,46,305,231
146,335,92,34,33,49,247,260
157,308,96,36,35,48,220,192
156,316,86,35,35,47,249,191
163,353,89,36,37,45,243,196
174,346,92,38,37,46,221,183
166,324,83,36,38,42,195,188
173,352,82,37,36,41,209,190
173,339,79,34,33,39,180,194
172,321,89,36,34,45,198,192
175,311,88,37,35,48,212,245
180,325,81,38,36,47,199,231
166,306,77,35,36,47,198,231
175,310,77,37,40,54,201,229
170,281,84,40,42,53,203,229
158,265,78,37,39,46,180,208
155,232,73,35,38,50,193,182
170,284,84,39,39,50,186,179
166,290,95,41,37,45,191,188
177,286,73,37,34,44,184,215
194,336,89,37,34,45,185,209
188,344,95,36,36,55,166,208
186,314,97,33,34,61,158,212
209,318,87,31,35,63,174,204
206,382,94,33,31,63,170,232
190,366,83,34,36,65,179,199
190,367,82,34,35,55,185,194
169,367,79,35,38,59,181,192
142,349,78,34,37,57,153,194
156,297,73,31,37,58,143,171
158,263,75,31,36,59,150,180
153,255,71,35,37,59,145,182
160,228,59,34,33,50,139,187
162,232,58,34,35,45,135,185
147,237,76,35,38,42,179,149
169,262,74,36,42,49,223,211
164,240,68,31,42,51,239,207
163,222,68,31,46,54,255,203
154,254,70,29,44,56,261,208
173,258,50,32,45,62,254,195
171,308,90,36,40,52,212,143
174,331,93,36,37,50,208,200
189,336,93,40,34,49,200,204
193,331,97,43,35,46,222,207
191,363,114,43,32,40,204,205
168,306,90,38,29,42,198,189
166,298,92,38,30,38,174,136
194,312,97,35,32,47,195,126
190,331,99,32,30,48,207,167
204,316,78,28,33,47,228,189
210,335,73,28,35,48,230,189
218,334,66,30,46,72,240,180
181,326,64,31,45,72,248,177
189,335,70,32,45,73,222,167
159,301,71,33,46,76,195,188
160,283,72,33,44,75,190,194
186,268,73,32,34,54,251,205
198,271,72,32,33,50,223,205
186,217,52,30,36,50,223,175
181,220,61,31,36,47,224,124
205,226,68,34,40,47,251,113
187,249,69,35,39,55,196,184
193,234,66,34,38,52,225,188
190,239,73,33,33,55,220,182
202,234,71,34,30,55,224,185
187,249,73,32,28,59,194,192
176,244,73,30,29,53,189,142
147,263,80,34,32,56,172,137
168,297,86,36,37,54,201,143
171,340,85,38,40,59,200,160
166,343,88,45,42,64,218,214
173,345,86,46,43,70,224,206
186,335,92,46,46,75,207,206
181,322,83,46,47,90,183,213
185,293,85,44,47,97,174,203
186,311,80,40,46,101,154,133
193,318,93,38,44,104,174,121
188,372,90,38,40,114,192,139
173,365,91,38,37,110,201,119
154,388,112,42,37,107,216,115
161,390,125,37,35,107,271,116
149,407,128,42,41,111,265,115
160,384,133,42,43,100,258,91
181,386,134,42,44,93,243,109
186,368,122,38,43,89,253,129
183,343,106,38,46,84,219,129
191,303,103,39,45,70,201,122
201,267,96,41,43,67,204,142
188,300,94,41,43,66,236,130
184,351,94,42,42,60,215,113
181,342,94,44,44,59,182,118
179,354,84,38,39,58,216,126
184,373,78,35,39,52,246,102
202,366,83,33,40,63,244,107
197,305,74,32,40,76,246,117
197,351,77,31,37,74,245,111
186,351,75,33,37,72,224,109
160,338,89,38,39,81,176,108
150,339,89,37,37,71,136,107
159,336,85,38,40,62,130,99
179,316,88,39,42,81,149,102
208,329,95,42,45,83,150,108
221,325,81,37,46,74,173,191
214,336,80,38,44,76,216,195
214,325,84,38,44,88,266,197
195,312,90,41,40,73,265,196
185,335,91,40,39,76,277,214
180,399,148,48,41,80,277,180
182,391,170,51,43,84,275,182
184,418,227,61,44,80,241,185
186,458,243,59,45,79,261,200
185,555,256,71,58,81,249,222
201,532,235,67,56,94,289,200
230,566,257,79,64,126,342,268
285,576,254,79,62,138,382,279
301,601,268,95,72,140,365,278
305,496,262,88,61,139,364,272
304,533,269,90,60,131,361,305
307,505,251,85,53,101,304,296
257,506,219,80,50,75,284,300
247,463,202,66,37,66,291,299
244,470,199,67,41,64,288,291
241,402,182,64,40,66,250,261
204,362,156,54,37,62,259,203
207,342,136,53,39,67,221,186
203,343,109,45,40,69,203,233
181,325,99,38,36,70,205,216
162,365,118,44,39,66,388,219
167,362,122,43,45,71,385,220
161,352,121,43,44,67,383,259
151,352,115,43,47,66,387,217
170,370,114,46,46,65,400,219
184,351,105,47,48,65,252,207
195,386,137,48,47,61,249,226
188,424,146,48,47,63,258,181
191,382,141,46,41,68,254,177
184,368,138,44,43,65,226,218
160,405,134,41,43,70,213,248
136,394,108,40,39,65,186,303
134,330,91,38,38,68,164,301
127,348,166,70,46,67,191,355
107,363,176,72,47,68,211,335
129,302,187,74,45,59,179,321
158,269,185,74,45,66,178,289
167,286,185,75,48,58,176,291
166,265,120,45,41,52,180,220
179,228,114,45,40,57,225,220
189,212,83,37,37,62,231,271
169,242,73,38,36,52,230,228
162,246,82,36,33,52,226,222
172,283,90,47,40,60,220,225
167,315,76,43,39,57,170,219
141,310,87,47,42,63,162,135
140,286,88,44,41,63,159,135
146,279,80,44,40,62,159,133
118,244,77,35,31,52,130,160
119,259,88,39,35,65,170,173
136,300,83,39,37,58,193,177
158,328,90,41,38,60,193,243
153,316,90,39,38,61,196,245
156,305,85,39,42,60,200,224
151,279,77,36,37,46,147,208
150,286,83,35,38,40,117,206
168,253,70,32,35,37,118,128
171,269,68,31,36,35,115,121
180,382,110,32,37,56,120,171
207,372,114,35,38,53,138,193
217,341,108,38,36,54,142,194
188,349,108,38,38,54,143,192
183,368,118,41,39,56,146,232
191,284,95,45,36,41,137,197
167,289,89,42,33,42,113,173
160,328,96,39,34,39,102,175
161,322,96,38,35,39,98,172
186,326,101,37,34,40,110,163
183,311,87,28,32,40,159,173
191,301,86,31,34,38,162,178
183,267,80,28,31,39,160,172
188,289,89,30,30,41,163,172
169,254,70,28,33,39,158,121
160,244,71,30,36,40,101,211
165,242,84,27,34,42,92,227
157,245,85,27,33,43,93,240
144,230,74,26,33,43,112,248
149,220,76,33,33,42,121,249
147,230,80,31,30,37,121,229
118,249,77,32,29,34,117,208
127,241,69,32,29,33,118,197
190,238,75,32,32,36,114,199
202,293,85,26,26,37,120,239
206,303,87,28,28,38,122,186
208,289,80,26,30,39,122,187
210,286,82,28,31,38,120,183
161,277,86,32,32,38,111,178
142,226,74,30,34,41,82,178
128,289,84,31,32,39,71,181
130,280,80,31,30,39,70,183
107,273,85,32,31,40,73,187
114,273,77,27,29,40,130,235
110,296,81,32,30,36,178,219
130,256,62,30,31,40,182,211
128,292,79,34,35,45,187,210
156,294,74,35,35,46,204,212
147,313,77,35,35,43,177,143
148,310,83,34,34,44,131,143
138,281,84,33,32,40,129,147
132,260,71,27,27,35,129,143
106,278,68,31,36,45,120,141
108,265,65,32,35,45,108,208
108,272,77,34,35,44,117,191
96,271,80,36,35,44,117,187
108,262,81,40,38,43,115,189
105,281,82,35,32,37,111,218
117,295,95,37,35,39,120,160
115,266,75,36,36,40,125,157
121,255,69,34,35,43,123,159
106,253,67,30,31,43,128,198
108,232,73,32,32,41,130,171
97,196,56,30,27,39,120,181
103,237,76,29,26,38,106,179
98,254,88,31,31,39,110,176
134,290,95,33,31,39,142,197
136,299,92,32,28,40,147,193
160,308,94,32,30,42,149,185
162,332,95,31,32,44,156,227
167,327,86,32,29,42,161,232
155,311,79,33,35,46,129,181
173,279,78,33,35,42,106,180
155,287,81,35,35,43,108,186
143,224,64,34,33,41,91,174
153,267,66,32,32,40,189,174
164,283,74,35,29,35,212,174
156,305,85,37,32,37,218,190
168,294,84,38,33,37,220,219
186,293,82,37,33,35,245,192
180,265,79,39,39,36,204,207
162,235,78,36,39,38,191,254
150,214,65,35,37,39,202,245
151,225,58,33,37,43,202,217
156,214,59,35,40,46,187,225
161,209,69,34,37,48,176,249
173,209,62,33,36,47,186,215
195,211,64,30,36,46,182,214
188,200,69,28,34,39,184,222
180,204,68,27,32,40,181,243
190,256,64,31,36,47,242,213
178,261,76,31,35,53,301,200
149,267,87,32,36,54,303,195
151,282,107,39,37,55,300,198
163,332,116,41,38,65,369,170
138,302,120,37,35,62,326,157
152,314,126,39,36,57,259,154
170,332,120,42,40,65,310,160
183,371,117,44,43,67,320,136
163,334,115,44,41,57,242,111
179,328,118,47,41,53,236,115
185,315,109,44,40,58,259,124
178,297,114,45,38,49,206,115
151,238,104,40,35,45,205,124
146,262,100,42,35,47,218,122
141,245,89,40,34,47,261,112
151,235,87,41,35,46,256,98
142,230,83,37,34,48,248,101
145,221,77,37,33,51,251,93
181,236,101,37,34,47,242,98
184,238,105,35,33,46,204,104
161,243,110,35,32,52,198,100
169,274,129,40,33,50,208,96
170,280,128,39,34,47,201,93
146,232,106,37,35,50,185,83
139,260,109,40,35,51,180,74
135,276,101,40,35,39,172,73
139,243,73,36,34,41,196,76
138,232,77,35,35,41,187,78
138,249,84,35,33,40,189,76
168,237,74,33,34,41,205,80
164,211,69,30,35,45,198,94
178,226,76,33,37,44,165,92
194,239,80,41,38,48,194,103
198,228,83,39,37,47,205,108
172,217,89,41,38,45,205,108
179,229,90,41,36,40,214,97
161,207,81,36,33,47,208,94
165,226,75,30,35,44,198,85
160,236,76,33,36,44,188,79
165,234,70,29,34,45,168,75
169,209,68,30,36,46,158,77
174,208,73,32,36,40,172,81
159,182,70,31,32,40,159,76
150,157,63,29,33,38,150,75
150,151,64,30,35,38,161,76
136,169,61,29,33,50,165,69
140,194,60,27,33,52,174,84
160,192,68,30,35,53,163,84
176,218,68,31,34,56,175,94
171,222,65,31,32,56,164,90
194,238,71,31,33,46,160,92
194,214,72,32,32,45,173,74
192,207,62,30,33,48,174,85
176,236,57,30,34,46,166,76
202,246,76,31,34,46,167,88
213,250,71,35,33,53,238,106
249,327,82,37,32,53,223,117
257,347,88,36,32,48,222,114
291,325,94,36,32,51,228,125
291,324,79,36,34,54,240,117
282,328,79,35,37,50,186,107
253,271,65,34,41,54,156,96
239,261,60,35,39,57,153,95
206,264,54,35,39,56,167,83
211,266,61,38,40,56,156,91
220,251,64,38,38,55,136,90
209,281,68,37,37,47,142,98
209,305,68,40,37,45,150,97
202,303,72,40,39,54,137,104
183,327,73,36,43,61,143,112
167,341,73,38,45,59,179,115
178,306,69,36,47,59,226,114
208,316,67,35,49,62,230,122
233,304,58,36,48,61,277,128
253,274,49,37,44,59,296,131
258,249,47,35,41,61,290,136
260,253,46,36,40,62,261,148
258,239,42,36,43,67,267,145
301,242,49,36,43,63,248,136
281,230,46,36,39,57,236,136
298,236,46,35,43,58,232,136
309,227,46,34,44,57,231,132
307,182,46,36,41,52,224,167
246,197,37,35,42,51,185,166
248,196,44,39,50,59,176,160
220,211,42,40,51,60,175,152
200,206,42,43,56,67,231,145
177,202,40,40,54,63,274,97
206,183,41,41,54,65,299,108
225,182,36,41,57,72,295,106
232,145,40,41,53,71,295,109
244,144,42,37,47,70,249,110
254,143,47,40,50,75,251,121
242,131,49,41,49,76,243,114
223,149,84,42,50,73,235,118
276,193,96,52,54,71,232,164
310,238,112,58,58,71,243,170
447,262,166,101,64,76,241,241
695,391,280,168,90,100,233,411
794,436,401,207,91,102,247,537
839,529,530,241,92,112,256,594
828,544,546,248,95,129,270,603
776,573,540,237,89,126,252,588
601,527,498,198,69,113,408,519
641,525,412,164,72,133,499,522
651,442,225,114,86,141,500,482
712,410,176,101,93,134,504,520
726,365,190,117,99,139,500,539
713,323,176,114,100,137,409,533
625,269,159,104,92,113,329,429
563,236,164,108,85,112,327,423
520,267,174,105,73,98,312,390
504,290,170,86,74,95,321,393
668,379,177,88,73,94,319,403
676,402,223,96,73,93,298,387
672,404,225,85,75,85,312,353
784,410,235,97,85,92,359,369
838,389,268,101,80,86,350,347
747,350,267,101,77,81,328,304
709,379,237,104,79,87,319,301
815,477,259,127,83,76,316,327
733,453,245,117,75,69,310,309
692,482,204,117,71,68,357,299
645,485,211,120,77,78,370,292
652,481,215,117,78,74,374,285
535,384,178,85,60,70,372,290
491,387,183,87,58,75,335,268
460,401,175,82,63,79,287,264
512,407,161,74,57,75,273,278
590,444,162,72,53,72,257,286
567,447,159,71,53,72,231,245
657,446,148,67,55,76,243,254
634,411,124,61,49,75,248,236
619,374,118,61,46,78,237,231
519,269,97,58,45,77,284,223
502,244,87,56,45,79,304,228
354,264,90,59,45,79,283,187
346,303,97,56,41,75,297,190
301,303,91,50,43,69,311,183
284,288,85,41,43,72,263,179
276,307,86,41,42,72,244,166
253,304,90,49,41,62,255,180
274,287,81,58,51,69,245,177
247,316,79,62,46,69,275,170
267,383,79,66,49,67,309,173
276,377,86,74,55,68,330,184
268,365,77,66,54,73,343,177
258,331,79,61,49,66,322,190
266,308,75,61,54,67,308,184
243,249,74,57,55,66,279,178
212,261,75,53,50,62,256,171
228,263,75,55,52,55,236,169
243,309,74,54,54,58,223,145
250,281,76,55,51,59,212,140
263,284,71,57,49,58,242,170
286,296,102,62,46,62,240,170
267,284,108,65,49,67,284,167
255,236,105,64,47,66,309,180
249,243,104,61,47,64,297,202
236,228,106,62,48,82,298,182
254,188,72,57,51,84,378,196
277,193,62,53,47,79,347,205
282,187,69,52,45,79,370,198
276,190,95,61,48,76,397,200
283,210,101,58,48,57,374,194
243,205,105,59,52,56,355,172
227,194,106,65,55,59,390,163
211,197,103,65,57,59,349,158
205,223,85,58,56,69,335,124
214,209,79,63,56,81,375,156
237,213,74,63,54,78,321,168
256,219,75,56,53,83,314,163
275,232,84,60,53,83,316,164
295,198,84,56,55,74,294,193
285,189,83,52,53,60,246,167
265,180,83,46,49,58,268,162
237,213,81,46,44,48,221,160
211,210,73,41,47,48,271,163
176,214,66,39,38,47,269,123
156,193,63,40,36,45,282,120
141,188,53,38,35,46,272,115
144,173,57,41,40,47,277,121
186,161,52,41,34,44,224,125
186,179,54,44,37,45,227,129
217,194,52,43,41,57,212,173
229,245,58,49,43,57,209,167
234,231,53,44,42,61,233,169
218,243,50,43,44,64,243,165
235,250,50,42,41,68,250,179
215,287,51,43,42,65,243,138
214,258,55,37,42,65,226,137
239,264,58,46,39,60,216,147
222,288,62,51,42,61,243,141
219,285,60,53,43,59,236,122
255,258,56,52,40,59,243,160
260,262,53,53,41,56,256,164
254,265,56,48,41,58,242,160
270,232,55,49,37,58,210,163
284,208,56,49,46,70,202,166
256,268,67,54,50,74,201,138
245,269,68,53,52,75,189,138
229,272,72,56,53,74,198,138
212,270,72,52,53,72,186,134
210,278,71,52,48,58,176,136
193,214,63,48,45,54,188,125
187,197,59,47,41,55,185,118
189,191,49,42,41,57,175,103
204,228,56,42,43,58,179,107
165,228,67,47,40,61,198,99
169,217,64,44,35,52,173,107
171,216,66,45,37,53,172,106
202,211,65,53,39,57,188,124
181,179,69,51,37,59,237,125
206,194,59,44,37,59,235,131
218,215,64,49,39,62,241,138
225,253,65,51,39,59,269,136
202,256,65,44,35,58,256,125
214,261,51,42,36,64,216,133
197,252,50,42,37,57,199,141
193,274,52,38,36,55,220,127
184,264,49,34,38,58,213,136
192,267,49,40,40,54,208,147
194,269,55,47,39,49,206,142
203,272,53,44,38,51,207,132
261,242,59,50,37,55,193,189
264,217,60,52,35,51,183,188
244,217,65,51,31,50,183,175
232,192,63,53,31,44,174,172
223,184,63,57,30,40,173,165
213,171,53,55,32,41,173,170
241,167,51,56,34,48,172,173
245,143,44,57,37,48,162,184
255,180,44,52,37,51,167,186
283,204,46,51,39,56,219,203
242,219,61,52,40,53,218,162
232,239,60,49,37,49,196,161
249,248,63,44,35,48,199,154
247,240,62,43,36,48,261,190
228,243,65,45,36,46,243,188
222,244,67,42,34,46,231,174
204,235,72,44,36,52,269,168
182,247,70,44,36,53,297,170
172,228,75,44,37,56,253,125
146,204,73,41,36,55,233,104
141,230,60,39,37,53,233,104
135,218,53,38,39,50,279,114
168,250,65,39,39,51,252,124
165,258,58,39,37,45,246,123
165,258,61,43,37,47,256,120
172,241,58,42,36,49,283,127
178,250,66,44,40,51,198,113
166,205,52,41,42,51,187,113
183,212,57,44,42,52,177,111
219,204,52,40,42,54,179,118
213,185,62,45,44,55,146,118
223,198,56,43,37,49,150,125
207,185,58,43,35,48,183,99
213,169,56,44,34,50,197,122
178,213,63,45,36,45,179,121
172,207,55,42,39,49,176,112
148,194,58,43,39,49,176,105
179,189,57,45,42,50,167,113
172,218,59,44,43,54,188,101
172,190,54,44,42,56,204,101
182,222,59,45,39,49,215,104
200,250,57,50,41,55,230,125
198,261,58,49,39,59,225,122
181,232,55,46,35,54,208,112
188,227,53,47,35,57,203,122
183,232,55,46,39,67,183,116
173,211,57,42,39,66,184,100
141,203,60,43,40,66,189,101
146,214,58,43,40,64,186,102
127,239,63,47,43,61,175,82
118,211,56,43,37,51,178,82
128,216,56,44,39,52,160,88
167,248,56,44,40,46,172,117
170,236,55,44,42,50,168,129
175,205,50,42,41,49,195,136
177,218,54,44,40,51,197,140
167,204,51,41,38,51,191,137
129,182,49,38,36,50,171,111
122,189,48,37,35,47,201,103
123,184,50,35,32,45,180,100
152,158,50,34,36,49,195,103
206,196,61,37,37,48,229,118
205,182,61,37,38,49,223,118
202,174,61,37,37,49,190,111
202,179,62,36,38,48,184,133
184,213,60,37,38,49,178,136
135,168,48,34,33,46,162,124
140,185,47,33,32,53,206,131
155,195,47,32,35,55,228,138
222,232,46,34,37,57,230,122
246,210,51,35,40,53,234,118
241,215,50,36,41,53,247,133
236,201,51,38,44,54,216,133
239,244,54,37,43,52,198,180
194,210,53,36,41,51,203,195
171,203,48,30,35,53,183,214
172,204,67,34,39,50,133,249
179,208,70,37,38,50,159,250
173,151,72,41,38,53,219,229
191,163,74,43,40,55,226,277
185,212,74,43,38,50,226,266
176,207,56,39,34,51,237,233
168,205,59,41,35,46,225,237
216,227,55,39,36,43,163,245
206,238,54,41,43,53,152,170
201,198,54,42,47,60,161,163
201,228,59,42,49,63,145,145
199,230,51,38,49,63,150,132
156,222,52,38,46,63,165,91
170,203,60,36,41,53,203,119
172,248,74,39,40,50,200,125
206,227,74,41,39,51,209,130
209,229,78,38,38,53,194,125
198,217,78,38,44,54,194,137
170,215,71,39,45,54,173,113
178,172,55,35,44,56,206,109
141,173,59,36,43,51,231,104
144,160,52,36,41,47,255,108
163,215,61,36,38,55,268,87
151,231,65,35,38,55,271,82
142,233,66,35,35,51,258,70
136,231,60,34,38,50,240,78
137,236,63,34,38,52,217,73
133,193,53,34,35,43,223,79
141,193,51,38,35,44,203,89
137,224,49,43,37,42,182,88
137,232,51,44,37,44,228,105
188,235,45,44,40,48,228,123
196,232,51,44,40,47,206,131
203,282,51,43,38,48,204,127
208,248,50,37,40,53,204,134
235,240,54,46,45,57,132,137
208,241,57,48,46,57,154,128
186,250,54,49,51,61,136,122
194,213,50,48,51,64,164,132
240,254,58,51,50,64,166,156
229,291,60,44,45,62,173,215
223,299,57,41,40,57,196,257
252,320,62,43,45,67,215,318
267,351,73,46,45,63,209,336
235,344,78,43,46,63,208,333
253,348,87,52,53,68,213,320
253,345,99,62,61,79,184,301
227,344,100,62,56,75,183,244
225,335,100,62,55,75,207,242
232,329,97,66,60,79,221,240
218,325,87,60,56,73,239,219
237,396,82,58,52,63,257,239
278,393,78,58,55,59,245,253
279,355,71,60,55,67,246,237
274,356,76,59,50,61,308,233
256,334,72,56,48,62,300,216
241,242,73,53,46,68,296,209
201,232,75,51,40,67,304,196
179,248,74,46,41,56,302,193
164,227,65,46,40,53,230,193
178,224,74,50,41,53,241,249
188,216,66,46,39,44,263,228
209,204,66,48,41,41,260,222
214,192,64,47,40,40,238,214
219,188,63,40,40,49,237,210
222,200,49,40,45,52,223,220
217,207,50,37,44,52,217,224
191,223,52,35,42,63,230,219
205,250,64,37,42,67,234,221
211,249,64,40,42,67,239,225
200,241,70,37,37,67,259,215
204,243,71,46,35,68,232,216
231,231,67,47,34,56,225,224
206,213,56,46,37,64,242,220
196,217,54,47,38,65,255,220
222,210,51,48,39,69,258,244
211,242,50,41,41,72,264,231
184,257,53,41,44,77,265,225
188,250,51,39,40,71,306,235
199,258,61,44,40,68,303,232
166,254,57,43,40,65,333,142
174,214,65,47,40,58,380,138
182,300,77,52,47,66,378,137
232,318,94,55,50,65,346,128
267,378,102,59,55,67,346,171
276,385,104,58,57,64,300,170
283,408,102,57,56,64,223,168
281,347,94,50,49,59,272,177
235,340,78,50,46,60,317,183
192,278,63,41,42,57,329,153
199,306,71,43,37,56,326,161
184,284,68,41,38,62,370,171
189,270,66,43,42,64,371,193
190,260,67,40,45,63,318,219
182,258,64,39,41,60,316,222
165,214,61,40,42,71,350,211
184,240,64,39,43,75,312,218
176,287,67,38,40,70,284,236
203,299,67,40,42,75,291,222
218,297,74,44,44,88,298,214
227,295,70,47,44,88,321,233
221,309,83,54,46,83,339,227
230,270,102,59,49,86,341,180
221,279,133,65,45,86,359,157
227,276,133,63,44,83,365,160
230,302,145,61,44,81,380,150
233,267,137,55,43,88,383,154
251,272,133,57,43,86,411,163
243,357,134,52,41,80,400,160
229,354,134,50,41,81,431,160
236,333,118,49,42,87,369,143
237,340,118,52,48,84,355,149
229,348,107,44,44,85,308,146
223,275,75,42,45,85,305,151
235,301,72,41,44,81,218,156
235,300,71,41,46,70,264,170
227,285,71,42,36,65,273,151
209,269,79,47,35,65,271,148
211,219,65,43,39,72,290,140
217,192,66,45,42,77,343,129
209,187,71,47,46,86,318,114
198,186,70,45,47,83,297,107
187,211,60,40,48,79,370,104
182,211,62,42,44,72,368,116
151,209,59,43,43,61,324,112
130,213,58,43,38,49,358,121
129,245,62,42,38,54,366,124
129,254,69,43,39,67,292,123
129,256,67,42,41,68,272,130
140,294,75,42,40,71,257,136
176,318,74,45,37,74,197,136
186,315,69,46,39,76,199,149
220,325,65,47,38,66,195,168
249,348,66,51,40,67,209,183
251,321,57,53,41,70,218,187
234,338,80,54,42,70,217,185
231,333,84,53,43,69,211,180
218,292,81,51,41,67,217,160
205,289,81,48,39,68,232,164
202,318,80,45,44,61,269,173
189,283,57,39,43,68,283,181
195,262,55,45,43,62,275,180
196,259,55,45,44,72,260,186
197,222,56,46,45,73,252,165
196,164,58,46,42,73,274,146
212,168,56,43,40,60,251,130
217,192,57,39,39,65,254,125
210,196,57,42,39,56,277,121
201,199,54,40,37,52,266,120
199,187,54,42,37,60,196,145
211,170,57,47,43,66,218,144
197,145,47,43,43,67,257,148
183,168,49,41,43,68,240,143
179,185,52,41,44,68,249,142
197,199,52,42,42,63,278,119
167,240,53,36,37,60,270,129
172,279,56,38,39,57,232,129
190,268,55,42,40,58,249,128
207,264,55,43,41,57,226,144
199,270,53,45,39,50,194,150
193,256,63,44,39,52,179,147
216,222,62,45,37,52,304,142
229,241,68,44,37,53,312,149
225,264,72,44,40,52,316,139
212,252,77,40,41,54,339,144
220,235,68,40,40,56,359,146
203,245,68,39,40,54,276,173
182,218,64,36,39,55,245,168
162,187,61,37,36,58,244,157
160,197,59,36,38,62,225,139
153,191,56,35,40,59,198,140
137,178,53,40,37,58,190,117
160,201,53,40,38,54,199,129
215,276,62,45,41,51,193,145
221,282,57,44,39,51,194,156
225,293,57,44,38,48,187,155
249,300,57,39,38,51,239,168
238,356,59,39,38,53,237,163
193,306,54,31,35,49,232,145
195,307,62,32,34,48,217,157
202,316,86,35,35,50,233,163
200,303,90,36,40,50,184,143
202,242,88,37,39,48,178,160
202,234,87,43,42,57,180,170
210,235,96,46,42,56,199,164
214,223,78,47,43,54,196,160
197,238,75,45,37,52,176,162
207,232,74,45,38,60,199,144
209,239,77,41,35,62,201,134
203,228,65,45,38,62,203,133
236,218,63,43,39,64,199,133
268,250,75,43,42,70,284,168
250,232,75,42,46,68,270,166
244,247,73,45,47,66,279,171
259,263,76,45,54,78,282,162
218,287,98,48,54,80,287,168
197,266,99,49,53,80,240,140
199,318,108,52,52,80,236,135
260,374,146,63,54,81,242,164
242,391,168,66,48,74,223,179
275,426,173,65,48,74,276,179
306,454,199,68,50,69,278,188
325,438,200,70,51,67,279,212
284,386,189,60,47,61,269,198
286,362,167,52,44,56,331,193
268,293,154,52,41,55,280,199
249,292,128,54,38,59,249,189
240,306,121,50,36,62,249,180
235,297,102,48,36,62,264,170
248,301,107,47,35,62,209,175
248,360,142,48,37,64,212,164
244,346,134,41,35,69,216,160
245,369,134,41,31,70,251,146
259,372,135,40,33,76,231,171
242,367,132,41,33,76,233,167
234,329,104,42,33,74,234,162
195,325,102,41,36,66,244,153
187,287,108,46,43,69,217,152
177,281,102,44,47,80,217,123
179,274,96,42,46,78,210,103
175,276,95,45,47,75,217,95
177,259,90,44,46,71,229,117
219,247,87,43,44,74,242,144
215,245,89,47,40,54,239,150
215,286,110,47,43,65,218,152
212,288,106,43,44,71,265,157
233,282,109,44,46,70,318,154
189,264,104,39,44,61,311,148
188,287,103,36,44,61,319,140
208,300,96,39,46,51,325,147
207,297,86,38,46,51,279,140
181,293,80,36,44,57,232,134
164,326,84,36,41,56,224,112
171,324,89,35,41,56,215,123
152,320,76,35,37,57,202,112
172,309,76,38,44,53,215,125
202,334,85,39,44,48,183,138
204,313,83,37,45,48,195,130
212,299,86,39,46,51,207,130
209,290,96,37,44,50,219,139
242,295,96,34,36,51,221,150
234,257,89,34,37,57,233,146
239,252,90,37,37,60,258,150
229,252,85,37,38,58,252,141
228,234,89,36,41,59,254,129
176,240,88,35,40,55,250,120
186,246,89,36,43,56,244,136
178,247,84,34,40,53,206,130
171,283,89,38,43,52,233,149
168,304,95,45,47,50,232,158
227,297,93,46,47,52,249,177
201,294,90,45,43,48,251,161
215,302,91,47,43,49,252,169
220,315,101,49,41,56,301,168
222,315,88,44,34,56,312,169
162,314,86,45,37,64,310,139
164,312,92,45,36,64,294,131
150,322,96,44,35,60,291,128
153,291,85,38,33,53,257,124
181,256,74,36,35,55,245,132
175,265,77,33,33,48,228,137
192,283,79,41,40,56,263,139
192,254,83,41,41,59,271,132
183,241,73,40,42,60,233,126
155,242,78,42,41,58,228,127
164,252,88,44,41,57,238,120
141,229,84,38,34,46,221,122
167,256,74,38,36,44,219,125
195,243,75,36,40,51,222,149
206,245,80,39,41,50,226,140
213,220,74,39,40,48,201,142
214,242,77,41,40,48,200,151
221,223,85,45,39,50,219,163
197,234,86,45,34,43,219,143
188,247,78,42,32,40,210,141
171,254,79,41,31,47,223,140
183,331,74,37,35,48,232,141
193,343,69,32,35,48,205,146
198,350,69,32,36,51,221,141
201,362,78,35,40,56,217,145
220,368,72,31,41,59,215,145
217,314,71,32,39,60,213,145
201,286,65,34,44,64,235,137
195,280,62,32,41,62,206,136
193,276,74,33,41,60,207,141
181,289,76,36,43,59,191,140
182,271,75,39,42,57,154,134
154,274,76,37,34,55,151,126
153,272,75,38,40,63,152,118
152,364,73,37,41,62,182,107
152,371,73,34,39,57,185,124
151,379,75,33,42,62,191,117
181,390,76,35,45,58,183,132
196,386,77,35,43,52,197,138
228,312,67,37,44,50,175,146
228,291,71,38,44,48,174,129
218,277,77,40,43,43,190,128
242,288,89,42,41,43,238,120
232,295,88,41,40,50,236,115
200,262,80,38,36,52,237,103
190,248,72,40,37,52,246,105
205,251,66,41,38,54,266,118
157,234,54,36,36,55,227,113
168,235,59,38,36,51,220,122
167,250,84,37,35,46,232,125
166,255,86,37,39,57,243,132
163,291,92,35,38,53,202,149
150,292,98,41,39,58,192,146
142,297,102,46,39,55,203,144
144,268,84,46,40,60,184,147
159,290,85,46,36,54,198,161
169,242,77,46,37,61,238,153
171,238,67,43,38,62,235,153
165,230,61,38,42,67,271,152
182,239,57,36,43,70,273,144
182,233,60,37,44,69,249,132
164,240,60,37,41,65,225,113
178,238,56,36,42,61,238,116
208,246,61,37,38,57,192,115
209,247,75,40,37,50,204,116
204,227,71,40,36,51,220,105
216,254,69,38,35,50,213,124
211,251,70,36,35,54,225,138
186,245,67,35,37,59,259,136
185,251,57,33,34,60,253,129
198,261,58,33,38,60,236,147
178,248,55,32,37,58,245,126
175,284,69,36,37,53,241,119
170,274,67,35,35,46,204,128
163,287,64,38,38,42,207,137
169,293,62,33,35,44,237,119
277,286,63,38,39,60,233,150
359,260,50,39,39,62,235,166
391,259,50,40,38,63,252,166
385,236,52,41,36,65,247,166
390,229,52,42,33,61,231,167
337,227,55,40,30,50,254,162
247,258,56,37,34,54,273,140
210,332,59,38,36,52,268,189
225,346,59,39,38,52,263,187
217,356,70,42,40,54,265,196
213,366,69,41,40,57,238,198
248,337,65,42,39,51,190,217
310,286,61,42,37,49,184,225
306,293,58,36,34,47,180,232
299,282,42,33,34,46,212,235
312,261,44,33,33,42,274,227
357,276,49,35,34,43,285,274
332,329,62,42,40,57,287,239
346,311,66,43,43,61,310,244
344,298,70,44,42,61,311,242
338,341,69,45,44,61,251,244
268,331,68,45,45,66,237,183
221,275,55,38,39,56,238,180
187,262,49,36,35,51,252,178
186,270,48,37,36,52,211,172
167,210,48,37,38,51,211,168
157,200,46,36,34,42,210,148
169,207,46,36,34,47,212,139
184,222,53,37,35,52,223,126
199,225,54,35,35,58,229,132
209,241,61,35,31,54,237,126
227,270,64,35,30,55,324,139
223,268,67,37,33,53,320,144
229,256,63,36,35,58,294,156
213,239,61,37,33,50,291,152
206,223,55,38,35,52,355,156
196,198,50,37,38,51,310,159
193,172,47,37,35,50,301,161
162,176,46,34,30,39,296,140
171,178,49,36,33,45,344,143
172,185,48,36,36,48,282,144
160,173,49,36,35,52,248,133
175,173,50,38,38,50,244,133
190,223,55,39,39,54,237,142
180,271,60,41,41,54,189,126
167,285,63,38,37,49,179,125
164,286,60,38,35,50,175,115
140,291,62,35,31,51,173,105
135,260,59,37,32,48,177,102
135,221,46,30,31,50,191,125
133,189,41,31,32,57,184,125
135,186,48,31,32,56,181,124
132,197,45,33,33,59,203,128
133,179,40,31,31,62,201,142
137,150,43,33,29,60,159,129
153,170,43,36,35,55,162,129
159,176,39,37,37,52,188,139
189,177,44,36,38,53,180,170
179,177,46,35,38,47,174,155
179,185,45,34,37,47,199,156
180,174,45,33,34,51,219,165
203,177,51,30,30,52,198,176
184,164,47,29,32,54,183,146
188,198,49,30,31,54,237,150
195,190,48,30,32,53,286,162
191,199,56,39,32,52,287,162
153,189,51,47,34,50,286,144
189,175,56,66,38,42,287,157
200,179,64,73,48,50,285,174
214,204,68,74,49,54,247,155
206,214,63,71,46,49,226,144
215,247,62,68,45,51,255,156
189,247,58,51,44,57,283,156
195,275,55,44,38,57,243,133
175,266,49,41,36,51,210,138
190,277,50,40,40,60,212,140
205,269,49,37,43,67,245,171
213,294,56,35,42,66,220,189
226,251,50,30,39,61,211,195
225,254,55,35,44,61,222,192
231,229,51,35,41,54,235,194
230,223,54,40,41,47,204,171
247,201,52,42,37,42,207,153
237,224,50,44,36,42,228,147
246,264,52,47,38,45,247,165
260,284,64,48,42,45,241,175
266,292,69,48,40,43,231,161
279,353,74,48,43,49,248,201
316,405,114,63,51,62,250,233
312,382,120,71,55,67,236,238
286,391,118,71,57,67,224,232
276,394,117,69,57,67,229,250
298,366,113,69,57,69,207,229
270,298,75,55,49,59,184,201
282,293,70,41,40,58,161,185
306,279,70,39,43,68,192,190
306,323,80,43,44,77,205,173
253,310,86,41,43,72,209,153
240,308,85,41,43,79,219,162
226,335,82,42,49,90,300,171
240,353,88,45,43,82,303,170
295,357,95,48,44,78,292,216
301,375,92,49,46,82,299,221
298,451,100,54,49,82,326,219
327,519,123,61,49,111,313,272
358,512,122,68,59,134,323,280
332,539,125,66,58,137,338,258
401,531,135,71,61,138,361,278
410,589,148,68,60,167,394,275
428,623,155,66,58,162,369,253
415,665,161,64,48,151,364,326
433,627,164,64,51,163,401,328
386,637,159,63,48,164,377,319
375,567,153,66,52,130,332,325
365,488,130,62,51,113,332,356
337,523,169,75,62,115,362,293
318,552,167,79,67,99,295,288
298,531,164,78,67,99,291,271
352,521,163,78,68,106,442,293
323,482,161,79,71,110,479,261
328,361,115,65,61,109,450,241
306,302,102,54,55,102,446,227
315,298,108,52,53,102,462,234
260,243,100,58,56,98,324,221
246,290,112,59,55,106,304,270
260,308,112,60,59,105,297,281
292,325,117,64,60,119,300,284
275,321,111,61,60,118,283,279
295,339,104,54,58,127,285,256
332,403,111,54,57,110,229,149
315,501,124,59,53,107,226,142
312,519,123,60,51,93,261,199
327,520,123,61,52,97,259,212
296,516,120,62,51,88,233,211
271,450,109,62,53,83,222,207
289,354,102,61,60,84,280,204
258,308,88,56,61,83,254,243
278,312,95,60,61,80,263,259
282,288,98,58,57,83,269,264
273,384,109,62,56,85,320,270
236,436,113,56,47,90,269,264
259,458,128,64,48,103,278,216
234,480,136,62,51,105,270,221
272,521,148,64,58,104,276,239
275,465,137,57,56,110,210,233
290,398,129,64,58,104,225,243
298,383,119,59,58,100,217,213
313,387,114,63,56,105,208,202
323,337,110,70,53,101,184,247
317,393,112,71,56,95,200,250
319,434,110,66,55,94,229,250
326,427,108,66,54,89,224,260
310,400,98,61,53,78,226,273
283,444,99,54,56,78,291,222
342,402,109,57,53,72,296,268
363,350,104,57,54,68,272,261
355,398,103,54,53,106,310,276
370,483,132,62,57,115,388,309
550,450,120,58,51,117,362,351
630,453,118,58,54,125,353,383
671,510,150,81,75,128,386,393
705,490,164,117,98,103,407,412
776,457,161,137,114,98,322,383
705,496,167,147,150,104,333,341
652,495,160,174,213,122,383,299
611,447,143,179,243,127,361,310
631,481,148,184,271,138,364,272
555,454,130,170,274,139,419,250
502,431,133,164,270,131,406,286
469,415,141,162,247,109,364,272
499,484,143,170,233,104,387,256
426,442,123,149,196,81,344,257
440,432,124,168,207,94,309,294
441,407,124,178,193,96,352,269
416,500,141,157,182,92,381,257
421,441,135,134,167,90,354,281
419,683,144,127,171,91,339,284
398,743,145,108,157,84,331,281
581,937,155,115,167,83,351,299
595,938,135,111,155,95,329,324
599,944,147,107,146,106,327,345
716,800,184,119,137,117,347,382
855,825,234,129,119,128,360,522
916,654,235,105,97,132,318,570
999,665,268,111,89,141,355,578
983,665,306,124,87,152,380,569
1011,726,337,135,95,157,419,589
961,837,328,126,99,178,512,553
890,913,328,130,106,213,526,536
802,882,310,129,100,214,556,516
825,921,274,123,102,203,573,501
753,850,209,106,95,195,568,480
581,937,155,115,167,83,351,299
595,938,135,111,155,95,329,324
599,944,147,107,146,106,327,345
683,641,168,96,91,167,499,360
558,567,217,103,83,129,497,288
545,538,212,103,86,115,471,276
505,468,204,102,76,114,442,267
395,516,215,107,83,114,405,238
377,520,212,105,80,117,440,262
494,453,152,92,77,103,404,287
500,472,137,84,70,101,372,289
502,527,150,79,72,107,348,318
505,636,144,60,53,125,353,316
483,659,143,59,52,122,278,290
397,625,137,56,53,127,300,314
375,632,139,63,57,126,274,307
346,689,121,61,57,118,287,280
359,764,115,68,60,91,295,285
460,815,116,72,60,86,292,377
419,813,114,70,57,86,258,330
429,807,124,67,54,80,282,337
428,748,128,71,50,80,279,334
411,558,119,67,50,88,262,295
298,447,123,65,47,85,261,175
285,463,126,66,47,76,278,172
260,581,126,70,53,96,262,172
266,533,110,59,49,99,284,211
250,540,102,57,48,95,269,209
242,548,103,56,52,98,263,196
257,545,100,57,52,103,261,212
294,408,87,51,50,98,269,237
329,394,87,52,53,92,227,195
317,335,87,49,54,96,264,206
359,363,78,53,58,106,325,233
362,332,78,50,57,97,340,237
340,297,74,45,53,95,347,224
349,290,73,42,54,103,394,272
362,306,69,43,54,114,439,278
334,361,83,42,48,106,401,267
379,447,110,50,53,111,402,316
409,462,112,61,53,102,401,304
388,501,120,69,53,96,349,273
426,514,121,68,53,76,266,266
446,443,114,65,52,67,262,267
402,426,106,60,49,63,230,181
375,429,101,48,50,83,223,177
385,387,93,39,51,87,247,214
363,362,90,38,48,95,262,228
340,370,86,37,46,90,235,215
365,340,79,48,49,92,225,236
380,338,97,55,51,79,202,245
342,335,97,57,51,75,234,207
337,445,136,64,51,69,230,195
321,453,143,64,52,75,233,195
289,416,135,55,48,70,246,176
266,395,123,50,50,67,288,170
293,460,123,47,44,63,261,189
258,375,85,43,49,62,243,171
234,365,81,43,47,58,239,165
234,375,83,45,48,61,350,184
206,358,80,45,42,64,338,173
146,288,83,46,44,66,324,140
135,244,73,43,40,68,326,130
165,245,69,41,41,69,346,139
163,245,62,43,45,65,276,129
187,290,65,46,47,61,258,135
224,277,57,45,48,60,260,162
223,281,58,62,73,57,255,166
203,310,54,67,77,55,238,163
211,319,68,72,79,67,197,170
194,282,68,79,92,65,182,160
155,267,68,109,114,67,172,132
158,265,70,115,121,69,176,127
164,194,67,128,150,70,193,144
162,163,55,139,180,60,232,114
179,302,66,151,179,62,237,117
184,315,64,142,169,56,241,115
193,331,72,132,159,63,239,132
199,341,71,150,146,75,252,116
192,348,73,177,277,96,247,126
168,242,68,181,290,120,249,124
162,229,76,190,300,133,286,139
196,257,75,200,300,132,309,143
197,259,77,189,298,134,302,139
208,265,80,168,182,123,291,200
218,280,81,149,157,102,312,204
222,348,128,142,142,87,303,217
198,319,124,134,155,90,348,213
261,343,136,176,232,127,374,227
281,367,154,175,224,146,429,197
317,497,191,212,235,184,444,229
366,485,173,255,316,224,509,263
429,515,257,305,339,242,477,264
389,536,321,330,332,236,514,268
379,539,325,329,331,251,595,292
357,479,325,320,336,271,809,307
495,460,380,297,280,394,1047,466
499,424,360,291,270,423,1174,502
542,389,310,285,241,430,1234,501
578,384,323,325,297,426,1204,505
655,335,361,343,328,402,1102,494
547,330,305,342,315,292,981,324
506,337,270,334,318,242,939,341
477,338,259,310,334,245,897,353
433,310,231,265,287,248,932,336
331,288,128,226,250,266,953,330
341,277,129,220,250,232,857,339
387,408,176,244,355,321,872,290
369,395,179,239,333,313,845,266
355,383,175,237,326,315,848,247
331,409,183,268,404,368,836,278
316,485,176,278,410,377,886,257
243,373,148,253,331,308,862,225
268,371,148,232,331,308,859,248
314,380,146,241,341,301,776,239
308,340,133,261,259,220,719,210
280,262,122,258,270,205,611,204
264,289,112,237,311,203,484,203
265,344,123,271,351,228,607,239
233,334,121,307,395,219,613,242
230,330,119,278,407,220,624,216
242,342,120,283,392,213,611,240
314,354,117,286,340,220,633,242
301,323,105,298,323,186,497,179
310,380,148,267,266,199,515,180
327,459,163,271,235,194,527,186
355,493,169,260,252,201,545,166
359,505,162,248,249,186,520,167
389,516,168,212,208,186,495,228
380,485,143,195,223,171,514,244
383,437,129,171,286,218,543,262
392,458,124,164,301,244,606,291
342,452,146,186,312,245,611,289
318,447,148,170,307,253,631,243
318,464,141,182,301,255,620,230
300,433,135,186,233,214,578,221
251,384,137,189,192,172,521,170
238,392,112,163,208,184,540,186
240,430,96,176,229,164,504,187
240,417,91,160,209,155,525,201
230,428,95,158,228,152,500,187
252,431,87,185,242,157,451,201
250,446,90,188,210,130,381,209
225,395,86,172,192,130,375,210
208,378,81,172,200,148,372,195
204,396,79,174,215,145,419,199
162,367,76,149,204,152,466,180
180,309,77,162,228,164,464,143
175,327,81,202,287,156,489,138
187,374,88,200,293,169,453,129
201,412,97,206,312,165,418,119
192,391,93,217,310,164,388,112
192,401,98,233,344,209,448,119
223,390,92,211,308,234,441,114
213,387,103,219,306,214,406,104
214,314,92,203,252,215,399,110
224,315,99,182,264,219,493,140
238,305,92,179,219,178,479,157
202,304,92,202,229,139,443,158
202,264,78,211,237,141,480,160
185,271,79,226,252,167,538,170
180,262,79,251,262,156,444,162
156,305,81,246,257,144,398,159
161,342,77,232,225,144,399,158
175,338,74,218,209,157,489,181
178,330,76,228,197,131,438,170
186,333,73,218,169,128,442,164
200,316,89,200,148,135,443,155
200,251,92,198,175,149,488,165
204,248,94,207,202,154,374,157
218,274,104,215,270,172,355,152
211,317,106,200,271,173,359,152
191,315,90,193,268,169,340,142
205,337,92,190,256,169,282,136
180,334,88,195,253,153,314,118
157,323,74,159,179,133,407,122
160,283,76,182,194,145,442,156
148,281,73,184,202,155,455,156
143,296,70,168,197,147,459,155
182,290,71,158,236,146,430,161
204,289,73,178,257,147,366,176
219,289,73,166,258,145,340,148
254,291,76,169,278,132,322,157
243,283,86,186,287,140,341,155
269,318,93,180,237,136,365,160
252,308,88,160,215,147,383,140
239,324,101,145,194,147,351,134
206,292,97,143,186,138,360,123
215,262,85,133,199,155,413,122
160,264,82,143,247,164,386,103
160,277,87,148,246,158,374,112
152,299,74,160,248,157,368,111
151,295,73,162,224,171,442,132
145,308,77,157,198,148,373,138
127,265,77,159,134,140,375,147
133,271,74,157,142,136,351,148
126,248,75,137,183,168,532,156
131,245,74,124,188,164,466,132
120,235,71,117,202,165,454,123
131,260,66,107,204,164,461,112
132,268,81,105,191,173,465,107
149,238,70,121,146,135,231,103
144,238,71,122,141,148,220,108
156,254,84,153,212,149,273,116
150,266,89,152,209,155,307,122
176,244,83,171,221,146,351,125
169,233,83,173,226,143,353,116
163,232,83,178,259,121,379,115
158,209,71,164,215,125,391,110
165,242,92,187,233,123,421,114
149,282,95,167,261,123,373,105
138,299,97,189,282,130,373,104
141,299,95,186,257,145,362,105
142,296,93,174,241,143,356,97
143,261,70,140,234,144,304,85
138,239,63,173,261,138,309,77
146,218,64,153,244,139,351,87
175,220,74,160,251,134,484,134
188,228,84,176,277,133,481,147
199,244,90,187,275,125,477,158
199,221,100,177,212,130,489,164
207,240,100,165,234,131,540,169
195,227,103,167,221,117,478,163
197,234,98,153,181,112,455,159
184,199,92,144,191,122,443,146
183,255,85,135,213,139,482,141
171,245,89,139,214,140,450,134
175,251,80,128,221,137,388,97
183,238,85,135,237,165,500,135
194,242,83,135,223,170,504,138
212,207,89,132,243,172,521,150
212,225,92,168,246,173,480,155
233,280,100,177,244,184,522,168
211,323,100,177,234,172,496,146
239,332,103,178,231,168,505,156
231,336,97,169,186,145,440,150
253,352,115,133,143,146,558,184
242,309,113,114,131,138,511,173
246,280,109,104,164,147,437,165
231,276,108,107,165,147,470,179
241,265,108,100,168,152,465,179
233,223,79,104,172,192,357,142
229,247,75,109,173,202,429,154
229,262,80,124,135,197,448,159
213,248,81,119,133,209,445,166
208,308,78,124,127,213,463,165
198,319,88,122,142,169,419,160
186,309,84,129,155,157,362,150
173,277,77,122,169,168,390,143
161,282,71,129,209,145,328,100
131,185,63,128,250,135,343,95
116,157,47,136,240,158,379,99
130,131,47,129,235,159,381,103
145,129,51,131,267,133,319,100
211,294,52,145,244,134,346,111
221,309,53,144,258,153,316,117
244,346,55,136,256,143,347,126
246,363,66,178,264,177,400,143
248,366,67,189,237,182,427,153
206,248,70,180,245,186,409,154
199,252,68,184,181,174,422,146
171,201,68,184,189,159,390,135
152,179,57,147,190,119,377,107
142,186,52,128,181,113,376,92
126,220,46,128,163,114,369,110
152,225,45,124,233,132,544,172
158,225,42,126,254,146,563,182
153,224,46,126,242,144,528,181
153,246,63,145,252,174,545,185
165,226,71,150,274,174,570,186
148,198,70,147,253,165,394,139
143,198,71,157,245,160,349,128
173,224,89,170,253,163,386,152
191,206,84,162,247,146,444,180
197,200,83,208,245,161,430,173
189,198,86,227,253,169,436,167
207,235,88,217,229,167,443,165
194,221,77,208,224,164,421,146
199,210,78,213,219,165,311,98
208,204,80,176,206,154,328,89
211,212,78,156,156,139,366,115
204,172,74,162,155,154,360,116
212,155,68,162,166,166,420,114
244,197,66,177,228,166,510,122
234,196,57,158,221,163,531,124
231,238,69,152,222,172,493,102
229,253,76,154,230,158,486,98
231,257,75,166,228,208,493,125
199,236,78,144,264,192,393,128
183,232,83,163,291,187,351,134
178,194,75,159,293,175,351,137
195,182,79,155,290,199,359,138
227,246,80,143,316,132,262,130
217,236,74,131,253,140,253,124
221,239,70,124,223,166,294,112
235,251,79,129,221,173,407,126
221,261,82,135,224,162,422,138
185,207,84,142,224,157,468,130
227,236,99,145,215,170,516,147
238,255,100,125,211,156,487,143
226,233,95,136,217,149,415,142
226,219,86,121,207,170,447,140
219,271,85,117,157,174,426,158
164,274,83,106,127,157,377,146
170,275,82,110,119,156,357,161
190,289,80,92,99,163,376,180
180,305,80,96,100,122,395,178
175,259,79,85,91,118,368,157
179,231,61,95,105,179,361,157
169,221,75,102,113,196,383,166
163,207,76,144,148,193,382,157
167,191,73,145,170,211,297,161
164,216,80,142,176,224,338,170
200,284,90,157,178,188,415,198
197,278,80,167,174,175,407,184
185,271,81,140,175,191,421,172
194,267,91,145,171,182,431,182
213,250,80,149,168,170,398,182
169,171,70,144,187,169,330,157
162,199,67,130,188,156,345,158
173,222,65,121,167,144,317,148
187,260,59,110,146,146,318,174
174,276,69,118,145,143,338,175
172,282,70,95,107,143,388,176
189,264,75,96,112,145,375,171
187,257,76,114,108,142,365,178
182,225,74,124,114,152,456,152
183,217,70,110,125,172,535,154
182,221,77,110,124,166,492,146
162,218,74,105,113,162,491,139
158,228,77,93,114,186,523,151
144,244,80,79,110,164,438,150
142,240,80,83,96,142,312,136
150,250,74,95,109,149,322,129
155,275,72,96,111,148,334,146
149,260,71,92,122,124,285,132
151,243,67,90,119,142,303,112
151,261,70,121,139,150,313,117
187,239,72,121,131,150,337,144
193,223,72,122,130,160,328,156
192,263,70,118,114,147,308,152
194,288,80,130,122,143,366,158
221,266,79,117,102,136,385,162
201,279,74,112,101,132,354,149
191,283,78,117,107,121,354,136
220,287,77,118,108,136,390,139
220,273,69,106,98,141,301,131
199,266,68,89,91,145,357,121
190,252,70,89,95,149,394,117
190,232,69,97,98,160,461,112
157,212,73,107,129,146,446,119
143,183,71,118,162,129,459,121
136,192,67,137,166,122,405,122
136,193,62,135,163,114,377,133
153,195,62,128,172,130,319,136
160,198,65,116,146,127,303,125
160,201,62,106,109,126,290,125
153,207,60,76,101,123,306,126
175,207,61,88,113,129,312,130
197,208,61,106,128,106,272,125
191,198,54,112,140,115,272,125
202,208,57,111,143,110,266,121
198,200,57,108,141,114,225,121
179,210,74,136,172,121,184,100
132,218,69,119,147,128,193,85
130,181,64,115,135,125,259,89
110,167,61,143,149,132,271,86
120,157,72,149,161,132,286,81
113,140,57,120,144,113,383,111
117,128,56,124,153,92,385,116
119,144,57,124,152,94,354,123
122,146,59,98,137,85,361,133
118,156,46,96,136,95,393,146
117,167,47,102,124,94,312,123
119,172,52,103,115,114,335,120
128,188,53,106,123,119,335,109
125,187,56,101,122,125,335,110
121,177,61,106,118,124,294,90
145,179,64,106,121,128,309,109
148,177,60,98,140,118,281,110
143,172,62,101,141,127,267,115
161,177,57,105,140,130,251,138
159,178,51,98,148,133,261,141
150,185,54,126,181,127,249,134
143,178,61,144,181,124,235,137
134,171,59,145,179,114,251,136
136,165,60,167,190,113,276,115
143,182,63,181,188,114,260,115
143,170,69,160,148,134,260,103
166,193,63,155,148,137,255,115
181,203,70,160,163,128,225,114
164,219,79,156,173,151,362,127
163,202,77,147,170,145,379,126
168,208,76,157,178,133,370,132
186,197,86,147,177,146,390,124
219,215,84,153,167,161,440,121
249,227,82,136,158,142,332,112
277,257,86,124,149,142,341,163
320,289,83,111,141,151,359,213
350,320,84,139,153,156,389,215
331,312,92,136,160,146,363,214
334,313,93,145,168,142,346,215
362,315,97,168,189,159,323,195
316,314,97,170,185,145,368,154
265,276,90,148,180,123,336,165
275,267,82,152,171,129,300,189
267,248,76,152,161,137,399,182
192,215,66,130,150,127,413,166
204,216,66,128,145,129,354,151
209,233,67,137,146,142,350,137
202,224,68,134,146,135,370,105
171,220,65,128,141,124,266,108
170,223,66,140,126,117,225,106
155,192,60,143,132,128,244,114
146,182,53,143,129,106,233,118
159,194,48,151,133,109,276,135
168,192,50,149,128,110,311,140
187,196,59,148,139,118,331,145
205,172,56,143,138,111,352,142
211,162,55,144,125,114,357,132
195,175,66,128,123,118,335,127
201,195,66,127,122,125,339,129
185,200,56,112,128,112,340,131
172,218,58,142,162,115,308,136
160,227,89,141,175,124,313,136
149,223,95,137,171,127,311,130
132,253,95,134,170,113,268,116
136,240,98,152,157,117,318,109
152,228,98,133,118,114,325,111
178,227,72,122,100,111,320,116
175,215,52,115,105,115,340,121
190,189,54,124,124,128,360,135
196,210,49,110,131,126,308,142
184,211,49,106,146,132,305,133
164,209,53,108,146,137,315,123
171,219,53,125,140,149,309,122
153,192,50,116,128,141,314,111
144,184,61,112,144,142,294,102
164,206,65,115,149,132,309,106
172,213,64,123,161,137,315,118
160,203,61,108,168,108,283,111
177,224,68,110,179,120,293,133
176,220,63,117,180,150,326,131
154,220,62,111,169,153,321,135
164,221,61,124,172,147,356,138
176,210,61,138,188,151,349,149
168,189,55,138,177,152,328,135
159,200,53,130,158,123,364,148
162,218,61,134,152,128,376,165
135,231,57,117,139,144,366,158
122,250,63,112,130,147,371,145
146,264,75,126,138,147,380,184
192,266,78,130,148,146,356,183
213,255,71,124,153,147,363,180
235,234,75,135,173,130,316,231
240,236,76,127,158,123,310,234
236,246,69,118,150,115,277,208
214,260,66,122,156,126,268,210
220,258,72,136,150,114,263,195
199,272,75,134,122,119,339,132
196,268,76,148,142,130,354,137
183,265,72,148,144,124,376,127
179,249,74,139,132,124,363,120
150,244,70,147,140,122,332,116
154,230,67,153,149,116,294,107
163,225,62,140,130,97,269,103
157,210,61,137,129,116,244,98
149,206,60,154,128,105,288,134
170,181,56,134,141,114,293,158
161,174,52,113,130,135,256,160
155,171,55,133,137,147,265,152
152,158,53,128,164,145,310,166
167,161,49,112,169,154,322,139
136,158,48,114,157,156,322,121
142,163,49,129,152,134,325,122
149,177,52,143,196,170,377,136
155,187,54,142,172,159,376,122
162,220,57,144,169,154,372,125
168,238,61,143,178,151,383,121
163,251,61,156,192,152,376,125
172,248,56,133,146,96,366,130
172,243,54,136,154,93,355,138
152,219,55,139,152,88,382,146
151,216,55,144,141,100,477,154
157,256,55,121,144,118,496,157
142,244,54,118,155,126,464,165
138,251,57,120,162,131,445,158
153,243,51,108,160,130,394,141
165,233,47,97,159,117,296,132
164,225,45,104,168,102,266,122
170,241,50,89,149,88,262,96
170,252,49,87,144,93,289,103
161,242,49,110,177,108,301,119
157,255,52,117,184,117,306,122
191,238,64,127,188,115,306,132
187,224,62,143,192,117,305,128
193,199,60,143,197,119,283,130
185,211,60,132,174,147,293,113
206,228,58,135,185,145,240,119
173,218,49,131,169,145,234,112
164,220,46,125,177,145,224,117
154,223,47,126,184,140,225,109
165,211,47,133,188,105,223,116
133,181,48,151,170,94,238,100
129,160,41,139,174,106,239,96
131,171,48,129,161,103,284,98
134,182,51,144,143,99,340,98
132,217,53,144,137,95,295,97
150,210,53,118,147,109,283,103
163,201,55,140,142,96,278,107
197,244,63,152,153,119,295,107
209,238,64,140,149,129,260,115
208,207,64,165,172,135,258,109
189,216,66,167,159,129,286,105
183,246,67,152,147,128,312,117
143,205,56,150,152,121,292,118
136,205,49,150,150,119,270,112
128,201,54,126,132,102,293,127
143,207,56,126,150,121,336,142
164,224,58,130,186,137,352,134
160,209,65,126,176,154,448,141
163,206,68,135,210,188,520,150
168,218,66,143,209,211,617,155
169,236,95,147,200,205,662,161
160,214,123,162,175,197,652,163
201,230,124,162,173,184,597,173
203,229,126,170,146,151,567,164
201,236,130,153,133,135,570,153
202,235,115,159,144,128,489,145
196,218,87,150,152,138,492,146
176,261,84,149,195,133,482,126
201,271,84,146,218,133,501,136
210,264,76,174,232,138,434,135
214,253,74,169,237,157,500,147
216,300,85,171,229,150,504,173
223,270,90,172,193,157,629,202
203,270,95,178,180,153,599,198
202,273,98,160,178,172,569,210
240,307,99,157,159,173,575,208
250,277,85,147,151,182,595,204
316,331,77,152,162,186,536,210
339,359,90,175,156,210,587,233
335,383,99,175,150,200,646,229
306,367,96,175,162,191,658,222
358,361,99,176,184,185,652,236
289,302,100,172,187,172,615,212
259,259,85,154,168,167,674,204
331,262,78,151,173,175,645,207
343,250,75,154,166,173,585,207
282,236,76,186,165,184,592,183
287,252,85,192,170,200,625,182
297,304,86,172,180,183,516,173
228,263,79,182,170,166,502,173
208,243,81,175,163,171,528,177
209,257,75,134,148,160,509,167
277,335,105,154,144,141,468,172
269,319,102,151,146,142,465,162
261,332,105,136,177,147,448,145
253,364,108,141,184,141,420,134
257,382,109,160,184,154,522,131
184,323,80,139,191,157,563,136
200,305,78,140,205,179,605,150
232,315,87,146,178,192,727,192
254,298,83,141,174,189,731,210
250,288,85,134,166,215,787,237
241,290,91,132,150,235,791,234
231,277,94,139,111,249,812,246
209,253,84,134,128,278,710,226
188,280,91,158,159,298,777,243
224,254,100,155,169,289,693,225
246,260,106,152,164,272,647,228
243,299,106,148,164,238,582,205
246,320,107,157,190,198,604,209
268,290,100,163,221,245,707,218
239,323,108,186,291,258,678,209
243,309,105,187,299,257,678,211
258,300,109,190,303,290,793,219
257,304,113,190,280,288,800,210
264,304,115,170,243,237,652,185
270,274,96,174,178,197,638,192
265,294,96,193,176,211,657,190
274,313,92,188,176,175,538,204
340,287,90,183,183,164,510,234
322,276,102,203,223,172,512,239
