83,247,102,46,43,36,35,41
94,256,109,46,49,47,36,39
107,263,96,46,49,48,33,37
125,276,108,47,51,49,34,40
121,225,109,48,52,51,34,39
124,238,108,42,56,51,36,42
119,235,121,38,51,43,39,44
113,230,132,37,50,39,39,50
89,231,126,39,52,42,37,46
92,250,138,42,51,43,38,45
110,243,135,46,47,42,36,43
109,235,126,46,47,43,40,38
116,261,123,49,50,46,40,33
135,227,125,49,44,42,42,40
136,213,107,54,43,39,41,39
117,214,108,56,45,43,51,37
135,236,106,57,46,42,46,45
125,217,100,55,48,43,46,47
103,237,86,57,51,44,46,44
151,223,80,50,50,45,52,48
159,226,100,50,50,46,40,48
147,239,112,52,57,51,39,47
153,241,114,57,54,48,45,44
154,253,124,54,55,50,46,44
105,289,134,54,54,48,41,40
97,294,123,56,58,47,47,47
89,298,119,61,63,51,51,45
87,298,118,62,70,58,49,50
93,287,126,68,75,60,47,49
102,272,120,73,74,62,47,49
102,272,121,68,70,59,44,45
121,240,112,65,65,55,46,47
118,260,124,63,57,51,44,45
125,276,127,60,57,52,43,47
130,273,127,54,61,52,45,51
129,279,128,54,64,54,46,51
130,284,144,50,59,51,39,45
129,269,139,45,63,53,37,42
123,246,136,44,58,48,39,42
125,254,130,45,60,51,37,42
127,241,142,46,59,50,34,40
118,263,134,44,59,50,37,44
117,250,127,46,56,49,36,44
124,279,110,43,54,47,37,54
116,258,115,43,49,43,38,56
118,263,100,43,47,41,39,56
115,240,84,42,46,37,35,54
112,256,92,42,47,36,39,57
100,235,120,40,46,34,39,47
97,229,128,40,51,42,36,44
95,213,134,42,51,42,35,49
89,236,140,45,54,45,36,48
91,207,139,46,51,44,36,47
90,193,125,47,53,44,37,45
99,273,117,47,50,39,41,43
103,283,108,44,53,44,44,40
125,267,104,47,51,42,42,43
130,291,104,45,51,43,42,42
131,286,97,45,52,44,41,46
132,231,97,44,49,41,38,44
128,235,107,54,57,42,37,48
111,247,107,56,61,47,41,49
102,230,111,56,60,47,39,48
108,245,121,59,58,46,41,50
104,238,120,62,57,48,41,55
103,243,121,57,51,45,44,52
111,236,132,50,46,41,44,51
115,257,129,53,47,42,43,50
108,253,123,51,51,44,39,49
99,248,125,49,53,47,39,45
98,238,113,47,49,46,41,44
95,242,100,50,56,49,40,44
88,215,99,48,55,48,42,43
93,210,100,45,52,46,40,45
96,224,115,49,51,45,48,49
99,213,119,46,53,45,40,50
90,232,129,47,48,40,39,50
90,243,154,49,54,45,37,51
89,245,152,51,56,46,42,49
105,241,138,45,55,44,34,44
114,282,161,45,53,44,34,43
116,243,150,44,54,45,33,39
117,277,124,41,51,42,35,38
132,302,136,42,56,44,36,41
119,314,143,43,56,46,37,41
109,308,109,43,56,43,38,41
109,312,123,41,57,45,39,43
111,279,123,44,56,45,44,48
93,242,123,42,51,45,40,44
91,212,119,43,53,46,41,46
99,171,119,45,51,46,40,48
101,202,110,47,48,43,42,46
110,209,116,45,46,41,35,41
106,216,92,51,56,45,37,42
120,222,87,51,56,43,41,45
118,224,106,53,64,50,42,42
112,206,109,53,67,56,41,46
107,188,106,58,71,59,42,47
112,219,129,63,68,59,40,49
98,228,130,65,66,59,36,48
94,226,120,63,65,59,37,50
105,245,130,60,60,52,40,52
103,254,129,52,57,51,42,53
109,234,114,43,52,47,45,54
109,249,135,40,60,50,45,51
108,274,132,54,59,46,47,52
106,283,118,60,59,49,42,45
105,310,125,62,61,47,50,50
93,329,122,65,65,49,48,47
95,347,112,65,62,50,47,48
100,337,124,54,63,52,43,53
97,328,136,50,71,50,44,54
105,296,127,62,68,49,46,61
115,294,150,56,65,50,45,61
122,259,145,56,64,50,46,62
116,243,136,56,59,48,46,56
126,228,148,60,61,57,48,59
128,235,147,55,63,59,37,52
131,225,147,62,68,59,39,52
126,246,150,60,68,59,61,53
139,293,160,63,73,64,64,56
139,344,174,77,86,71,63,50
133,355,180,84,91,75,65,49
128,408,173,96,95,77,66,50
129,397,168,98,93,75,48,55
144,408,166,99,92,71,44,62
166,424,155,106,81,65,48,73
195,454,159,142,95,82,44,74
200,415,155,135,95,84,44,72
200,415,160,133,94,84,43,69
220,374,150,133,93,88,49,67
207,297,149,134,88,81,49,62
221,301,148,99,74,65,48,66
220,324,168,96,64,58,49,68
229,345,237,101,78,70,50,72
234,467,270,104,83,70,49,75
246,497,296,87,87,74,52,75
219,466,296,82,83,71,59,72
220,442,285,83,81,69,58,71
229,460,244,83,77,63,59,69
197,383,219,83,70,56,59,64
190,367,168,82,67,53,66,73
184,421,173,90,78,62,59,72
193,423,195,88,79,66,59,93
199,378,178,92,77,66,65,95
204,376,173,89,93,81,66,95
193,382,182,84,91,79,54,85
250,434,223,78,96,82,66,86
266,498,226,82,97,80,68,72
264,544,233,80,97,81,61,65
260,553,238,81,85,69,58,66
266,589,232,89,91,73,58,67
254,582,201,92,83,69,49,75
245,539,231,108,85,68,70,80
266,531,247,106,87,71,75,83
261,497,246,105,88,72,78,83
263,444,246,105,86,72,85,85
228,364,252,98,84,74,86,78
244,379,234,93,98,86,68,73
252,421,218,95,98,86,76,90
256,429,209,98,94,83,76,91
255,444,219,108,94,81,70,91
251,428,193,107,92,76,67,94
239,427,188,98,78,65,74,101
204,382,193,93,72,60,87,87
211,385,213,89,72,59,85,87
201,383,214,81,76,63,83,86
226,436,234,76,73,59,85,84
205,410,209,71,72,56,78,66
204,374,204,69,72,59,56,72
197,413,197,74,74,60,56,70
200,395,182,62,68,58,58,70
170,345,183,63,65,56,56,67
205,411,202,63,63,56,54,69
202,424,209,65,63,59,50,63
204,369,203,64,76,69,57,65
220,405,198,80,90,81,62,80
222,404,225,83,91,82,63,83
196,370,207,90,94,83,74,94
184,351,192,97,104,87,77,95
197,350,205,96,96,82,73,92
215,398,228,92,91,77,69,85
226,390,182,96,92,76,71,89
243,416,217,91,95,81,61,76
270,437,246,87,85,73,59,75
277,468,236,84,89,79,60,81
258,432,245,93,96,86,59,78
264,472,252,86,99,91,61,77
270,481,247,90,107,101,64,87
253,463,232,92,112,107,63,90
244,479,239,100,117,109,66,98
268,460,221,99,119,108,75,96
295,572,308,132,134,119,90,103
319,587,315,133,135,118,92,120
337,640,384,133,134,115,121,129
350,618,387,135,142,122,123,131
333,611,381,123,132,115,119,133
307,472,327,89,115,99,116,135
286,435,311,95,118,94,130,147
268,408,218,111,121,99,108,143
263,474,279,123,124,99,107,141
254,488,317,129,127,101,115,146
291,571,335,171,152,125,122,146
288,564,350,192,150,128,109,124
298,558,354,190,164,141,115,124
352,512,306,181,147,129,120,134
388,527,275,197,147,129,128,129
368,489,249,171,136,123,115,125
363,489,235,150,132,120,112,114
357,494,236,154,141,126,109,108
315,495,282,159,149,133,125,116
269,476,285,139,149,132,110,117
264,430,275,126,140,120,108,113
278,404,261,130,140,121,126,122
280,406,271,131,122,103,122,123
257,430,222,131,121,100,102,116
301,480,266,137,123,101,104,125
315,534,275,140,128,102,106,139
325,656,341,136,133,102,89,136
317,631,339,120,125,96,83,138
319,608,336,120,124,95,82,127
289,595,314,112,123,94,106,131
279,561,324,123,123,98,120,128
257,496,258,123,123,102,119,128
302,523,245,162,129,106,137,133
325,617,263,181,141,116,141,141
314,586,242,193,147,119,121,131
313,581,228,191,142,120,110,123
309,590,273,193,146,119,112,124
283,604,284,164,143,117,105,129
269,504,271,148,135,110,103,131
278,546,273,132,126,105,105,131
286,576,270,159,144,111,104,130
305,509,235,165,141,111,105,151
288,493,222,172,136,108,94,143
284,507,250,175,143,114,98,134
299,479,270,175,146,117,107,147
283,456,284,164,134,109,104,146
250,480,297,150,122,100,100,132
270,462,294,135,118,97,108,131
276,474,272,116,97,82,102,131
282,490,299,139,99,82,100,129
284,470,287,133,92,77,107,132
286,442,277,150,109,84,114,122
279,454,306,157,109,82,105,137
262,446,313,166,128,97,107,136
253,479,293,149,128,98,100,127
245,470,293,148,127,98,99,135
247,459,281,134,117,95,91,134
240,438,248,141,124,104,93,112
256,418,234,135,112,95,100,121
256,389,211,151,107,90,111,128
257,463,229,148,107,89,102,119
268,479,257,144,100,81,103,129
270,471,254,128,94,74,110,140
233,448,239,122,82,65,95,125
216,399,228,95,76,63,78,106
216,331,205,74,81,74,93,102
208,327,211,102,109,91,96,98
208,356,230,120,115,98,89,84
236,363,237,137,119,103,92,85
279,419,251,134,121,103,103,90
291,393,243,135,119,98,100,100
316,403,217,122,98,91,105,104
317,388,205,106,101,90,105,111
304,399,231,91,106,93,106,109
266,370,213,104,108,93,97,104
284,380,209,108,107,95,92,96
265,332,209,113,107,91,95,87
260,322,227,112,95,84,104,90
265,364,212,109,96,85,111,91
281,362,231,96,95,88,118,113
257,370,277,89,90,84,124,118
242,374,264,67,84,80,114,118
252,373,249,80,96,87,105,116
262,369,258,92,93,79,112,124
260,429,294,100,106,89,112,109
255,429,296,109,110,91,116,126
271,437,299,123,120,95,112,119
266,476,303,116,114,88,109,111
248,477,301,108,117,94,93,100
256,430,278,117,114,89,130,153
276,498,238,122,115,93,121,140
278,507,251,110,111,95,130,149
271,497,247,114,117,104,138,153
301,498,228,130,115,103,145,158
281,495,193,120,115,110,114,114
255,440,225,123,111,105,128,119
271,455,208,123,105,99,133,143
268,433,200,126,94,88,126,139
230,440,245,110,86,83,115,133
241,416,264,108,66,62,130,139
247,466,262,94,67,64,120,138
228,454,263,113,85,78,115,121
277,454,259,108,81,75,122,137
285,430,240,113,97,86,136,143
270,454,232,120,104,89,121,129
307,400,202,117,111,93,122,130
296,499,244,108,120,106,114,124
267,494,248,107,124,107,106,107
288,508,259,102,111,97,95,113
302,490,247,99,109,99,102,117
270,465,254,112,100,94,103,111
273,358,221,108,73,67,113,120
261,346,219,120,77,71,123,125
276,339,197,124,81,78,147,135
289,338,203,119,86,83,140,130
292,374,196,104,87,80,139,130
307,386,189,112,87,82,132,115
310,399,212,103,97,92,124,111
292,399,207,111,97,90,95,93
327,472,262,135,97,89,95,101
323,469,276,138,102,95,98,101
304,454,286,128,101,92,101,103
314,501,306,135,95,85,110,109
307,484,337,122,94,84,127,114
279,440,291,96,89,79,123,111
295,455,311,112,99,81,112,123
316,443,305,140,102,85,123,126
303,420,269,132,93,81,122,124
305,480,248,138,100,92,97,120
277,517,280,145,106,96,106,129
264,495,233,139,96,88,116,124
248,521,239,121,95,88,102,120
245,527,262,120,103,94,98,118
253,494,279,137,125,109,113,128
262,476,305,131,121,107,111,118
247,473,310,136,122,109,100,109
242,459,300,137,120,109,106,124
264,446,296,139,132,116,103,127
261,462,284,120,122,105,91,109
269,456,278,131,119,101,88,107
275,480,281,119,114,97,97,111
278,469,282,110,125,103,95,91
292,447,264,110,109,86,103,79
302,432,238,109,90,71,100,88
288,429,214,92,97,76,120,112
292,451,231,90,103,83,120,112
283,463,241,99,92,77,121,119
255,484,282,104,105,90,113,121
234,449,287,101,107,93,122,127
238,409,267,118,103,90,124,115
251,345,261,116,100,89,122,117
264,436,263,106,99,87,121,115
254,448,221,93,85,74,123,113
255,506,214,99,85,77,122,105
254,521,229,99,98,85,106,111
250,542,243,107,96,84,102,106
258,455,232,116,102,86,103,109
264,502,294,121,108,96,110,116
267,464,289,117,108,94,111,127
289,457,270,104,95,83,115,130
265,448,266,110,109,94,118,136
284,489,278,100,105,95,113,128
301,391,204,105,93,81,104,122
286,403,212,104,89,76,117,121
290,414,220,108,91,81,117,118
300,418,205,97,72,63,123,116
310,374,224,108,69,58,130,128
296,400,236,93,70,62,134,137
298,363,230,96,70,64,125,131
283,379,276,88,63,58,122,124
288,392,278,91,65,59,127,138
314,425,246,91,70,65,128,128
318,437,264,95,77,71,138,123
319,443,260,91,74,68,127,116
305,428,225,94,79,72,150,126
303,421,206,90,79,73,151,126
214,414,205,77,77,69,145,126
199,417,184,83,75,66,146,130
210,461,203,117,96,82,173,169
218,438,194,117,102,86,154,155
221,449,207,123,105,85,149,145
218,432,217,133,108,91,155,145
206,399,240,132,103,86,150,140
184,353,230,103,83,72,125,93
162,371,217,131,89,77,127,105
166,383,213,128,90,81,117,95
159,383,202,119,88,75,105,91
178,389,164,116,89,77,103,90
220,399,174,136,94,81,107,115
213,384,183,114,87,76,112,115
194,332,174,111,85,76,116,114
196,341,204,116,89,88,120,121
194,327,212,127,96,100,126,130
175,352,224,114,94,99,116,107
183,435,228,124,97,100,99,95
198,439,231,130,96,97,103,97
208,437,218,137,87,85,100,95
195,462,218,143,83,77,95,82
202,424,210,142,82,72,99,92
195,342,193,130,72,66,99,91
184,336,188,127,74,71,94,94
212,345,203,114,72,65,106,91
233,452,222,98,69,56,109,104
210,456,203,87,69,62,107,106
213,468,204,85,60,55,109,112
223,494,221,79,52,49,108,117
206,488,199,87,55,50,110,130
215,462,233,93,59,54,103,115
213,493,249,94,57,46,105,108
215,501,257,92,60,51,113,123
228,473,244,108,65,53,115,128
215,474,241,106,68,55,122,124
195,418,200,105,62,51,129,127
216,420,189,104,63,56,125,127
249,436,182,129,76,70,113,109
246,491,196,123,77,74,118,104
263,498,196,128,73,75,104,98
256,525,191,124,77,81,101,111
259,489,180,129,75,76,112,122
234,449,172,129,70,66,117,123
252,404,150,130,71,64,118,124
256,459,158,122,72,63,117,124
255,399,142,117,67,59,116,112
234,453,153,115,77,74,110,102
254,465,158,85,71,71,104,101
211,458,180,68,68,71,93,93
196,385,181,70,75,73,85,86
218,411,180,79,78,71,79,87
232,350,172,79,70,59,86,87
196,330,169,85,72,61,95,86
226,368,147,92,73,58,107,104
218,361,149,91,68,55,121,110
200,339,146,91,71,63,125,116
208,409,168,95,70,65,123,113
242,419,169,97,73,66,117,115
221,383,177,102,68,65,105,97
229,382,160,105,74,69,91,94
240,397,171,104,78,74,87,78
235,364,162,100,78,73,81,87
234,378,190,99,80,76,86,105
229,427,194,99,89,84,89,106
222,430,198,91,82,79,102,112
214,392,180,81,77,73,105,116
193,369,172,86,83,76,105,111
172,363,218,81,82,77,101,95
189,348,220,83,72,69,97,94
218,341,241,96,84,74,82,82
222,346,257,106,86,76,70,74
243,370,271,103,80,71,72,72
243,431,231,133,76,65,71,72
231,407,222,129,82,69,88,77
216,412,205,131,68,63,99,90
207,410,192,128,63,60,99,95
204,392,167,125,69,62,99,96
193,315,135,88,69,59,109,101
213,286,130,94,62,55,95,102
191,338,128,100,67,56,88,93
208,406,116,96,66,54,115,110
188,406,128,102,65,54,119,110
195,405,129,109,64,55,109,102
208,434,126,109,69,58,113,94
212,383,119,95,72,61,107,92
190,331,125,100,78,67,78,71
222,339,135,95,85,76,78,74
223,323,140,96,87,77,77,79
193,324,155,98,85,74,71,83
189,363,153,98,82,72,80,87
244,358,152,94,77,67,91,99
227,377,168,98,76,285,81,103
222,370,164,101,74,469,87,100
221,343,168,90,76,491,92,102
235,316,168,83,79,493,100,109
192,306,170,90,78,494,96,104
176,277,160,84,67,411,109,96
165,300,165,82,71,181,106,99
170,360,169,87,77,115,105,97
155,362,177,92,84,117,95,84
150,354,169,80,81,111,106,83
162,365,159,84,83,93,100,87
159,400,156,75,79,82,101,84
181,366,141,80,84,81,106,90
177,354,136,74,73,68,105,89
169,376,160,82,75,71,93,87
159,383,161,87,76,71,93,90
182,357,165,92,79,71,93,85
189,368,166,80,69,65,84,79
193,446,177,80,67,67,85,90
198,455,163,73,65,64,88,103
208,440,159,61,66,65,85,116
206,486,182,52,64,67,89,124
179,508,226,63,79,80,92,125
174,455,233,64,79,77,95,120
177,451,240,69,78,77,91,106
171,433,240,76,77,78,93,87
163,368,225,78,76,74,83,79
152,331,188,85,70,69,80,75
185,315,166,83,71,70,75,82
180,288,154,86,73,71,86,92
174,351,154,91,78,75,102,96
171,353,155,93,79,77,107,99
188,340,133,79,67,64,113,102
161,340,128,84,76,71,118,104
162,360,168,81,75,71,109,102
160,343,180,74,75,69,94,101
164,369,198,71,75,71,96,105
159,370,205,73,74,68,90,101
154,382,216,72,70,66,93,99
199,426,199,77,68,63,88,97
212,412,207,79,64,60,83,95
201,382,183,82,58,52,76,89
223,363,180,81,56,53,77,106
258,392,179,97,64,59,79,139
222,332,174,90,63,56,88,145
218,339,155,87,67,59,88,143
225,367,163,81,66,57,89,142
215,379,162,89,68,58,91,136
253,341,178,79,74,68,97,130
283,361,170,81,76,72,96,134
290,395,172,78,77,74,107,156
296,389,174,86,81,79,108,159
290,383,190,88,89,83,113,162
233,398,168,77,79,71,106,138
204,366,166,85,82,70,109,123
205,324,170,92,85,70,98,97
224,346,192,102,84,70,104,104
219,350,183,97,77,63,103,104
231,317,175,100,70,57,100,112
233,347,189,96,65,56,99,123
228,346,186,92,56,50,109,135
205,319,155,89,61,51,101,134
235,308,143,86,58,51,95,126
216,323,152,83,58,51,101,126
207,331,136,80,63,59,103,130
204,325,138,84,67,66,100,132
226,332,147,78,62,62,110,142
192,371,150,83,63,61,111,143
201,426,156,81,67,65,133,153
196,450,158,87,69,63,128,143
210,453,140,80,72,63,130,140
209,431,140,74,71,63,123,126
202,403,132,65,70,63,125,127
225,358,179,77,92,73,95,113
230,306,184,71,89,69,90,109
246,354,201,74,84,65,84,97
222,350,199,86,84,66,87,101
239,371,213,90,91,70,82,101
219,371,186,90,81,67,78,98
216,368,191,93,77,66,91,102
188,317,184,92,74,62,101,106
211,316,176,81,80,66,115,110
200,302,163,84,84,71,126,112
185,275,135,75,74,64,131,120
209,278,140,72,76,66,126,120
200,334,149,69,80,69,128,117
217,348,166,69,75,66,115,109
241,334,161,61,64,56,101,104
253,336,165,63,68,58,96,93
252,361,168,68,70,60,93,91
264,317,154,67,66,58,80,89
233,335,165,65,67,60,88,96
210,360,171,74,69,65,95,97
239,358,180,73,67,63,97,92
218,312,159,74,65,58,98,93
201,290,182,74,66,59,93,97
212,294,168,77,72,62,91,82
222,279,172,67,70,59,92,78
199,287,167,78,72,61,101,86
202,297,165,73,74,64,110,90
215,303,133,77,77,64,109,97
220,267,133,86,74,61,108,104
198,263,120,87,73,60,107,107
178,281,121,77,67,54,101,107
190,284,146,80,67,53,91,109
198,283,157,76,61,51,93,101
200,284,152,75,68,58,95,108
219,298,163,76,67,58,95,110
213,325,159,73,73,63,99,107
204,327,142,68,69,63,102,106
183,319,131,74,71,64,110,118
173,345,131,63,62,53,114,107
165,361,123,62,64,55,120,113
175,357,177,73,61,51,117,122
180,361,183,76,62,48,122,118
177,379,189,78,65,50,113,105
159,352,195,84,66,51,107,106
164,339,194,91,63,49,104,109
154,292,154,94,63,49,96,95
149,324,161,91,67,55,96,107
163,301,159,92,65,55,110,130
188,307,154,85,66,60,107,133
199,293,161,80,75,69,100,135
207,306,164,72,75,69,101,141
218,269,145,75,72,66,88,133
239,297,162,69,75,69,70,109
229,298,163,72,73,64,68,103
214,301,181,69,63,55,70,88
230,308,177,74,62,55,82,89
213,297,185,78,69,62,83,98
183,359,166,78,67,61,84,97
176,371,168,75,67,61,84,106
180,364,132,78,68,62,91,109
186,405,140,75,74,67,80,118
212,407,136,76,68,60,89,119
212,361,141,83,67,58,100,125
214,344,139,82,70,65,104,121
209,380,164,81,76,67,134,143
236,329,152,80,66,62,134,137
215,336,153,77,64,63,162,152
211,318,154,71,69,68,159,155
226,318,157,78,69,62,161,152
237,300,137,80,63,60,142,134
180,293,144,81,70,65,143,131
189,300,169,84,74,68,107,99
198,309,175,82,69,62,117,135
196,314,171,77,69,63,113,141
177,312,197,73,73,64,98,134
181,301,189,69,66,58,99,136
211,297,165,60,59,51,102,144
199,286,154,59,56,51,80,99
206,305,152,58,58,54,77,94
223,274,118,63,52,53,90,104
252,310,128,76,55,57,93,101
225,327,130,79,62,62,91,94
241,328,133,78,66,67,99,97
222,308,151,81,61,63,107,109
232,322,148,76,62,61,113,109
221,309,151,71,60,58,111,107
223,325,169,75,60,56,121,113
211,309,165,74,56,49,128,117
233,331,158,74,58,51,131,115
218,334,173,80,58,51,116,109
209,329,170,76,59,55,123,114
198,314,157,74,65,58,112,106
223,321,155,74,71,63,97,99
207,293,141,74,70,63,89,85
197,291,134,73,72,67,100,86
181,291,158,69,71,67,105,85
212,249,153,66,61,61,103,88
194,277,174,67,51,54,104,91
181,319,185,68,54,56,104,97
181,312,176,72,57,54,96,91
203,325,151,77,60,55,77,88
179,359,162,75,60,58,75,92
166,331,139,74,61,61,85,99
206,332,132,75,58,57,84,93
231,330,141,72,54,54,82,95
232,337,158,67,52,54,82,95
229,305,152,69,58,57,83,93
231,350,175,73,63,59,69,84
202,316,180,74,64,62,84,96
189,322,173,65,60,59,90,95
164,311,170,62,58,57,90,90
173,314,164,67,58,56,100,95
168,321,158,71,58,53,104,98
185,329,167,76,66,61,92,90
168,311,169,80,69,63,98,110
166,333,191,92,70,63,115,124
174,338,194,90,70,65,109,117
182,319,192,90,65,62,104,112
161,311,183,87,61,52,108,111
177,341,196,93,66,62,97,102
194,308,165,87,68,62,84,101
180,312,155,93,68,60,80,101
182,283,141,94,70,61,83,100
196,283,140,97,69,64,77,104
196,296,164,102,69,63,77,94
191,299,163,96,67,62,87,81
195,279,174,86,60,56,92,81
210,280,178,86,68,64,124,119
211,312,175,84,71,68,125,116
193,271,140,72,65,60,133,121
181,271,154,80,68,64,126,127
171,290,144,85,71,65,124,127
156,297,141,78,64,62,105,100
131,255,142,84,68,63,105,99
163,266,138,93,69,62,103,107
163,255,111,85,63,56,104,103
163,240,122,87,66,61,102,106
152,236,120,91,69,60,90,105
182,234,115,79,68,58,95,115
165,271,123,71,69,62,90,100
172,283,130,70,70,63,83,94
197,290,140,66,65,58,100,106
192,277,145,60,66,59,132,128
192,292,155,62,67,55,124,119
194,239,148,62,68,53,126,124
205,277,148,78,75,61,137,134
196,294,153,84,79,67,132,134
215,325,146,88,77,63,105,118
198,313,145,94,70,62,113,122
191,309,142,92,69,63,109,120
171,268,137,79,59,53,107,126
162,284,112,71,53,49,108,119
162,274,112,66,55,52,105,121
172,288,107,53,62,56,106,122
190,314,122,64,70,62,142,158
206,356,143,66,74,64,132,147
220,387,159,72,79,66,123,146
249,391,173,87,78,63,125,143
242,386,165,84,72,58,119,136
237,369,155,80,62,51,72,90
231,322,137,81,58,48,85,94
216,263,145,81,54,48,95,101
160,252,136,74,48,47,95,98
161,338,161,82,53,50,99,103
152,342,172,79,55,52,107,100
142,380,179,77,55,52,98,97
154,369,162,73,58,56,87,89
149,362,154,70,58,57,84,84
152,281,134,66,61,60,94,93
147,310,141,70,64,62,99,94
177,285,132,75,70,65,113,96
156,307,126,75,68,60,115,96
151,337,138,74,69,59,116,96
156,364,140,72,64,54,101,88
176,377,122,78,63,52,108,103
179,385,149,75,68,62,99,104
184,355,146,72,62,58,101,100
220,331,142,78,64,60,115,130
225,317,150,84,62,59,117,129
213,263,155,78,59,57,101,120
207,226,150,81,57,52,101,129
215,272,196,88,62,56,98,136
186,292,200,78,66,59,83,106
195,287,197,73,66,59,91,119
187,306,207,83,73,62,101,126
180,326,207,84,78,63,97,116
187,311,171,82,78,61,104,118
186,282,173,82,73,56,104,120
173,312,176,80,75,58,104,111
201,343,160,69,75,59,95,99
227,371,180,68,66,55,108,116
249,364,176,77,70,60,104,108
262,390,172,89,81,68,105,113
253,404,212,96,84,68,105,108
234,381,209,92,76,64,106,122
207,367,187,92,73,60,94,100
169,381,194,91,77,63,88,100
206,395,216,77,70,57,96,108
207,346,166,69,67,57,89,115
223,338,182,83,69,58,87,103
221,316,171,82,71,61,84,102
243,300,161,82,67,61,91,105
198,266,120,91,60,59,89,84
221,268,123,96,59,57,86,77
209,262,120,88,64,62,91,73
203,270,137,83,60,58,111,89
187,261,155,78,54,50,114,93
214,255,159,70,55,51,112,97
201,265,158,64,52,52,121,98
221,287,157,60,51,49,115,104
237,272,145,64,58,57,99,97
231,303,143,59,61,60,108,97
205,330,144,57,62,60,113,102
197,327,144,54,68,64,105,102
179,311,130,66,78,68,110,104
158,307,160,78,80,66,107,102
145,286,151,81,77,62,96,94
144,236,146,83,81,65,84,84
129,216,141,81,76,61,86,80
113,214,150,70,61,51,78,66
128,282,117,61,53,46,93,89
142,346,144,57,55,48,95,90
150,353,154,60,49,40,93,90
158,367,161,66,50,42,90,92
188,381,155,70,60,53,96,102
180,336,162,69,58,52,95,92
180,289,141,85,61,53,89,92
176,344,152,98,73,63,92,98
219,345,147,95,73,63,93,105
192,347,147,99,71,60,89,101
189,354,142,101,71,62,79,95
180,342,147,90,69,63,77,93
219,293,150,69,56,55,72,90
178,307,162,79,54,54,68,83
182,283,167,77,47,50,71,77
182,283,166,76,53,54,74,73
184,285,163,76,58,57,103,89
165,309,152,94,60,57,114,104
178,311,156,93,60,58,116,108
199,363,169,92,66,61,113,107
201,385,162,91,66,62,117,110
201,371,152,89,59,54,97,98
182,359,160,85,65,56,90,89
170,352,154,86,65,55,90,90
145,354,131,91,60,49,90,89
141,328,144,92,60,47,80,90
155,339,166,96,67,56,86,100
154,398,158,89,61,54,80,94
158,393,155,82,60,52,79,89
178,440,189,77,63,59,82,95
179,435,183,80,59,54,84,94
166,431,164,77,56,47,94,86
162,383,164,78,63,53,98,88
153,370,157,84,66,52,101,88
131,275,122,86,71,55,101,82
125,283,118,79,70,56,111,83
128,287,113,73,67,54,102,92
120,246,92,68,59,47,105,89
143,301,101,66,57,52,105,86
144,280,95,66,47,46,113,88
161,318,112,74,52,49,107,83
158,337,124,78,52,48,97,69
173,336,131,77,51,49,90,75
156,293,134,72,58,54,94,100
167,287,133,62,60,52,90,107
153,291,156,58,61,57,87,111
164,319,159,57,73,70,89,111
180,357,161,71,77,74,104,120
170,356,171,85,73,70,97,99
157,353,170,90,72,68,95,89
164,335,141,105,71,70,101,91
151,305,133,126,71,64,109,87
116,272,138,120,69,59,107,92
132,267,117,112,67,59,115,97
135,319,124,112,70,63,111,104
143,290,128,112,74,61,104,103
168,260,127,95,64,54,98,115
172,253,126,104,65,55,100,110
177,279,130,103,63,52,97,123
167,233,124,112,61,46,100,116
155,234,126,101,51,40,101,118
168,233,127,97,54,46,103,111
167,229,110,100,53,45,101,100
171,232,105,111,53,48,96,87
189,309,133,101,56,55,97,92
214,304,139,100,56,53,99,89
184,318,143,109,60,53,105,90
193,330,154,100,62,55,89,85
181,311,163,93,65,57,92,83
172,227,142,94,67,52,100,93
152,241,149,94,77,66,97,101
155,239,155,89,69,62,85,97
156,271,174,84,67,60,89,98
162,307,173,80,66,58,82,91
153,304,178,86,76,67,63,77
154,292,167,84,70,55,63,63
165,298,169,78,74,56,64,65
158,269,145,76,75,59,71,70
160,221,136,77,76,58,77,76
174,240,147,64,63,47,86,100
172,240,148,61,61,47,90,97
160,241,149,69,61,53,87,93
166,217,141,74,58,50,81,94
163,265,156,77,53,54,78,91
147,246,141,85,53,56,79,78
171,268,139,87,57,62,76,89
184,315,134,86,75,73,81,96
192,349,165,97,84,79,96,104
196,314,149,103,86,78,107,112
192,312,148,102,85,76,106,108
170,308,153,102,86,75,107,104
160,266,173,101,70,59,110,107
151,228,150,90,64,54,100,105
148,224,152,81,61,50,88,100
156,242,152,77,63,53,84,95
155,222,151,75,56,44,82,92
194,204,164,77,58,46,80,96
191,205,160,80,60,50,81,87
199,322,183,91,75,66,83,90
195,323,189,103,85,67,94,97
201,323,180,106,87,69,106,103
169,337,144,101,84,66,110,98
171,376,160,102,88,69,109,110
158,337,129,89,82,67,108,107
163,331,116,70,68,63,99,99
172,349,127,64,67,63,92,97
158,324,118,65,66,64,83,93
146,276,121,58,57,59,81,82
156,223,124,82,64,54,81,89
159,281,144,84,62,53,78,91
130,276,141,87,60,53,71,89
136,372,148,106,82,69,68,89
162,376,141,113,84,69,72,88
146,371,137,97,71,62,77,87
134,334,124,99,74,67,85,86
142,321,125,98,77,67,105,85
166,256,130,86,57,50,117,103
159,254,120,81,54,47,120,111
159,265,128,83,61,52,121,109
178,254,120,77,63,48,122,118
180,256,129,83,65,51,107,116
169,213,128,81,61,50,96,98
158,219,136,76,61,53,99,94
180,200,130,75,56,49,93,98
172,218,160,79,51,47,88,96
165,222,169,80,44,43,87,95
161,259,172,78,56,52,86,96
167,251,186,92,59,54,77,91
194,256,186,94,58,56,90,90
189,261,172,89,59,59,85,83
189,251,151,94,62,59,79,84
192,233,163,89,57,55,80,91
206,293,142,73,53,53,81,91
175,341,156,71,55,53,62,86
176,345,147,75,54,51,64,84
186,344,145,68,49,49,71,103
203,355,140,73,49,54,73,111
189,318,152,92,73,60,69,110
172,271,144,93,73,60,72,108
238,294,149,91,74,59,77,112
252,326,179,90,76,61,79,97
232,306,160,83,74,55,77,77
235,306,153,64,55,46,97,101
243,300,148,65,54,46,104,115
186,276,141,69,54,49,111,119
172,233,115,83,63,57,111,124
191,220,123,85,63,58,121,141
177,208,110,87,57,56,123,139
171,207,121,87,64,57,122,128
160,181,127,86,61,55,115,119
153,207,121,76,59,49,114,110
129,227,117,78,57,46,102,93
144,241,138,76,61,49,87,75
150,265,134,74,65,55,97,99
164,270,136,73,66,56,98,112
164,277,139,68,56,53,99,118
170,258,162,62,58,53,100,121
161,234,142,55,53,50,95,118
162,204,144,61,56,50,83,100
164,212,144,66,57,50,82,94
158,222,137,64,63,54,89,97
152,226,107,63,62,53,91,102
151,233,116,67,62,55,99,103
161,254,120,60,50,47,97,109
151,252,115,54,50,48,102,115
157,239,116,52,42,42,96,117
169,254,172,62,47,47,94,122
181,269,170,61,47,47,90,125
176,249,165,61,46,47,89,122
179,237,164,60,44,46,89,116
180,242,179,60,49,53,92,114
169,225,124,53,44,49,94,100
184,222,147,66,56,56,93,90
172,243,144,65,57,58,98,85
181,242,147,65,58,58,107,78
171,242,126,69,67,66,100,85
181,244,143,77,76,72,98,95
148,258,128,81,73,72,98,98
153,259,126,87,74,73,100,106
134,262,130,90,77,76,83,115
130,249,143,96,71,66,87,104
147,276,143,88,63,60,88,101
181,249,135,82,58,54,92,122
200,230,137,76,58,51,90,121
200,216,134,75,52,44,93,115
223,250,131,63,53,47,100,119
224,262,136,67,49,44,102,122
203,261,139,61,51,49,91,100
191,261,138,59,48,45,89,97
191,267,133,64,52,47,87,95
165,231,122,68,47,42,75,87
151,249,114,76,64,55,85,80
148,254,106,74,63,52,84,83
139,258,118,76,67,59,101,100
163,264,117,71,69,64,103,109
180,292,130,81,70,66,105,116
160,277,113,77,58,59,95,109
164,282,115,79,58,59,106,112
156,303,104,79,53,55,89,98
136,326,125,87,51,50,91,91
113,325,114,75,51,49,90,86
138,303,128,69,53,50,87,96
138,301,134,82,52,52,80,95
157,296,164,89,60,55,91,106
146,268,152,87,58,55,87,105
154,254,155,88,60,61,87,108
153,240,165,90,58,59,91,100
156,246,165,74,56,56,93,94
155,225,133,71,52,51,93,88
160,252,128,68,52,54,91,89
166,224,131,71,49,48,97,95
151,273,132,70,51,46,109,104
154,261,127,79,54,48,103,106
134,263,131,76,60,53,93,94
160,225,133,81,62,51,93,89
145,238,125,80,66,56,85,81
147,189,96,83,65,56,64,77
136,201,109,79,64,58,68,84
159,202,105,75,55,51,62,85
127,204,104,72,51,50,66,88
142,208,119,72,49,48,72,94
140,244,147,71,51,52,81,103
160,252,138,76,54,50,83,100
141,240,135,78,55,50,88,110
143,248,132,73,53,47,91,114
145,280,141,68,53,48,87,111
159,256,113,63,56,50,89,108
146,262,113,57,51,49,84,105
152,264,136,58,55,51,90,100
152,263,143,62,63,59,94,102
182,220,123,73,65,55,98,108
179,254,127,74,59,48,100,107
179,233,138,71,59,47,107,120
175,275,137,67,56,47,101,119
176,270,134,66,51,43,103,109
138,271,140,60,44,43,103,96
131,236,151,66,54,51,91,90
118,236,155,64,54,52,85,74
136,187,138,65,52,50,90,73
132,192,133,64,50,46,74,73
139,222,141,61,57,53,70,75
154,247,128,53,56,50,97,74
159,242,119,64,60,55,95,78
140,252,121,78,66,59,91,82
148,286,127,82,68,61,101,93
141,275,114,84,64,55,98,99
122,300,130,84,62,58,88,97
121,318,147,85,56,54,93,92
126,323,154,81,54,52,92,88
119,298,155,76,55,53,84,81
110,289,150,73,53,53,90,76
111,235,144,71,54,49,85,70
111,227,118,76,60,52,75,71
117,268,114,68,56,51,89,82
113,281,125,71,58,56,95,89
109,281,126,72,65,61,97,88
104,279,115,78,62,62,93,90
129,302,141,85,71,69,105,97
116,251,141,86,76,72,103,90
131,244,139,86,80,72,106,76
138,240,138,84,75,67,101,79
147,285,156,82,75,65,98,79
129,256,139,59,69,66,90,70
143,269,137,60,65,62,85,83
128,272,124,63,62,57,83,91
125,286,140,73,65,59,84,93
113,233,129,73,66,60,87,96
107,261,153,77,59,49,80,94
87,241,154,72,58,50,82,85
111,221,158,68,52,49,79,78
125,212,159,73,48,47,82,87
124,217,159,68,45,45,83,92
125,186,133,68,47,49,91,97
127,186,127,71,48,51,86,94
110,240,122,72,57,58,86,94
98,259,112,55,55,58,86,99
111,277,103,58,53,57,81,94
115,272,110,56,54,54,82,101
120,287,119,62,57,56,83,101
113,262,117,63,53,49,80,104
111,229,108,64,53,48,88,102
111,250,117,68,62,56,91,105
108,273,129,73,60,51,105,117
107,289,129,75,59,50,103,115
124,276,128,72,58,52,113,114
130,308,144,78,85,74,116,115
127,270,135,76,81,73,119,112
141,294,127,70,82,74,109,94
147,271,121,64,80,72,108,93
142,276,134,63,83,76,102,104
143,260,123,58,60,58,98,98
138,267,122,56,64,56,91,94
128,228,117,53,65,58,84,91
117,226,123,51,65,58,86,99
108,234,115,51,59,52,86,93
98,238,122,52,60,54,88,92
97,291,161,56,64,56,93,101
102,295,167,70,66,56,98,108
108,294,166,73,68,58,103,118
118,294,161,74,71,59,96,121
134,275,155,71,71,57,82,113
139,224,122,65,66,53,82,109
124,196,116,63,61,52,83,108
123,198,122,66,58,51,84,94
111,195,127,69,52,48,87,81
93,235,132,68,50,49,86,80
99,252,130,70,49,49,93,87
107,258,131,59,46,47,94,92
105,254,119,54,50,45,86,87
108,231,113,48,51,43,85,85
109,198,105,48,51,42,98,92
103,163,108,41,46,39,91,83
98,194,125,39,45,41,81,68
107,207,124,36,46,45,77,66
117,217,129,38,48,46,83,82
123,212,130,38,43,43,73,87
121,218,123,69,45,42,79,82
128,230,102,72,55,44,85,84
126,263,132,75,52,42,91,89
116,261,129,77,55,46,91,85
107,261,133,80,58,46,99,73
118,254,137,56,58,50,125,96
117,208,129,53,49,46,127,98
111,147,111,52,50,47,122,96
111,160,121,57,48,45,119,88
117,215,113,64,47,46,116,95
102,222,115,69,47,41,100,85
91,233,123,71,49,42,96,82
100,242,123,71,53,45,97,88
96,252,122,85,52,46,96,91
91,219,119,80,50,46,95,90
91,212,109,77,50,49,76,86
86,236,112,77,50,47,86,96
74,242,113,79,49,43,85,88
108,221,103,59,46,38,88,88
103,220,105,64,49,40,86,85
112,234,117,73,51,43,89,86
126,250,137,72,55,48,86,82
131,236,128,69,51,47,82,82
120,236,125,71,55,52,81,78
125,221,125,69,55,50,80,77
120,203,118,59,54,49,78,73
117,164,105,76,57,58,73,76
116,194,134,84,82,77,86,88
109,206,158,82,82,75,93,91
123,212,157,82,88,82,101,101
130,221,157,84,87,81,104,99
136,205,146,79,82,72,99,95
135,172,121,72,59,52,104,95
135,195,119,79,67,61,100,96
117,197,129,82,60,53,89,84
106,178,129,83,64,55,83,78
102,187,125,84,69,65,92,76
109,239,142,84,71,66,80,68
114,215,121,76,60,55,80,70
122,210,115,67,55,53,79,71
128,217,112,69,56,56,85,72
121,205,114,61,50,44,77,77
120,215,106,62,54,49,74,71
114,212,110,61,54,50,72,78
144,224,132,68,57,49,76,86
142,220,134,64,50,43,66,87
143,270,136,60,54,48,70,83
144,228,134,55,49,42,72,83
149,243,147,55,51,44,66,76
115,249,134,54,56,50,69,71
126,256,138,55,60,54,76,80
135,248,137,64,58,53,72,77
134,246,143,66,54,50,73,76
122,237,150,66,56,51,74,72
125,224,141,72,53,46,70,66
113,224,139,77,52,40,93,96
117,188,148,70,51,38,112,108
111,181,143,67,53,42,116,112
113,189,122,68,50,40,120,120
107,203,146,57,47,40,129,128
115,205,147,52,53,49,111,109
119,194,139,50,50,46,102,96
117,218,142,53,56,49,96,92
120,239,138,66,61,59,95,83
122,224,112,65,61,59,117,103
114,221,116,63,61,60,122,112
100,232,117,69,67,64,115,113
116,214,102,75,59,58,116,113
120,169,109,66,55,49,131,123
125,163,123,70,59,49,107,109
127,159,108,73,54,41,105,94
125,173,110,66,48,33,107,92
123,250,137,60,58,44,107,90
125,292,144,61,56,40,91,82
133,305,145,68,52,42,87,74
132,317,147,70,54,43,86,71
136,302,163,71,57,47,85,81
133,266,146,69,52,44,85,89
135,224,134,65,51,46,78,85
123,223,131,56,54,49,91,79
119,222,145,47,48,48,89,87
115,225,126,49,44,47,88,94
110,213,124,55,44,44,87,97
99,252,150,57,52,46,88,95
94,241,150,55,49,42,80,104
94,241,157,58,55,47,84,111
98,252,160,56,55,44,84,97
102,245,167,52,59,48,81,87
100,228,149,47,55,46,78,87
101,224,149,44,53,48,73,84
105,230,145,38,51,46,62,72
104,221,143,41,55,48,64,74
112,261,135,36,54,48,71,81
112,239,145,43,60,52,75,83
115,245,140,58,70,54,72,85
115,240,125,71,69,53,71,96
105,254,121,76,72,55,65,99
92,219,115,76,68,51,61,95
94,221,97,74,66,51,57,92
105,227,113,67,59,48,59,82
100,237,117,58,60,50,63,61
104,214,121,54,54,47,65,55
106,242,132,62,56,51,69,56
107,242,131,61,52,50,77,68
103,254,123,59,52,52,90,79
109,269,127,54,50,52,96,85
104,286,137,49,50,54,104,96
96,247,127,41,46,52,103,96
98,248,135,40,45,49,98,90
89,228,121,37,42,44,85,80
83,191,124,40,44,46,80,79
104,183,120,39,48,47,82,72
114,207,129,39,47,45,108,86
111,223,131,40,49,46,107,89
109,241,133,43,48,48,106,93
111,251,140,41,43,44,114,100
92,236,129,45,40,44,108,101
93,223,123,56,46,46,85,94
94,204,112,56,42,44,81,89
100,182,111,54,45,45,86,89
97,157,85,54,46,43,70,74
96,154,93,53,47,39,66,64
85,138,86,40,43,35,60,54
75,145,78,42,49,39,65,57
65,171,90,43,49,42,59,49
79,169,97,49,52,45,73,69
78,169,91,50,51,45,99,97
82,186,111,50,50,48,100,101
90,173,110,51,43,44,102,101
99,163,104,52,42,43,106,104
89,167,101,48,37,38,102,96
104,174,97,49,35,36,80,80
105,195,83,48,34,35,79,79
100,199,84,46,34,33,77,76
106,194,88,49,32,29,73,73
110,194,79,46,37,38,77,78
114,202,87,53,43,41,76,81
119,191,108,58,49,44,73,83
126,233,122,57,53,46,76,97
119,242,123,57,54,48,75,101
122,245,131,62,52,42,77,104
123,263,133,62,58,50,88,109
131,271,127,60,55,49,89,105
128,242,120,63,53,49,90,93
132,275,125,63,61,54,93,91
137,301,125,59,60,54,88,89
135,278,136,55,55,48,81,70
130,279,137,57,56,47,91,83
141,306,146,56,55,48,95,93
143,262,141,58,48,39,91,98
132,232,154,61,47,39,97,95
120,226,142,58,46,35,98,95
118,245,145,59,48,40,91,90
107,237,148,59,50,41,92,83
97,242,148,59,51,49,103,84
106,246,134,55,52,50,100,88
108,267,147,57,58,65,100,95
101,240,133,52,54,61,108,95
114,225,123,64,59,66,104,92
116,256,138,63,57,62,99,91
110,259,141,63,61,65,108,109
117,267,129,63,57,58,108,108
121,264,134,60,55,59,98,106
111,249,149,47,50,52,95,105
117,225,146,51,67,69,93,109
118,220,142,53,69,69,93,112
105,204,144,51,68,67,91,108
102,184,144,53,69,66,97,110
106,204,123,52,69,68,101,117
103,221,122,46,57,57,99,111
109,220,131,48,51,53,87,85
126,207,130,52,50,51,92,87
127,225,124,50,52,55,86,84
124,213,124,51,52,54,80,78
124,195,109,48,54,56,77,73
131,221,113,50,56,59,77,82
127,241,111,48,63,65,71,84
138,232,108,49,62,62,76,96
143,239,111,48,63,63,81,98
140,229,111,56,62,60,82,104
132,202,121,63,63,63,93,99
136,201,115,64,57,56,100,109
155,222,130,71,63,60,95,102
152,209,124,77,61,59,94,100
153,217,136,73,56,54,93,92
151,217,110,65,54,54,89,91
157,211,121,64,54,55,85,78
134,197,116,58,52,55,87,80
133,202,121,57,54,55,84,79
139,203,107,54,56,53,83,84
149,224,110,55,54,50,82,93
128,210,101,56,51,45,103,96
139,222,101,82,49,44,103,95
144,223,98,91,49,48,109,98
135,220,96,92,51,51,111,102
133,202,90,89,48,53,113,99
133,210,102,88,49,57,95,105
136,207,139,70,60,63,99,115
125,201,136,59,59,59,101,116
127,191,137,58,57,58,114,120
123,189,140,57,58,52,123,134
126,221,189,65,62,54,129,132
108,197,158,58,50,41,128,125
104,199,160,62,49,43,122,124
111,214,173,70,61,57,107,118
124,214,177,74,66,61,91,97
124,174,117,67,64,59,84,97
116,173,120,69,64,60,80,108
124,220,153,60,63,316,93,109
123,214,146,49,54,484,91,103
106,207,147,46,54,496,87,96
122,219,143,49,58,512,81,87
151,228,147,46,59,519,86,82
146,201,119,47,61,423,67,80
151,195,111,48,63,215,73,81
148,208,124,50,60,184,79,89
138,187,126,51,53,135,79,89
110,188,122,52,55,103,69,74
111,177,121,54,58,76,81,78
95,205,128,57,58,55,82,85
92,192,112,58,58,55,88,88
93,202,108,53,59,53,94,88
120,216,116,55,60,50,103,100
128,217,120,55,64,50,101,114
137,190,129,53,59,47,108,122
138,196,131,53,59,54,113,123
141,219,143,55,63,57,105,127
126,203,135,59,59,55,102,123
140,197,134,64,52,52,100,107
137,204,120,64,52,50,98,99
139,223,115,68,50,42,83,89
128,188,106,66,45,37,84,78
126,212,107,61,49,41,86,99
107,217,101,52,50,42,89,109
113,222,119,51,49,43,81,110
112,208,119,46,48,42,87,120
116,207,119,54,52,47,97,126
113,209,138,61,51,47,105,112
117,244,172,69,51,50,101,103
113,240,157,72,53,53,103,105
123,239,160,73,51,52,111,115
138,255,165,68,49,53,104,116
142,237,157,72,50,55,104,123
136,224,119,66,51,54,112,136
143,247,124,65,52,55,114,134
140,245,123,71,59,58,106,125
138,233,112,77,56,56,112,132
149,280,122,80,62,58,116,140
167,264,133,87,62,58,108,130
186,249,138,93,68,63,104,127
204,300,136,89,65,65,96,122
194,308,156,103,66,64,85,112
184,284,145,104,59,62,71,90
173,281,135,106,62,63,68,90
156,281,143,124,61,58,87,99
154,319,159,127,73,64,99,109
181,371,151,110,74,67,102,112
188,384,166,103,76,68,98,113
182,404,169,96,71,63,98,106
181,403,158,77,64,62,96,125
167,326,145,71,50,52,88,119
149,279,161,76,52,52,90,115
145,270,148,81,47,46,89,117
148,240,145,83,49,47,90,130
147,289,168,76,52,64,88,112
139,302,164,75,55,69,95,120
132,303,139,74,51,66,106,122
158,344,164,91,63,74,109,132
176,355,174,110,72,80,132,144
174,366,185,113,72,70,129,142
177,418,216,115,76,75,139,158
230,552,239,146,105,99,142,182
219,639,268,160,112,102,173,235
258,648,274,160,114,104,187,253
279,634,253,166,117,105,194,270
310,614,231,166,115,101,207,269
310,561,224,179,99,96,239,267
358,486,185,159,107,112,223,242
359,548,233,196,112,126,202,218
364,578,245,193,113,127,193,201
366,562,240,192,110,125,167,184
338,542,253,163,112,121,133,180
292,490,243,171,95,99,160,170
303,431,215,134,88,83,166,183
177,418,216,115,76,75,139,158
230,552,239,146,105,99,142,182
219,639,268,160,112,102,173,235
327,396,213,137,82,87,172,180
312,452,239,141,101,97,197,224
317,401,210,136,94,90,186,211
339,390,222,125,94,93,191,220
300,382,209,98,90,87,184,203
285,383,212,99,92,81,196,219
287,329,197,107,85,79,196,187
279,323,200,116,89,83,200,197
262,458,203,120,84,81,188,175
262,437,188,123,85,85,196,176
234,437,172,112,90,89,185,152
276,508,181,107,88,81,159,152
324,513,185,98,89,80,159,167
328,395,159,94,89,79,146,178
350,493,182,96,91,76,151,191
356,484,193,102,85,70,148,201
316,411,171,109,78,72,157,209
282,422,159,113,70,67,155,198
305,429,158,114,76,71,160,198
274,329,133,116,82,80,150,187
260,319,120,107,87,85,149,176
268,325,126,94,92,88,153,158
264,302,136,84,97,91,148,149
209,358,146,84,99,96,140,128
200,405,142,84,93,88,142,130
187,394,143,91,89,86,142,130
192,388,136,88,83,82,128,127
178,398,142,93,79,81,116,121
230,385,137,90,89,93,115,138
237,330,156,84,84,94,109,129
236,327,147,111,86,93,111,139
211,337,159,121,88,90,112,135
213,364,161,125,89,88,126,133
182,329,156,126,73,68,140,124
200,330,135,134,82,72,153,136
215,370,184,109,77,74,157,129
261,386,179,105,83,86,168,141
273,349,168,113,89,92,160,140
274,346,185,114,95,98,136,124
266,374,186,106,100,101,117,115
253,413,172,117,110,105,106,110
210,393,181,110,103,97,94,111
226,426,181,96,105,100,103,133
208,442,165,112,100,92,121,144
205,441,173,120,90,84,125,144
241,402,141,115,89,81,138,173
251,403,137,116,87,80,134,168
231,398,148,115,77,68,132,155
235,379,150,113,81,70,135,157
229,342,152,106,99,91,137,175
197,367,177,112,96,89,138,151
183,345,177,113,99,94,135,142
161,308,177,131,107,102,130,143
153,295,180,118,103,101,115,133
174,369,175,119,85,82,114,106
178,312,169,111,81,82,98,105
209,334,173,113,78,79,136,117
214,376,171,92,65,66,152,141
209,406,196,99,70,70,150,139
226,358,207,109,73,68,153,135
220,378,199,104,71,66,160,146
206,380,205,103,74,68,135,142
233,397,213,101,74,70,130,115
245,377,186,109,72,65,146,123
211,382,195,101,70,67,143,132
235,365,193,103,74,67,151,138
259,388,184,108,75,72,155,136
244,345,179,120,82,76,148,134
257,374,195,114,83,80,147,142
256,364,169,108,85,82,156,141
258,370,177,111,82,80,142,120
221,354,172,105,82,79,141,123
211,361,157,89,75,74,141,139
183,352,166,97,75,73,131,124
184,364,169,96,70,68,136,120
163,359,165,94,70,71,145,125
162,338,165,92,67,71,158,142
160,321,173,109,68,70,160,132
182,292,152,97,63,65,155,141
196,278,146,106,68,73,142,147
180,288,171,105,65,69,127,137
179,286,165,106,60,64,122,123
187,330,166,90,60,63,117,120
180,331,168,92,59,62,127,123
183,337,182,84,49,50,123,119
185,336,161,84,56,59,127,124
190,333,157,95,60,59,109,113
212,320,166,102,58,57,111,116
214,307,155,110,60,66,101,100
216,304,148,110,60,70,132,120
233,305,134,113,65,75,132,132
254,314,135,98,62,74,126,144
235,318,111,97,65,79,122,147
227,372,124,101,67,78,152,167
212,354,113,98,72,77,134,159
197,371,118,94,63,66,137,160
175,462,151,97,70,75,156,159
168,432,150,95,73,75,159,162
170,384,141,70,73,75,129,137
168,396,178,77,78,78,135,139
183,371,181,90,79,78,144,144
177,235,153,98,78,69,136,136
203,267,161,101,81,70,142,135
213,280,184,101,79,67,141,142
212,252,159,104,74,63,202,195
214,247,160,98,76,64,196,187
220,249,165,101,82,74,196,199
197,283,171,107,73,68,198,199
177,280,159,109,75,69,214,207
173,312,140,105,75,69,145,152
150,340,169,102,78,76,149,157
174,373,190,96,69,68,144,141
177,335,183,91,76,69,147,137
184,337,176,90,72,65,132,126
193,349,196,95,73,66,155,146
220,321,167,97,67,59,155,138
202,303,141,90,70,61,162,147
197,291,144,83,68,62,177,144
275,345,157,89,76,68,196,164
279,322,152,80,77,66,179,150
269,334,149,78,77,66,178,150
284,334,169,80,79,69,177,147
285,329,168,75,72,66,146,146
214,280,155,70,68,68,126,148
216,271,138,72,59,66,129,175
244,252,143,71,57,63,124,179
223,285,150,66,66,74,119,174
244,358,165,80,74,80,124,174
255,378,174,97,87,89,113,148
250,413,186,101,88,89,124,118
208,455,194,109,91,92,124,104
212,423,173,111,81,79,118,107
201,401,183,110,91,85,120,112
179,393,176,104,80,76,143,127
167,362,164,96,83,78,127,113
193,329,164,96,83,77,125,114
191,328,174,99,83,77,130,122
169,296,149,111,66,62,141,134
195,287,147,106,61,59,136,131
206,269,151,105,61,53,141,133
193,237,146,103,56,51,160,136
180,251,137,101,60,54,157,128
202,269,137,84,66,60,155,130
170,257,134,78,63,53,150,123
174,294,148,82,61,57,168,140
180,295,154,84,63,59,157,153
186,284,146,85,60,58,163,164
178,259,139,82,65,60,151,156
217,296,172,83,69,66,182,178
208,260,157,85,68,65,167,177
196,284,146,87,78,81,165,172
193,275,143,85,75,78,157,159
184,289,161,88,71,77,167,176
166,255,125,90,79,76,147,173
175,257,124,93,87,83,148,172
182,244,122,81,76,67,148,172
183,242,141,85,84,74,157,178
187,222,147,88,80,71,171,169
166,205,141,84,74,70,146,149
160,191,143,75,61,62,147,140
170,206,152,83,64,64,147,136
188,256,149,80,59,57,143,134
192,315,161,78,73,69,126,128
207,328,177,82,68,72,128,137
223,353,178,80,70,72,138,151
211,340,188,80,73,74,166,160
212,304,183,82,70,74,176,169
206,249,149,81,58,67,164,168
202,243,132,76,64,68,173,172
204,238,147,94,65,67,163,176
197,245,122,95,61,64,132,170
192,323,129,92,67,71,114,163
197,309,146,100,73,72,120,152
208,317,157,101,73,68,119,140
198,308,143,87,71,67,117,121
208,308,156,79,71,67,114,107
196,277,151,78,68,64,154,114
216,286,142,67,63,62,158,115
185,262,130,72,64,60,154,112
182,278,138,71,69,62,155,112
209,295,132,73,70,63,159,126
217,253,134,80,65,57,128,108
190,276,136,83,63,59,124,109
204,288,136,76,56,56,125,118
199,275,133,76,54,57,121,128
174,249,148,82,59,57,129,120
184,254,166,84,67,65,124,121
196,236,172,93,76,68,117,118
182,233,176,102,80,71,115,115
175,235,172,103,74,68,114,93
191,239,159,107,73,66,107,104
180,236,132,101,70,59,101,107
174,243,127,89,66,61,108,108
193,259,135,90,69,61,123,118
192,243,135,85,78,68,132,125
165,246,125,81,75,66,133,113
189,241,133,82,77,70,137,112
184,249,118,81,77,65,149,116
184,246,114,80,75,65,143,105
200,263,116,92,71,62,140,103
220,278,131,95,80,69,172,130
191,270,123,95,76,64,182,137
188,239,128,98,75,62,167,137
205,227,128,96,73,63,156,135
210,248,141,92,70,61,151,131
192,247,140,88,61,57,109,104
194,273,139,85,67,63,88,91
212,276,136,86,68,64,88,91
187,284,126,82,70,66,110,120
169,255,106,79,72,71,118,135
167,241,103,88,73,71,116,137
177,247,116,96,74,71,121,150
160,265,118,97,78,73,128,152
172,281,126,94,73,68,115,141
177,298,128,98,73,64,122,144
183,314,126,87,76,70,140,149
178,295,116,79,72,66,170,159
172,306,121,76,64,62,176,161
165,285,133,84,68,65,173,150
170,259,137,78,68,62,178,154
155,227,129,79,58,52,176,163
199,235,125,79,58,59,172,180
203,211,118,87,65,69,171,180
198,206,105,77,60,65,178,186
213,218,112,86,71,73,170,186
219,258,158,88,78,76,158,173
181,262,172,89,83,76,140,144
190,265,180,79,81,69,143,148
187,304,179,88,84,73,143,151
194,316,180,86,82,74,138,139
186,294,150,94,77,71,141,139
182,302,142,90,70,71,126,132
217,309,131,88,67,67,122,140
218,269,123,84,67,65,112,131
198,273,134,78,64,64,117,139
203,267,144,72,74,75,118,156
200,244,139,86,76,69,117,155
158,214,135,88,83,75,115,149
164,216,138,97,90,81,125,155
183,257,118,104,94,85,123,138
216,248,106,104,94,85,125,123
216,277,104,93,92,86,125,119
216,291,107,94,86,80,118,101
210,305,113,87,85,84,126,89
189,246,116,83,81,78,210,176
159,259,111,74,71,70,227,187
161,265,127,82,75,79,241,189
154,258,133,86,78,84,249,199
151,275,135,87,72,77,241,199
163,316,155,91,67,73,166,132
149,320,165,95,73,75,154,123
159,296,150,102,71,63,153,150
156,308,152,101,70,58,148,142
202,285,155,102,67,59,178,156
182,265,131,92,66,60,198,165
186,260,148,94,63,60,199,166
244,310,179,93,63,57,188,148
275,323,177,86,62,58,214,178
272,346,169,86,72,62,200,181
274,330,177,87,73,61,183,170
283,339,158,85,73,58,163,162
250,310,123,65,73,62,173,156
217,306,119,73,77,70,147,124
208,282,141,62,75,73,132,105
220,330,132,76,88,81,150,115
208,315,126,72,84,80,167,129
187,293,129,83,87,79,159,136
186,277,135,78,89,77,146,129
181,320,122,80,83,68,146,134
167,294,151,72,67,58,133,129
184,302,147,79,69,61,120,119
177,312,147,79,59,60,112,118
181,327,149,88,55,54,110,116
165,282,171,89,55,51,111,116
165,260,145,93,55,55,112,121
163,249,143,93,59,54,130,159
179,239,159,86,70,64,133,173
177,192,149,78,65,63,147,173
172,190,117,79,67,65,146,171
185,202,121,72,69,66,167,176
161,208,143,71,69,69,153,143
161,215,132,73,60,61,155,130
159,249,140,67,60,67,144,139
169,248,132,74,78,87,154,144
153,233,130,70,75,84,121,130
156,242,111,70,82,90,137,159
154,245,99,69,88,97,134,156
155,239,113,67,88,92,143,164
142,231,115,59,69,70,135,159
173,279,113,68,81,78,143,179
170,266,115,82,77,76,141,159
152,275,135,83,73,70,153,161
179,278,131,86,74,74,149,152
188,301,133,86,76,76,155,163
157,266,136,84,67,69,167,144
167,270,142,71,64,63,159,138
182,247,124,80,62,60,161,166
158,237,123,84,64,57,158,170
142,232,123,89,74,62,160,165
141,218,129,85,79,70,151,167
187,224,126,88,74,65,157,168
179,234,135,78,72,66,153,141
177,312,135,76,76,73,159,135
193,330,146,70,80,76,176,162
196,336,144,70,74,67,183,161
151,333,144,64,76,72,174,159
174,335,141,63,76,68,163,158
165,253,137,71,75,64,155,156
142,230,125,73,63,58,120,118
194,225,116,73,68,65,91,133
189,223,114,73,67,61,109,131
165,218,104,83,69,64,108,124
181,242,109,102,66,66,115,134
189,230,113,101,63,62,121,140
157,241,111,102,59,59,130,122
159,322,129,110,73,67,112,116
182,313,138,112,82,72,127,135
173,312,134,92,84,68,129,122
173,320,151,94,83,73,128,113
164,328,156,93,85,74,123,109
163,253,143,99,75,70,125,117
164,277,154,102,67,69,110,98
163,262,152,107,64,68,117,102
165,235,132,112,69,66,125,124
176,243,137,118,68,68,127,131
221,296,146,112,80,83,131,136
217,278,133,101,81,80,141,152
224,274,132,93,86,83,131,148
236,288,137,104,98,100,119,136
224,272,133,116,109,104,162,164
194,261,128,116,100,92,189,178
200,276,128,117,107,95,182,157
193,275,126,118,110,103,185,153
179,272,136,102,101,93,185,150
180,281,152,93,93,89,164,131
173,241,157,90,91,87,131,114
169,262,154,89,87,89,134,123
174,317,163,104,80,79,150,168
197,320,172,108,83,79,163,185
198,322,156,107,91,90,146,175
204,318,146,110,97,94,143,164
208,305,186,109,100,100,159,201
210,261,197,116,98,101,135,170
190,256,183,123,99,101,127,156
244,262,199,119,101,96,130,156
232,276,206,114,97,96,141,164
229,262,191,124,101,92,128,115
243,316,182,115,101,93,147,135
238,311,187,106,94,88,148,146
200,332,186,118,95,92,151,149
216,340,189,119,96,90,148,146
222,407,182,111,90,84,157,157
207,381,180,111,105,88,154,154
209,408,170,127,112,91,151,142
188,387,168,140,102,85,146,141
180,373,153,200,116,85,166,163
177,323,133,256,131,88,177,189
162,311,169,266,132,95,177,175
169,281,174,269,133,87,177,177
175,278,164,263,131,83,214,191
205,299,168,225,120,91,215,190
185,339,181,159,101,88,200,152
203,323,133,140,85,68,190,158
210,319,124,138,72,72,188,154
214,315,146,128,81,91,188,176
188,330,138,134,84,91,174,170
186,274,123,132,83,94,164,171
167,296,141,136,85,99,163,166
152,289,142,136,90,99,169,167
148,295,116,140,84,82,120,124
135,289,146,137,80,75,128,120
170,280,146,136,74,65,141,136
196,280,158,121,73,65,149,146
207,318,178,108,68,64,152,149
197,337,182,104,67,63,151,148
196,299,156,94,62,59,128,131
185,322,155,92,61,59,112,115
199,328,125,98,70,60,101,110
194,303,106,90,77,59,85,104
218,306,119,87,73,56,108,113
229,317,131,91,73,54,118,117
229,284,142,100,73,52,149,128
204,261,150,101,69,52,155,129
205,348,166,108,72,65,161,141
184,315,162,109,77,71,147,127
214,305,162,109,88,92,150,140
205,319,156,98,89,96,124,125
213,364,152,95,83,96,135,123
203,280,131,107,78,88,121,104
214,293,157,102,77,88,133,105
172,318,161,99,65,67,130,88
168,311,164,116,64,65,135,101
167,253,161,119,68,63,120,101
161,281,165,100,64,59,141,106
177,284,125,112,58,47,139,125
191,257,123,120,59,50,137,148
206,246,116,105,60,45,142,141
196,302,127,99,60,51,144,144
216,264,114,106,59,58,133,142
203,241,121,92,64,66,151,135
194,234,124,71,67,68,165,110
177,260,133,89,72,69,154,102
204,248,133,98,70,66,151,95
192,258,141,95,76,66,143,98
182,262,139,94,70,59,106,87
176,282,127,105,72,59,92,99
182,261,115,98,79,73,100,107
151,227,109,106,83,75,104,111
145,223,102,109,79,72,119,119
155,261,125,119,84,77,137,130
186,240,139,125,84,77,143,129
185,323,149,122,75,70,144,130
175,318,146,122,79,72,137,128
214,438,165,121,82,75,145,130
203,434,147,114,83,77,137,124
185,446,140,100,78,77,131,120
231,492,143,99,82,79,143,130
243,486,159,80,73,73,145,129
210,411,154,77,67,69,126,119
222,407,168,75,62,62,121,116
239,429,185,76,64,60,133,143
206,357,178,80,62,55,112,132
216,415,196,83,67,59,118,133
215,389,188,76,75,67,132,135
204,371,179,83,73,66,139,128
173,339,161,82,75,70,128,106
158,319,167,81,72,68,149,117
177,263,145,84,72,67,167,126
177,283,141,86,66,60,167,131
185,310,142,87,69,62,159,135
191,362,152,95,79,69,164,142
240,355,153,92,87,76,180,161
211,378,131,109,98,83,188,159
220,378,140,130,103,89,184,167
247,381,141,132,106,91,187,173
255,350,139,127,97,81,188,166
215,349,128,128,91,71,157,140
229,307,138,109,76,59,123,129
250,313,137,95,77,55,149,139
224,336,132,98,78,51,155,138
214,340,117,98,76,55,146,142
227,338,121,105,73,57,152,148
216,340,113,111,74,61,159,152
184,335,120,111,72,69,131,129
183,295,124,104,73,69,120,118
182,273,129,114,71,66,116,104
157,308,138,115,79,70,105,96
156,357,147,108,80,72,111,101
180,348,129,99,78,62,115,107
177,344,122,109,84,66,113,121
181,353,124,98,85,67,130,125
217,326,123,84,81,67,136,135
210,274,131,88,88,66,140,148
187,266,151,90,96,73,149,147
213,261,148,74,84,65,172,159
220,242,145,86,88,67,184,187
179,249,160,103,97,69,187,184
186,255,167,100,88,68,186,168
185,255,153,99,79,63,174,162
152,264,168,111,80,64,153,143
161,263,169,108,79,64,124,100
189,259,165,97,79,66,117,93
191,246,166,100,83,66,113,92
192,238,174,110,82,65,131,103
186,236,160,98,81,66,134,110
171,222,154,89,79,65,141,111
142,204,146,82,69,66,150,106
149,220,124,99,64,73,147,119
160,231,115,86,59,70,142,118
163,231,129,90,63,69,148,123
180,268,133,94,63,70,139,129
182,280,128,96,60,68,141,156
167,269,130,78,60,62,135,151
157,266,122,82,75,75,135,150
154,288,137,77,85,88,128,151
119,266,140,77,84,85,135,144
108,241,135,76,83,80,137,123
121,240,132,73,91,89,142,123
143,245,138,67,81,83,135,123
145,211,112,64,70,72,139,107
164,203,141,66,69,72,136,109
166,222,151,70,70,74,114,97
184,295,170,78,74,69,112,95
175,290,193,76,79,75,142,110
206,284,192,90,80,72,139,121
195,279,167,86,82,74,150,128
201,276,166,95,92,86,153,132
186,223,142,90,80,78,161,140
216,235,120,90,78,71,133,131
189,276,142,80,78,77,126,128
186,279,143,80,76,76,123,122
194,281,133,64,59,60,131,116
189,284,162,74,59,59,116,101
146,288,158,87,59,57,111,92
173,275,165,91,58,53,118,87
171,301,174,102,76,62,110,81
186,288,173,101,81,64,114,114
203,281,150,106,84,68,136,129
203,261,147,107,79,64,142,134
192,285,122,107,84,69,152,137
207,297,126,94,66,60,160,148
204,298,125,111,68,60,147,125
184,282,123,103,65,55,154,124
201,292,120,92,75,67,169,140
186,243,140,94,76,66,172,141
170,197,133,98,82,71,164,132
145,217,136,85,80,72,167,138
172,266,142,84,76,71,152,143
151,313,158,81,67,64,137,120
161,334,136,70,57,56,119,112
162,344,133,73,49,51,132,121
160,330,131,64,43,48,147,123
137,292,137,59,47,49,154,116
155,251,106,61,53,49,159,121
160,259,113,69,70,64,164,126
225,251,130,63,74,70,146,117
230,282,136,66,76,69,125,106
229,282,124,71,83,77,107,93
220,283,146,86,81,78,92,89
217,252,166,77,73,73,87,94
144,261,182,79,81,80,100,92
195,247,188,82,87,83,106,107
189,259,219,83,80,77,109,104
205,250,221,85,87,80,113,118
211,259,223,83,86,76,111,113
215,249,199,80,80,66,118,125
170,235,191,84,72,61,126,116
179,258,174,89,77,66,146,130
166,261,160,78,69,59,146,125
156,249,138,84,68,60,149,125
156,246,164,90,69,62,139,110
149,253,171,85,67,60,139,113
155,217,151,78,62,55,114,98
173,220,168,73,61,58,134,131
177,227,170,77,59,55,134,130
171,227,148,74,52,53,134,133
172,255,166,71,53,56,136,147
189,291,177,69,52,53,150,169
161,277,163,73,48,49,134,145
183,281,163,71,63,62,131,144
202,298,172,69,65,60,164,161
211,281,154,75,67,61,154,147
186,270,145,81,70,65,147,133
196,281,140,77,71,64,149,130
183,274,145,72,60,54,167,155
164,263,139,90,61,55,142,143
185,261,136,88,66,60,176,177
181,228,148,91,67,60,175,170
196,236,160,92,69,68,167,167
185,235,146,93,70,69,182,169
199,233,137,77,71,70,190,171
167,226,130,75,66,64,160,129
175,219,115,65,69,66,153,127
144,194,110,66,68,58,157,131
130,188,125,59,80,66,117,96
179,174,129,59,84,71,105,101
182,156,125,62,90,77,129,113
197,183,137,62,92,81,140,127
198,212,136,65,95,84,133,132
204,211,128,68,84,76,131,135
162,224,136,75,81,72,126,125
164,226,150,103,76,68,109,126
147,222,140,103,66,56,105,115
232,185,127,102,61,52,116,111
264,215,132,101,59,52,129,120
267,230,142,101,63,58,125,124
277,224,149,74,62,57,124,111
277,229,162,77,63,60,127,114
219,251,171,78,66,61,118,108
184,260,164,80,67,62,111,92
175,236,147,77,62,56,113,85
153,244,141,80,62,54,107,90
190,297,131,94,69,58,127,115
201,286,132,107,76,63,137,117
192,264,149,109,75,68,142,118
189,262,153,109,84,74,143,122
193,295,144,104,84,77,141,121
171,245,137,90,79,76,124,99
194,255,152,100,85,80,129,107
205,247,136,100,85,75,116,105
210,281,131,96,74,68,128,113
213,271,126,98,76,67,128,116
201,258,122,98,76,68,145,113
161,236,89,67,60,56,134,106
159,253,96,68,71,70,138,116
153,253,116,63,69,70,135,104
146,258,124,64,69,70,146,101
143,247,126,70,69,68,126,94
143,265,130,72,70,71,122,90
152,265,128,64,56,54,132,80
146,245,114,70,57,56,128,97
146,261,117,70,62,61,129,133
144,267,129,65,60,63,126,137
137,267,125,62,58,58,131,140
113,255,118,75,65,63,119,140
130,243,112,72,63,61,121,138
130,215,109,69,56,54,114,113
139,221,102,69,58,50,113,110
153,217,115,72,66,61,120,108
149,229,132,63,64,60,126,108
141,232,136,66,68,62,126,105
142,211,135,89,70,62,118,106
140,201,153,101,75,67,120,114
119,220,146,103,80,69,117,110
134,214,136,104,79,67,108,104
124,210,133,101,80,67,116,108
120,219,133,87,78,68,123,104
107,242,126,68,74,63,134,99
118,212,123,68,66,57,131,103
112,225,138,67,72,62,137,125
109,232,164,70,71,66,148,144
107,225,163,60,70,63,143,144
120,195,151,64,72,65,134,140
160,201,153,58,69,64,141,146
184,203,145,91,72,64,200,215
194,207,108,98,76,66,185,208
205,202,101,100,74,65,189,209
210,209,118,103,75,69,191,212
176,202,114,104,72,64,204,214
161,234,112,89,90,90,150,150
165,236,123,82,87,88,152,136
170,238,128,86,95,91,161,134
155,261,126,88,101,96,159,131
152,296,131,89,102,97,159,148
145,274,134,78,85,73,153,129
134,269,132,76,79,66,145,123
130,285,132,78,74,63,155,149
141,290,119,77,67,56,154,158
147,259,116,87,69,56,127,133
155,256,134,88,63,53,129,133
151,256,130,102,69,61,134,132
138,229,127,103,71,66,122,106
140,194,123,96,65,61,128,99
166,219,123,85,69,68,137,103
154,203,91,87,65,65,151,121
159,192,91,77,68,64,175,128
168,214,100,76,73,69,179,129
171,224,114,76,76,70,183,132
153,208,117,78,72,64,187,138
156,221,118,72,74,69,174,120
167,247,128,64,71,66,150,114
169,267,143,59,58,53,138,115
159,259,138,64,58,58,128,104
160,266,136,67,67,67,131,103
154,275,142,68,67,64,150,127
144,248,141,65,69,64,162,138
138,203,115,61,68,64,163,138
130,207,123,62,69,61,166,144
132,198,125,58,61,53,179,155
142,214,120,75,72,62,166,158
147,213,125,77,75,64,154,151
132,245,124,80,75,65,152,145
140,252,114,78,76,69,153,152
132,295,141,87,83,73,125,137
119,265,136,75,73,66,151,110
118,289,127,74,70,68,151,114
120,280,126,77,69,67,146,113
140,277,127,77,62,62,142,105
134,230,114,70,60,59,142,99
152,274,125,76,70,67,110,115
146,276,122,77,66,62,108,108
165,268,128,72,67,63,119,119
154,259,124,72,73,68,116,110
164,281,107,71,67,64,109,115
162,273,124,61,58,57,113,102
162,252,125,65,60,58,109,102
154,258,134,66,60,59,104,94
148,273,135,66,54,56,109,100
138,267,156,66,54,56,114,98
121,237,136,65,58,57,107,109
119,236,137,69,56,56,111,117
115,240,130,69,61,55,110,116
113,238,136,68,67,61,114,118
111,214,108,65,65,59,123,117
119,208,112,67,62,58,121,103
137,215,127,55,59,54,129,99
131,198,129,60,52,53,136,101
136,189,131,64,50,49,142,97
139,198,133,67,48,46,133,95
145,220,125,79,54,46,150,113
124,227,118,87,59,51,143,113
125,222,106,85,62,50,132,110
115,234,93,81,60,47,123,106
121,224,97,81,65,49,122,107
110,227,104,69,61,49,122,101
111,217,95,62,61,48,122,107
109,230,99,60,59,49,120,112
124,235,113,61,60,51,131,125
129,243,114,78,59,57,136,141
126,220,113,89,62,57,131,141
131,224,112,87,62,58,156,138
138,219,114,100,63,60,161,142
127,195,109,106,71,64,146,134
135,189,98,93,68,59,142,120
160,197,119,84,67,60,158,115
164,204,121,91,71,61,130,117
160,215,119,82,79,65,133,105
169,215,117,73,77,68,162,123
169,280,166,76,86,77,168,126
169,274,153,78,86,80,143,126
163,278,152,87,87,81,145,119
163,258,164,85,78,76,139,117
150,267,161,91,76,69,116,93
130,210,123,92,69,59,110,82
95,228,130,96,68,55,113,89
109,221,136,85,63,52,126,106
112,248,134,81,66,57,131,112
146,265,147,80,68,60,127,131
153,269,156,75,70,64,126,135
153,249,155,70,68,63,127,130
166,267,163,74,80,73,118,119
162,286,170,84,78,70,114,114
132,267,170,79,74,67,118,93
124,268,169,80,70,61,125,83
128,298,164,86,76,66,132,79
110,304,161,102,67,54,154,82
108,272,145,98,67,52,167,93
119,318,160,105,65,51,163,94
139,322,167,105,66,55,158,98
143,300,170,114,62,54,149,97
139,318,177,102,67,61,156,123
144,359,206,103,71,72,141,117
205,385,200,104,84,82,143,135
212,403,218,107,98,94,157,162
211,417,220,87,97,90,179,171
230,393,207,89,95,93,147,153
233,388,184,90,101,93,178,176
181,375,189,87,91,86,178,164
180,366,159,86,75,72,162,141
192,399,154,90,77,74,150,132
168,403,155,78,69,64,183,142
161,381,148,72,58,57,171,120
173,390,133,80,71,64,165,114
166,376,127,86,77,65,172,116
163,383,129,97,86,76,164,115
162,382,124,107,88,78,123,111
159,393,122,136,97,80,97,96
157,349,128,135,97,84,108,104
148,423,140,133,98,85,126,112
135,399,135,140,90,77,140,124
131,403,151,149,105,90,147,122
135,394,151,137,103,87,143,125
112,394,138,139,97,83,146,125
123,318,142,138,93,81,128,115
120,309,147,122,96,83,128,124
132,306,134,102,76,66,123,121
154,303,144,98,68,62,134,122
153,290,143,96,65,53,140,126
144,307,114,90,62,50,145,134
166,335,108,95,58,44,159,146
163,392,139,92,63,51,164,146
146,399,131,82,65,55,160,151
156,400,132,72,66,63,158,151
172,421,156,100,84,68,191,186
154,398,161,103,91,79,177,164
150,384,135,107,94,78,190,169
148,404,173,105,93,78,197,171
138,401,175,120,92,76,193,170
111,360,155,100,78,73,160,119
131,371,156,109,72,62,156,138
180,311,157,119,66,59,141,133
189,286,117,131,69,58,142,132
209,310,119,132,69,57,143,126
212,326,135,133,77,62,146,126
201,283,131,121,76,64,163,113
179,305,142,115,92,85,166,135
190,283,139,117,90,82,156,123
204,267,133,116,91,84,156,134
211,262,130,118,91,85,185,152
205,272,133,117,92,87,170,157
225,336,119,112,85,78,165,140
215,360,130,93,81,78,169,143
189,373,144,75,79,76,188,154
183,366,135,71,70,73,153,139
198,373,131,74,63,65,144,121
163,301,146,73,53,51,144,126
173,280,147,80,61,57,158,139
170,244,132,90,64,56,143,125
164,227,135,102,66,53,141,128
148,197,129,111,68,53,137,126
160,214,118,118,73,58,147,125
162,222,97,120,71,56,154,127
166,231,102,112,68,57,150,126
195,233,114,111,69,59,150,118
201,235,113,103,67,60,156,117
185,216,104,100,63,58,193,130
169,201,117,90,67,64,181,125
172,193,133,87,71,67,177,115
140,188,120,83,67,67,183,121
153,217,123,102,68,71,186,127
166,226,124,102,67,69,180,123
171,245,126,102,64,65,173,115
194,241,109,112,63,66,169,120
217,260,107,110,63,65,165,127
213,231,103,87,65,60,158,133
204,224,107,89,66,60,114,125
205,223,96,89,63,58,109,137
177,270,114,79,57,49,126,135
149,287,116,75,56,50,133,128
133,291,124,99,59,410,139,122
127,316,134,112,54,556,136,112
115,322,143,114,51,570,137,112
132,307,125,114,53,581,122,125
147,274,124,117,53,588,109,117
148,300,138,123,54,429,119,124
162,258,133,109,58,208,129,123
158,226,126,111,56,168,129,109
143,186,124,118,61,124,127,87
124,191,126,118,62,88,124,88
130,161,110,95,57,66,107,70
124,214,119,85,54,59,88,68
118,230,116,84,56,57,134,108
107,245,130,78,58,59,134,111
132,277,132,75,58,55,142,126
122,288,135,84,63,55,140,130
120,249,123,93,66,60,155,162
135,287,128,96,69,65,139,169
138,283,124,107,69,66,138,170
119,244,117,106,71,68,135,161
135,240,120,97,69,65,141,172
132,321,148,93,72,68,134,168
128,317,148,88,68,63,114,140
128,327,141,73,66,62,112,135
129,336,147,78,62,59,107,137
129,342,137,86,59,57,102,120
144,302,104,93,56,52,90,94
144,253,106,98,57,55,111,105
149,239,109,97,59,51,118,113
155,280,120,100,65,53,142,113
153,280,126,94,69,56,157,125
145,255,126,89,68,57,151,113
146,276,130,86,66,54,146,100
170,311,129,87,64,58,156,106
164,281,121,84,61,59,141,102
158,257,111,85,54,57,126,84
158,281,111,95,52,55,135,89
168,284,98,105,57,55,135,93
140,238,101,106,51,48,135,101
141,258,91,101,52,49,129,97
141,345,128,101,62,55,135,99
134,319,129,86,60,54,143,109
119,310,134,75,62,56,136,107
127,317,145,84,64,56,122,89
129,301,162,87,66,60,133,95
120,212,145,93,60,54,133,103
113,212,147,94,61,52,119,95
112,211,150,92,63,52,119,98
110,228,155,78,64,56,121,100
119,226,138,82,64,53,130,109
164,221,146,77,61,54,136,108
183,217,165,78,61,57,139,106
189,211,164,72,57,55,146,105
188,199,152,76,60,60,145,110
186,201,161,79,59,58,137,105
160,197,150,75,67,63,121,97
146,213,132,76,71,64,123,101
138,212,122,78,75,69,135,126
140,201,116,82,68,62,143,129
131,194,129,77,68,68,140,131
126,204,126,82,65,64,153,142
128,196,126,87,66,64,153,152
144,211,138,88,67,59,130,133
151,222,148,88,78,65,127,130
152,228,122,81,80,65,118,128
143,243,119,82,79,65,114,124
171,275,120,88,76,68,122,110
176,277,109,92,73,67,146,109
163,285,100,87,64,64,141,104
173,283,111,88,57,58,157,114
180,273,119,103,62,59,161,124
162,269,126,93,63,56,156,130
146,270,142,89,68,63,137,143
152,274,137,86,64,61,171,153
144,258,135,89,69,65,179,144
147,246,143,71,64,63,173,127
133,224,129,69,62,62,172,128
136,239,111,70,52,53,172,109
138,227,136,81,67,63,146,107
144,245,131,88,63,58,133,119
142,264,119,90,68,63,156,138
142,265,138,100,85,70,159,132
131,250,148,108,91,74,218,149
136,242,127,103,82,65,211,141
143,234,127,111,87,70,213,137
144,213,146,112,82,70,196,121
157,198,131,118,68,61,195,121
156,213,138,113,65,62,134,100
151,222,155,111,64,64,150,100
129,211,154,96,64,62,162,100
115,201,134,93,72,64,168,107
120,218,135,91,68,64,173,113
127,195,139,95,68,63,166,118
147,181,119,93,70,60,161,120
168,211,136,91,66,61,141,117
178,223,153,92,60,53,129,118
160,203,149,82,60,55,114,116
153,202,132,81,65,54,126,126
139,279,152,89,65,56,128,125
149,262,145,99,68,58,127,131
163,256,124,95,65,58,143,128
164,266,131,88,65,60,140,121
166,287,133,78,60,60,129,108
157,216,118,78,61,59,117,103
161,220,117,84,62,58,118,106
140,237,118,88,65,58,95,98
137,236,119,87,65,58,103,101
135,202,113,88,60,53,108,94
135,201,103,82,59,53,112,94
109,209,94,76,55,49,115,82
107,221,129,71,57,53,144,95
103,213,119,71,58,49,149,102
124,219,131,83,57,49,146,111
135,280,130,85,60,55,151,120
132,274,140,74,57,54,144,116
132,253,117,72,62,59,119,124
146,258,130,94,69,66,109,125
143,274,135,85,69,65,113,123
147,226,132,82,68,60,100,114
140,216,122,82,77,65,104,120
153,231,138,83,79,68,104,115
141,224,134,65,75,63,118,119
135,225,130,63,80,68,110,114
119,223,146,66,81,72,117,115
142,235,165,64,73,66,117,116
129,232,144,64,63,54,112,101
129,236,140,53,60,52,92,84
123,211,133,51,54,48,88,89
123,188,124,43,50,40,78,95
149,199,92,45,51,39,122,115
146,215,95,43,52,46,132,124
164,214,102,57,53,49,138,141
179,241,105,65,59,58,154,146
184,258,103,66,66,63,156,143
140,245,117,72,66,64,128,120
160,216,131,74,69,64,136,113
149,222,127,74,77,71,131,88
134,237,141,80,78,67,117,83
154,222,148,88,71,65,123,89
187,211,139,98,74,68,117,93
180,251,152,99,68,66,102,91
183,259,159,99,58,56,130,96
176,229,141,94,49,51,152,85
155,247,129,91,54,50,151,86
126,260,141,87,53,49,158,92
121,255,117,91,54,46,154,93
123,287,130,95,69,53,137,100
125,283,129,90,71,56,123,107
123,268,146,91,71,57,126,105
117,315,152,84,71,59,128,98
116,294,157,77,76,63,138,98
109,262,136,71,60,56,138,103
112,264,136,78,62,58,134,101
127,274,112,83,72,65,126,96
139,244,104,96,78,67,128,96
136,247,90,100,75,64,120,102
130,238,102,98,76,64,117,99
145,259,124,98,77,62,108,96
136,267,135,91,68,55,110,96
123,245,138,84,65,55,95,98
128,266,142,85,61,51,128,105
144,273,141,85,64,56,127,106
134,271,122,85,63,55,128,106
133,264,119,88,62,57,132,104
136,256,111,90,55,51,134,101
150,234,118,97,70,59,118,97
158,227,120,103,72,58,123,89
155,247,144,106,78,63,153,108
151,231,141,102,77,61,164,113
146,220,132,94,77,61,166,114
132,225,118,85,63,54,168,118
117,252,110,75,61,52,170,123
129,207,82,64,56,50,144,108
127,242,97,64,61,53,129,101
141,278,101,68,61,56,144,104
143,277,116,67,63,56,137,96
142,258,133,74,64,57,127,80
133,324,150,76,61,56,125,77
145,303,139,85,64,55,135,91
137,276,144,84,66,55,129,105
132,263,136,86,68,58,119,105
127,265,130,79,66,58,122,111
123,180,106,81,63,56,120,107
138,206,107,90,55,53,115,105
132,207,104,90,60,58,101,90
125,208,99,92,58,53,104,84
121,181,81,90,55,50,99,84
123,182,81,85,52,46,103,90
86,158,87,76,49,43,102,80
88,194,86,79,44,34,94,78
93,203,90,73,42,35,87,74
88,217,114,74,42,36,88,66
101,225,118,98,50,40,82,65
104,221,123,96,53,41,74,65
109,219,123,93,52,41,88,76
121,213,121,101,53,43,123,103
119,209,106,108,56,43,126,104
109,197,106,89,56,46,145,111
119,207,107,80,54,47,149,117
119,181,107,79,55,50,145,107
103,179,119,68,54,49,125,88
107,170,116,64,55,50,128,87
106,195,121,66,54,48,106,78
100,192,113,63,54,46,93,68
98,182,113,74,53,43,85,68
95,178,101,81,55,46,86,66
94,196,101,94,51,44,91,70
115,206,98,93,50,39,117,85
112,205,93,107,60,44,124,109
117,210,100,109,67,53,127,119
139,209,120,105,69,53,134,128
137,206,123,92,69,54,132,130
137,209,128,116,71,59,133,143
132,218,135,115,64,57,126,125
128,240,149,119,64,53,132,117
117,243,135,119,64,53,121,108
117,235,136,130,67,56,111,104
100,201,136,119,68,54,110,88
112,180,124,114,66,52,118,93
110,163,96,104,58,47,119,101
104,165,90,106,51,42,118,99
118,160,76,114,54,37,122,100
138,179,80,107,48,36,97,84
138,228,102,102,57,44,112,93
141,215,107,98,57,43,113,88
151,262,112,115,63,50,141,147
151,263,111,95,61,50,147,149
138,288,95,88,59,50,157,155
133,264,78,99,53,47,146,153
137,264,72,102,51,48,149,155
138,222,63,88,50,47,129,108
129,242,82,88,47,47,127,104
123,201,80,113,54,50,127,105
137,208,83,121,63,52,125,105
131,232,92,119,63,53,115,102
113,233,100,112,68,56,114,99
133,246,100,117,75,58,137,121
130,251,105,95,73,57,135,115
126,289,109,80,71,61,140,127
158,282,110,99,81,65,155,137
171,307,135,103,75,59,159,143
180,349,162,110,85,74,150,153
199,411,172,148,101,81,187,176
235,456,204,172,107,82,207,187
227,518,228,172,122,95,220,193
269,586,230,186,138,106,231,197
291,701,220,247,180,116,237,199
320,697,230,266,189,119,221,210
341,719,224,345,226,143,231,221
373,746,241,357,234,157,229,222
403,807,238,361,245,174,235,241
386,728,236,349,239,179,232,233
364,714,228,393,229,176,216,207
357,677,208,340,190,156,181,184
319,596,160,332,174,144,159,214
291,465,153,325,146,119,138,197
287,423,151,315,100,95,128,198
290,464,190,229,103,99,163,237
271,447,203,201,110,105,161,241
272,481,202,189,100,94,166,204
216,529,201,181,100,92,169,201
225,524,199,149,94,89,168,196
227,541,182,131,89,93,153,149
217,544,163,136,75,85,156,136
228,534,163,137,73,83,140,128
243,463,157,146,78,80,123,113
235,442,151,151,85,82,136,139
231,362,114,157,76,68,136,136
220,306,115,140,76,69,132,133
199,294,115,135,83,73,156,140
233,312,131,128,88,82,161,147
238,325,135,144,94,84,145,112
218,348,146,135,98,89,142,105
209,360,151,142,105,90,151,98
224,383,153,160,108,92,148,105
174,402,150,160,103,86,155,115
161,393,147,145,105,91,169,128
189,374,133,144,102,86,165,134
198,389,126,130,97,85,163,143
189,359,121,117,92,76,154,146
189,302,103,121,86,73,150,131
196,325,109,139,79,62,138,126
176,373,120,138,75,61,135,129
186,384,143,186,89,72,139,133
201,430,151,202,93,75,134,130
204,457,151,198,95,79,125,130
187,472,156,190,91,78,118,121
193,424,146,219,102,78,119,113
175,428,133,182,88,66,128,116
152,386,129,164,83,66,140,126
141,367,137,177,83,63,148,134
180,326,127,164,79,62,154,140
178,379,145,160,77,73,173,183
185,341,132,159,75,72,166,190
180,340,125,153,72,70,152,180
181,381,119,141,69,70,146,177
159,369,113,157,74,75,140,175
146,321,87,133,64,63,115,137
137,372,103,132,66,72,114,119
150,367,111,152,73,76,116,120
140,288,104,145,67,71,113,117
138,291,107,122,64,66,113,112
152,306,110,109,63,69,110,108
166,259,108,109,63,66,98,118
159,271,98,92,59,61,115,124
180,286,98,119,64,65,137,150
183,342,109,123,70,68,147,167
180,321,108,129,66,65,147,170
169,323,109,128,65,60,153,175
165,340,112,134,65,62,153,181
153,327,112,113,62,58,144,168
154,271,97,107,53,55,141,157
146,267,100,98,64,59,136,148
142,290,87,99,63,59,137,151
149,271,100,84,62,60,131,135
156,265,104,88,66,60,125,134
140,298,111,98,68,59,117,128
140,324,127,108,64,60,136,131
140,314,135,117,68,62,139,112
139,297,125,117,63,56,143,122
126,303,127,119,61,58,136,116
133,303,145,122,66,61,138,137
146,291,134,127,62,56,127,143
149,288,132,134,66,65,139,154
143,304,131,127,71,72,140,157
136,356,127,119,70,70,147,152
123,330,112,107,63,67,144,144
131,362,139,103,68,71,140,144
131,377,141,87,61,62,119,134
127,360,143,89,60,61,138,135
124,319,142,111,63,63,162,130
153,339,134,123,67,67,181,128
138,336,108,122,66,62,194,145
132,295,108,142,77,70,195,150
147,389,129,152,84,71,174,136
150,388,139,142,82,70,154,140
127,392,151,135,78,68,134,137
135,392,146,135,82,74,112,104
145,392,137,121,74,67,137,106
147,307,118,117,80,74,138,115
154,321,108,117,86,86,156,130
163,286,88,125,89,87,163,137
156,271,103,120,84,85,165,140
145,302,114,114,83,83,143,129
133,327,117,115,76,80,147,135
126,316,134,130,82,76,125,127
128,349,143,139,85,77,121,132
129,335,157,143,90,79,127,133
135,338,161,146,97,86,127,140
131,359,168,145,94,86,147,143
166,365,157,134,89,82,143,139
162,362,148,135,87,80,140,130
179,361,166,141,90,81,139,144
194,407,175,188,114,86,143,142
200,390,170,188,121,86,122,127
171,452,177,196,126,93,117,121
169,446,189,196,125,94,114,120
159,450,161,217,131,94,103,103
159,429,160,210,118,97,87,91
161,461,172,307,144,111,72,88
224,467,176,390,179,147,81,103
226,519,216,483,210,155,94,106
221,542,234,484,223,175,103,118
216,533,225,471,222,179,108,115
218,500,228,414,207,177,116,120
157,463,238,396,196,157,121,115
166,424,210,275,170,153,111,110
175,466,187,258,149,136,106,102
199,453,191,274,150,128,103,118
202,571,215,289,151,122,104,118
238,632,216,203,124,110,115,125
241,638,215,213,132,113,152,143
238,589,225,219,137,113,171,163
231,606,235,222,129,107,183,163
228,558,242,252,130,107,203,197
274,545,245,268,145,118,203,210
286,581,236,295,173,131,189,202
296,603,236,344,173,129,180,185
319,631,232,355,184,135,173,186
319,604,185,324,181,133,152,160
257,583,199,321,171,126,149,154
229,515,217,296,136,118,139,159
209,531,229,237,153,140,128,163
147,500,249,237,146,135,121,149
134,485,295,298,174,144,124,135
138,467,269,285,168,138,113,115
189,514,270,283,160,127,112,107
218,474,262,311,141,98,114,104
232,482,245,281,130,96,123,113
252,470,192,231,86,86,116,107
250,450,212,231,92,96,125,110
239,452,248,233,103,106,122,109
244,508,244,190,99,115,135,128
234,493,248,199,99,114,125,124
220,490,246,176,99,114,120,128
226,491,231,175,94,109,125,125
211,476,167,170,90,110,127,131
181,481,165,203,107,107,132,120
181,458,139,205,115,110,138,119
205,477,146,210,125,109,152,120
211,563,175,252,149,126,157,118
243,544,174,246,151,116,153,109
266,492,174,221,140,109,137,99
279,526,183,261,142,116,141,115
263,499,175,263,131,108,132,115
259,396,149,218,109,94,135,129
226,411,169,226,101,101,156,128
199,461,155,236,105,103,160,136
186,437,166,185,96,96,158,132
188,448,164,188,101,113,156,132
170,433,166,192,92,105,136,129
183,408,150,177,88,96,117,131
200,354,159,161,77,98,115,129
224,416,149,164,101,114,110,127
227,411,148,155,98,96,144,134
233,400,139,153,105,106,165,143
235,441,132,156,108,109,165,145
245,433,122,145,107,102,168,140
221,343,117,152,79,79,171,140
215,349,116,144,82,88,163,140
242,399,235,146,78,75,167,170
230,402,256,163,77,76,165,166
233,413,263,161,84,84,161,165
228,431,273,143,104,95,156,163
247,450,284,167,115,102,139,158
214,398,194,168,116,102,117,115
234,410,215,146,132,120,118,126
235,403,208,167,126,114,134,133
238,396,212,165,115,114,147,135
251,394,223,159,101,103,155,156
258,408,241,150,102,106,169,172
240,342,210,156,93,91,169,167
213,333,215,142,96,96,166,167
226,346,208,162,99,92,164,172
186,318,201,152,99,91,156,159
176,303,189,172,110,94,144,131
193,394,194,202,99,85,168,161
197,387,188,213,103,87,162,155
188,400,184,207,102,84,153,146
184,383,160,204,100,81,151,140
202,400,154,186,92,77,143,149
180,329,133,162,98,80,133,116
159,355,132,142,104,87,131,123
159,320,128,133,97,82,132,126
179,332,135,125,95,79,132,128
164,325,133,117,88,75,131,123
197,311,151,96,88,79,141,141
211,272,156,91,74,67,141,142
208,316,159,92,76,72,142,138
186,345,175,105,75,75,143,134
193,328,179,120,78,78,182,136
167,335,166,115,71,72,195,159
184,340,168,120,66,66,230,188
175,295,155,111,64,62,246,189
194,255,133,110,67,70,246,194
182,275,126,109,100,96,229,195
186,282,119,114,105,96,207,169
192,291,105,114,114,105,173,137
192,318,120,123,113,108,148,141
177,339,121,113,118,107,141,142
185,373,140,103,93,87,137,152
208,384,144,104,94,88,129,154
197,376,150,102,84,79,122,154
214,362,143,98,89,76,123,157
234,325,143,100,87,78,138,161
230,277,132,120,89,77,120,141
201,338,154,125,94,82,113,127
199,358,158,124,97,85,115,114
199,369,155,132,101,92,129,116
173,378,157,137,102,94,118,106
167,387,154,121,98,92,129,111
166,314,128,108,92,92,130,113
157,289,128,124,91,90,126,115
139,298,139,121,85,83,129,103
175,331,145,124,79,78,128,103
178,319,140,127,90,86,122,98
191,313,149,130,84,76,125,98
209,360,156,109,87,80,122,103
208,430,199,127,89,86,110,96
174,408,194,123,86,84,121,102
192,435,199,120,79,76,121,99
190,471,208,120,82,82,148,127
173,433,196,124,76,78,157,133
208,386,156,97,77,77,165,142
212,411,165,130,90,77,166,146
196,410,167,134,85,75,165,145
185,408,156,142,86,69,141,126
202,424,163,161,105,86,132,119
174,440,170,174,102,78,137,127
179,420,160,148,93,73,124,114
180,389,153,144,92,72,139,131
201,351,175,144,91,77,146,140
185,356,168,120,67,53,158,155
174,285,151,99,61,51,140,146
175,290,162,101,79,59,139,148
192,294,160,108,89,71,133,139
187,332,132,104,84,66,128,129
178,338,150,116,103,87,131,112
196,347,150,126,108,88,138,119
192,353,141,131,102,87,139,116
179,354,146,120,99,84,155,126
168,323,144,117,117,98,149,124
166,287,132,100,102,84,137,114
159,290,137,108,101,87,153,109
158,298,136,124,109,98,159,111
172,300,141,128,102,92,135,98
176,320,151,135,86,83,174,127
221,385,169,137,89,91,178,135
227,389,166,124,87,90,164,126
228,404,167,99,73,82,158,129
213,438,162,107,79,92,188,152
209,426,157,103,89,97,169,156
191,377,132,105,89,94,174,165
171,386,142,107,90,93,168,167
167,404,138,109,91,89,163,160
161,369,137,103,92,86,124,137
153,369,135,100,93,88,114,117
150,389,139,98,92,88,103,120
165,387,127,98,90,86,118,133
186,335,132,101,87,87,124,144
203,340,147,106,88,88,134,151
209,352,143,111,76,75,137,156
187,327,154,120,81,75,137,149
177,318,154,116,82,79,124,138
152,315,154,108,84,78,125,137
139,334,185,98,78,72,135,128
155,331,189,89,71,69,129,122
168,367,210,98,81,79,134,117
195,392,214,110,84,76,136,117
216,391,221,116,80,73,164,111
219,368,196,117,81,72,163,120
218,352,195,117,93,82,178,124
208,319,176,105,79,69,175,138
179,279,168,105,80,70,175,137
168,278,151,100,80,75,161,151
160,264,137,103,83,80,158,152
167,288,146,103,69,68,136,146
158,317,119,116,76,66,133,139
161,312,120,113,70,66,141,141
176,318,124,111,66,56,136,126
179,350,143,118,64,53,130,130
157,369,130,124,77,63,133,126
159,349,138,122,73,66,130,110
168,341,141,119,80,76,119,111
144,406,160,126,95,92,124,125
137,377,143,128,99,92,125,127
145,344,144,123,93,87,120,121
143,342,164,108,93,86,116,127
134,372,168,117,91,80,119,125
125,322,168,110,80,63,108,113
145,341,164,97,78,65,94,99
134,329,157,92,77,61,100,97
129,317,130,101,77,61,105,94
133,329,145,85,75,65,122,127
139,305,118,82,73,64,115,122
129,312,127,77,70,64,115,116
132,334,127,83,69,67,115,116
135,379,146,80,71,65,122,122
131,365,121,77,72,63,105,87
124,349,117,99,71,68,102,83
125,360,130,119,79,75,150,107
123,390,161,126,83,80,149,106
128,367,152,145,87,84,144,101
128,408,181,152,93,84,148,99
152,416,189,140,103,91,153,111
148,390,194,137,97,85,128,100
161,377,177,131,95,84,123,103
159,377,175,109,88,78,138,128
178,320,157,102,84,80,138,135
161,315,148,100,72,71,135,137
191,354,140,99,74,70,125,131
188,343,146,103,75,70,131,145
187,329,147,107,91,86,127,145
188,321,132,105,89,83,119,136
189,386,149,122,91,82,130,133
179,390,141,112,90,84,127,135
180,397,153,113,89,88,132,127
189,395,157,110,77,81,120,108
165,389,161,114,79,79,123,116
167,359,159,97,84,85,115,121
151,334,158,93,81,82,135,135
133,313,132,101,97,83,128,133
146,317,131,107,94,74,127,129
154,335,127,101,90,74,130,127
150,301,116,104,82,66,139,130
141,303,126,102,87,67,115,110
157,297,181,98,86,75,119,111
141,372,187,91,87,83,129,105
160,362,208,111,97,87,132,112
159,363,228,112,101,84,144,116
169,380,225,137,102,85,149,127
174,428,204,132,94,82,146,135
174,375,207,134,107,83,140,144
164,413,189,127,103,82,132,139
168,428,201,137,112,95,106,131
199,411,205,130,108,95,97,127
194,358,195,149,102,83,115,144
191,334,176,146,85,76,116,138
228,303,184,153,91,76,124,137
226,289,152,141,84,68,121,133
201,323,154,130,87,69,125,132
206,334,144,109,89,76,113,111
224,336,163,115,92,79,106,106
188,310,158,114,87,82,162,133
208,419,201,121,86,80,189,152
204,388,199,130,94,81,197,154
203,379,210,136,95,75,192,145
189,382,201,135,96,72,223,158
206,389,207,133,100,77,215,163
188,262,158,129,92,74,191,143
186,283,150,149,84,70,183,132
177,292,174,140,81,71,200,138
177,291,175,140,82,75,173,135
139,287,178,146,85,76,139,118
158,312,185,150,99,83,151,128
177,303,191,119,97,87,160,144
185,298,164,123,100,89,170,146
179,347,162,132,95,85,172,139
252,363,179,122,85,76,180,141
243,355,173,118,74,78,170,136
230,346,173,118,79,74,180,130
250,359,179,119,89,79,163,138
257,347,175,105,92,81,153,135
207,412,155,117,97,83,129,112
204,437,171,123,104,83,132,108
238,452,189,121,99,81,112,136
202,458,186,129,99,81,113,121
202,451,206,135,99,79,117,129
195,396,201,126,106,86,126,137
191,354,196,119,98,79,121,138
181,375,176,122,100,84,110,102
176,367,174,103,91,78,91,93
171,388,168,97,102,87,90,87
160,408,169,115,97,80,158,147
183,415,153,129,99,79,185,174
152,393,164,129,96,75,196,176
167,404,160,139,99,76,213,183
172,369,158,140,82,65,215,183
182,332,162,122,70,63,168,132
184,332,186,103,75,66,156,116
181,336,186,110,78,70,145,119
172,298,181,125,78,68,119,114
162,287,168,133,83,67,115,110
153,298,176,133,88,71,118,108
129,282,147,155,81,69,103,107
137,258,134,178,94,74,109,113
144,310,146,169,91,76,109,106
152,336,145,163,91,78,123,115
162,346,131,163,90,79,144,124
196,397,145,147,91,79,176,137
187,422,140,113,86,82,168,126
179,385,132,104,80,76,173,138
176,364,136,103,78,80,161,133
175,346,130,110,73,73,145,127
133,300,116,106,84,77,100,93
139,284,121,108,74,65,105,102
144,306,158,115,84,75,111,95
156,323,167,119,83,68,126,98
145,310,165,107,84,69,123,107
145,300,173,109,74,64,129,106
138,349,226,137,88,70,142,111
148,381,207,141,97,70,138,110
138,362,205,137,100,78,142,108
141,374,227,150,99,77,147,108
139,404,223,149,98,78,152,114
148,362,172,123,82,75,151,109
160,305,180,113,67,65,144,114
163,330,182,116,74,57,141,123
193,374,159,99,83,73,160,132
210,347,161,100,89,76,148,129
233,332,177,106,100,78,135,123
240,385,192,113,109,91,160,127
231,374,198,115,106,92,164,130
201,323,211,118,105,83,155,127
189,345,210,122,107,85,160,125
153,370,204,119,97,78,171,140
150,332,197,120,84,72,166,156
165,370,187,133,83,70,153,146
174,377,170,131,74,64,141,139
203,373,199,124,68,57,136,152
205,328,184,116,70,59,127,146
187,300,163,108,66,48,107,128
176,274,162,78,61,48,110,124
180,269,173,93,69,55,112,124
162,242,137,96,62,53,123,122
174,288,153,103,63,55,141,135
165,292,145,100,65,59,139,133
189,264,153,123,78,64,167,186
181,295,165,120,73,59,178,207
167,298,161,119,75,60,207,250
174,291,169,124,93,71,196,246
178,307,179,138,104,79,211,252
157,313,172,129,92,73,198,224
187,313,181,136,116,94,185,213
181,360,215,137,117,95,156,157
188,445,279,135,111,92,177,152
202,458,279,133,104,88,173,137
204,459,279,137,110,88,164,131
205,432,258,123,84,68,169,123
218,401,233,135,84,67,167,126
199,304,133,137,74,62,142,120
212,305,136,125,70,55,136,119
233,287,140,114,69,60,160,114
210,309,141,116,72,65,155,100
200,287,149,98,67,66,151,84
200,255,140,94,63,61,145,80
179,326,153,97,67,64,144,87
164,354,153,110,69,62,114,99
209,331,160,108,79,61,112,101
213,339,153,107,84,64,100,99
206,338,160,99,90,65,103,103
201,296,170,101,88,63,107,93
184,257,167,89,83,62,100,73
135,339,174,87,90,77,145,139
149,342,181,89,86,75,156,155
146,356,184,99,93,85,187,227
162,317,163,99,95,87,178,233
161,331,162,100,98,90,201,239
170,301,154,106,86,75,174,219
164,309,143,109,95,78,172,215
207,319,156,108,89,73,179,177
197,353,162,113,101,93,186,183
211,380,153,107,100,92,168,181
197,357,153,111,107,102,174,172
208,358,159,120,107,102,192,186
179,344,140,129,107,100,162,147
176,343,137,121,104,89,154,133
168,315,147,121,102,86,158,139
210,326,140,116,88,71,171,139
211,326,131,105,82,68,156,109
242,341,128,81,83,70,159,114
246,327,129,79,69,61,164,116
243,333,135,82,73,65,152,102
216,339,137,82,83,74,144,110
193,334,148,91,87,75,137,116
186,338,154,96,93,79,125,122
186,309,153,99,94,77,129,127
195,321,148,99,98,81,142,129
189,281,146,100,91,73,149,119
188,277,149,95,85,70,141,111
170,246,138,105,87,70,144,110
159,240,128,111,92,71,146,112
151,207,137,119,87,64,150,114
155,238,135,125,87,67,127,110
170,295,156,125,89,69,134,118
180,287,162,112,73,57,151,130
192,326,160,113,65,55,142,123
193,376,162,110,63,57,134,120
196,394,175,110,74,70,136,138
189,378,155,108,76,70,152,178
170,402,161,114,77,71,139,172
159,406,187,114,84,80,149,175
162,369,173,108,86,78,159,189
151,368,162,95,75,63,163,179
167,349,187,110,76,67,146,132
156,328,189,107,75,66,165,139
169,328,178,110,70,63,154,138
164,347,179,104,67,62,136,116
205,334,188,127,74,65,135,114
202,347,158,132,73,61,141,115
204,352,152,142,75,61,111,94
207,333,137,133,74,57,113,91
241,422,164,146,83,72,121,102
212,406,145,136,75,69,125,110
212,407,151,146,85,74,146,122
247,441,182,147,85,74,155,129
239,429,180,149,87,76,167,134
200,314,160,139,87,74,182,147
212,383,166,129,88,79,233,178
208,364,167,94,79,74,227,172
188,321,142,70,80,75,225,172
202,331,141,68,79,74,215,164
254,423,147,79,78,66,251,205
251,375,151,97,79,63,217,186
255,363,146,94,75,59,215,188
233,418,139,104,102,80,211,181
225,428,139,109,103,79,213,184
185,377,139,101,102,82,162,121
171,387,154,92,102,86,144,103
156,409,160,95,106,88,130,98
185,342,153,93,81,70,142,104
186,310,153,102,78,66,146,103
174,267,150,104,75,61,144,104
176,255,136,100,76,55,135,104
172,245,128,102,87,67,134,99
192,281,145,100,85,72,132,100
198,295,147,86,83,75,126,96
193,277,138,79,81,77,112,87
196,273,139,72,88,85,119,89
211,295,190,93,97,85,126,107
180,268,184,94,97,80,116,104
183,285,191,94,105,82,129,114
181,288,197,95,103,78,131,113
200,280,206,102,117,93,142,118
215,228,157,86,100,83,136,114
253,222,165,104,108,91,134,117
254,335,182,111,101,88,134,109
270,361,185,126,101,89,131,111
270,367,171,125,80,65,134,108
256,391,176,121,83,68,159,104
215,402,164,103,72,55,164,114
205,291,138,101,72,56,163,123
194,296,130,90,77,61,183,139
164,295,129,86,72,58,178,143
156,301,124,90,70,57,159,149
152,366,158,94,70,343,159,140
171,399,158,89,78,548,165,133
190,418,173,89,79,551,150,122
223,467,198,87,80,562,140,109
223,448,195,86,78,573,149,113
226,390,168,89,77,468,162,129
214,375,184,99,82,195,186,203
187,366,169,100,82,185,190,212
163,300,147,98,84,150,185,213
186,316,183,94,88,104,186,208
181,331,185,94,94,94,168,200
173,347,171,88,90,103,127,135
175,334,210,82,88,117,111,110
171,397,243,81,87,116,114,110
156,413,231,88,83,115,106,99
166,420,232,89,94,112,136,106
176,402,229,83,87,95,147,104
202,373,205,84,90,77,146,124
219,359,165,96,88,76,146,131
214,324,139,118,92,73,134,135
213,309,135,110,77,60,110,126
233,330,147,114,82,67,98,119
236,353,127,114,82,74,103,111
231,305,130,120,84,71,114,113
246,339,135,105,79,72,135,116
243,326,130,112,81,72,131,114
226,289,112,105,74,64,125,112
196,266,109,106,69,53,129,103
185,235,93,93,78,60,129,101
155,232,91,82,78,59,116,89
206,245,122,75,73,57,121,96
219,249,134,76,74,57,118,109
224,257,144,74,72,53,126,113
218,259,141,81,53,46,122,111
233,284,157,86,56,49,113,119
192,276,137,85,57,50,136,133
176,293,132,85,58,53,154,138
181,343,121,109,66,61,146,142
197,363,134,105,67,60,155,136
181,312,113,123,66,59,159,130
182,343,119,128,73,66,169,131
170,339,114,132,76,65,179,124
166,305,117,118,82,70,195,138
144,338,110,114,85,71,193,143
143,407,113,90,83,72,201,163
133,387,111,85,75,64,190,159
135,368,110,85,70,63,171,155
153,416,124,87,58,54,155,141
183,393,123,97,56,55,162,150
178,331,146,101,57,52,144,132
178,355,156,99,61,56,138,137
183,374,161,91,66,58,133,133
175,347,158,83,68,58,141,129
158,365,180,70,77,64,124,112
167,383,179,73,77,63,124,111
163,358,182,73,77,61,109,87
170,363,179,111,78,67,141,97
159,356,185,118,73,63,122,92
145,317,159,115,61,55,124,94
146,280,141,111,58,53,139,117
153,290,131,114,60,57,160,119
138,317,147,84,57,54,133,108
141,270,133,80,59,56,132,107
150,266,137,93,69,61,125,105
161,334,146,105,84,77,107,72
172,320,136,119,79,72,91,72
173,296,153,120,90,76,110,90
172,330,149,113,89,74,116,100
165,345,148,105,89,76,120,102
152,308,141,87,75,61,128,103
157,339,170,67,80,65,120,100
164,328,147,59,68,57,124,97
164,365,164,64,71,60,123,99
186,350,166,73,66,59,121,103
184,344,160,80,66,61,117,112
167,358,146,86,67,62,119,117
161,349,134,85,64,60,114,125
157,277,116,88,65,64,132,123
129,308,121,80,67,61,134,123
134,298,148,78,75,63,142,121
125,240,140,75,72,60,139,125
120,238,150,84,80,63,128,114
110,244,151,79,80,63,104,116
114,307,156,87,81,66,123,144
108,325,151,83,78,65,118,146
109,335,145,90,77,67,130,149
106,355,133,89,78,68,134,151
103,363,145,93,77,66,186,173
119,285,144,84,74,66,183,151
114,279,126,90,73,63,205,156
124,267,140,79,70,59,197,148
130,232,154,67,68,60,196,143
149,231,152,66,66,61,149,114
131,263,147,74,64,57,137,111
138,253,165,74,74,67,123,113
142,251,150,72,77,70,136,120
148,251,145,73,70,65,147,113
138,234,130,72,66,62,147,107
138,209,124,63,61,59,149,108
126,232,104,54,45,51,134,97
160,302,152,69,54,53,144,111
149,325,151,90,64,60,152,135
144,327,169,85,68,58,151,138
163,331,171,90,68,58,153,136
180,331,168,90,73,56,156,144
138,270,135,89,74,62,130,134
153,296,155,81,71,61,111,112
160,296,144,87,72,59,126,116
151,280,146,85,76,63,141,134
145,251,147,90,79,67,144,126
152,280,139,123,78,62,154,118
139,227,111,117,76,57,150,118
131,219,104,112,72,57,141,116
122,206,90,110,68,52,121,96
105,216,90,108,58,42,120,90
106,266,126,71,60,47,147,101
123,267,125,98,69,51,144,117
122,387,143,119,89,68,144,114
132,410,159,119,90,69,151,122
172,408,154,120,93,71,150,132
170,367,136,125,91,70,125,126
177,401,141,104,90,76,131,116
194,301,134,101,78,67,133,110
188,268,119,105,78,65,127,100
162,259,127,105,79,71,121,83
157,258,122,89,74,67,105,75
164,239,141,94,69,63,120,72
158,277,178,86,63,58,113,75
169,286,176,85,65,60,113,79
164,357,178,88,63,53,112,77
176,360,181,91,65,54,118,81
147,355,178,86,68,52,109,95
129,311,126,70,66,53,112,98
112,327,141,93,73,57,128,94
127,297,141,91,71,58,129,91
126,292,140,89,71,57,174,182
125,279,120,84,66,52,173,182
130,292,137,89,70,57,172,179
135,267,122,67,65,53,160,184
118,204,114,69,66,52,209,219
127,372,174,101,85,75,247,218
132,367,171,100,84,75,249,218
148,389,167,95,80,70,251,221
167,406,168,93,77,71,250,218
173,422,177,94,82,78,215,191
152,279,107,59,57,53,122,109
154,298,122,61,55,52,117,102
155,331,156,86,70,67,125,111
136,329,164,91,70,65,125,109
132,315,155,84,63,56,109,96
141,307,160,88,69,59,106,105
137,340,157,100,74,62,99,115
117,305,113,80,58,45,83,105
107,339,116,76,61,50,86,112
109,402,133,82,71,53,116,123
121,439,140,83,70,52,119,118
138,459,158,91,67,51,112,101
142,469,165,91,75,57,120,103
149,478,199,101,90,63,126,97
145,460,190,101,86,63,100,81
128,433,190,105,91,68,104,100
120,377,184,86,96,72,114,108
120,346,193,86,93,69,112,109
131,280,152,70,78,60,106,117
139,356,166,69,82,63,107,118
137,362,170,62,79,60,103,109
126,370,160,61,70,54,95,103
122,374,150,63,72,60,84,97
102,390,161,70,79,66,125,135
95,272,147,68,85,70,128,136
153,264,133,61,81,69,131,135
153,259,138,65,86,71,133,133
168,256,139,78,82,66,157,151
173,240,126,87,81,68,129,110
171,250,118,87,65,58,135,112
126,253,133,89,71,64,132,112
134,221,129,90,69,60,135,116
118,209,131,87,72,63,123,104
122,253,127,80,61,52,133,105
122,277,143,89,66,56,125,102
116,278,131,88,60,48,126,102
112,311,147,97,70,61,115,96
123,306,141,92,74,59,133,114
119,287,145,116,90,77,138,162
126,296,147,125,95,79,154,178
165,285,144,126,100,85,155,179
163,248,124,119,97,85,161,180
152,272,124,122,98,86,137,162
159,312,149,101,81,71,132,117
180,306,152,81,73,67,120,97
145,311,155,84,69,59,120,88
142,308,153,83,71,52,125,84
147,296,151,74,67,55,130,86
167,237,118,69,73,61,128,108
146,194,94,71,77,61,124,105
149,176,86,70,73,59,120,105
161,199,92,87,66,56,107,109
160,186,102,95,68,54,112,117
149,209,115,97,64,56,107,103
147,200,118,97,57,59,121,108
144,234,123,99,65,65,125,109
131,223,126,98,63,63,142,119
154,225,135,100,68,63,136,109
152,205,127,96,69,55,174,132
148,217,141,93,70,53,176,138
161,216,150,88,64,46,172,138
163,228,148,84,63,46,168,126
138,230,146,73,54,42,178,133
123,247,156,76,60,47,147,118
129,274,165,80,59,46,144,108
119,257,155,85,63,48,147,113
116,274,147,74,59,47,141,112
121,286,141,68,60,47,135,110
123,309,183,66,59,48,134,96
123,290,172,56,60,52,120,91
128,323,205,56,64,61,116,92
134,323,212,56,71,64,113,92
133,334,209,61,72,64,108,98
135,312,164,58,71,63,91,92
142,375,175,66,83,76,91,97
130,371,144,62,83,82,90,95
130,356,139,60,82,91,116,103
128,331,137,60,80,92,132,119
132,325,140,70,84,92,136,124
123,245,115,76,77,83,135,118
130,228,123,77,70,68,137,114
123,217,116,79,66,51,120,107
120,213,109,80,67,50,97,77
113,191,101,71,62,49,107,81
128,214,119,59,59,46,122,87
128,195,103,66,69,53,146,100
130,224,114,74,78,60,167,112
147,246,136,74,79,64,177,120
141,251,141,82,75,62,174,117
120,242,131,90,79,67,166,112
123,228,126,84,78,64,152,111
123,242,141,75,76,62,139,115
108,267,128,80,73,62,146,120
114,269,122,73,72,61,152,122
115,269,116,77,68,52,152,131
109,285,126,80,63,51,158,138
114,279,126,78,65,52,157,135
127,298,132,74,68,48,138,121
130,307,149,78,70,51,126,122
125,306,149,67,69,53,121,114
131,296,148,70,67,55,146,110
156,269,128,70,58,51,142,106
150,220,123,72,59,51,151,121
140,243,128,69,64,53,148,117
147,231,129,65,64,51,159,125
145,234,132,58,73,59,144,117
137,258,129,73,83,64,165,129
128,259,131,76,85,65,170,121
134,218,109,84,85,70,176,115
142,235,107,87,86,75,175,113
157,273,127,85,83,70,158,105
139,255,140,71,75,68,152,105
139,244,146,69,75,71,151,110
145,239,147,56,74,65,148,110
150,233,148,53,73,59,143,102
129,198,125,77,68,54,147,108
130,220,124,84,64,47,124,92
139,212,117,82,59,43,110,76
141,271,131,90,62,46,110,82
123,270,127,101,67,54,108,86
148,290,136,90,66,56,105,83
142,287,126,86,69,60,111,89
151,309,131,86,80,65,123,104
143,276,131,78,72,61,123,103
153,277,145,66,67,55,126,108
136,278,156,64,71,56,124,115
153,275,169,72,83,66,121,113
149,298,166,76,74,60,109,98
154,322,172,78,78,61,108,93
158,355,174,92,79,64,120,109
170,342,166,90,78,66,120,102
169,381,170,87,68,58,119,100
163,357,165,82,69,59,162,125
169,331,143,81,70,62,165,131
166,316,128,64,68,61,163,128
157,309,121,83,65,58,167,134
160,292,98,92,75,62,161,128
155,290,100,96,74,60,112,105
150,296,137,104,76,60,119,107
135,271,140,102,77,60,112,85
133,296,139,88,86,67,126,91
113,269,145,74,75,61,141,99
124,277,149,64,74,63,154,103
113,267,121,48,72,65,149,94
118,258,118,46,69,64,149,98
113,232,119,43,66,63,137,84
121,289,143,60,73,66,145,93
115,305,141,72,77,70,138,93
115,331,162,92,77,66,128,98
122,329,163,95,77,69,126,97
135,334,169,103,79,66,125,106
145,306,145,98,80,64,98,94
148,294,145,100,76,60,96,96
155,280,130,91,73,59,112,99
158,289,143,102,83,59,101,98
144,340,142,97,82,57,101,87
133,329,156,94,75,58,138,110
147,318,156,86,77,56,147,126
145,297,150,80,81,58,141,126
137,312,153,59,69,54,138,124
146,244,147,53,64,54,132,122
139,258,141,45,60,49,96,99
132,283,156,44,63,53,74,72
135,295,168,54,67,56,72,59
141,284,165,64,70,59,84,66
136,303,167,68,68,55,115,74
146,274,175,70,71,55,118,81
143,249,161,69,65,52,140,117
148,328,195,76,55,45,140,130
139,355,210,70,55,42,135,128
143,344,205,69,59,46,111,126
134,353,195,75,61,45,101,120
123,364,201,74,69,51,70,87
127,339,165,60,72,53,79,76
133,298,137,58,69,53,79,72
125,287,131,63,73,57,86,76
122,270,133,66,74,58,90,80
120,323,142,80,85,70,95,85
105,284,132,94,92,73,98,100
101,347,146,108,104,82,111,105
112,355,164,111,101,80,108,106
127,367,164,108,103,84,114,111
129,355,157,105,91,73,111,104
123,376,164,90,81,71,101,88
120,320,148,76,69,61,104,94
103,312,166,63,69,61,107,95
109,340,161,62,66,59,121,105
108,281,153,52,67,58,119,107
112,238,149,63,85,70,132,113
116,231,150,67,87,71,123,108
116,240,113,73,84,67,132,114
111,214,118,77,86,67,122,111
140,224,127,77,83,65,129,114
134,223,129,68,63,51,118,105
135,245,130,75,61,51,119,108
143,233,126,71,65,54,116,107
150,262,137,67,62,54,111,101
120,306,132,76,70,57,109,99
131,319,130,80,74,58,102,95
134,328,139,71,82,64,101,89
140,364,163,80,86,67,132,93
118,318,148,79,83,63,140,96
142,324,148,71,77,61,143,99
136,320,164,73,81,64,143,103
140,311,159,73,71,57,142,103
138,264,135,62,67,56,113,101
156,300,155,63,71,58,112,101
136,233,145,64,69,57,104,98
136,249,131,61,60,50,110,98
131,241,122,60,57,47,110,99
126,255,152,60,56,46,93,87
126,267,138,56,55,48,75,73
143,283,145,56,61,51,76,74
140,263,138,54,58,49,67,71
136,281,162,58,67,56,65,72
132,287,146,56,67,51,77,68
119,249,142,56,64,47,76,69
101,271,167,53,57,44,82,74
96,266,164,51,62,48,88,74
111,286,169,57,57,44,96,79
138,304,165,58,63,51,94,90
130,296,169,65,73,55,102,94
126,265,144,66,74,54,97,85
134,275,166,69,78,58,96,84
133,231,138,60,76,59,106,84
111,193,136,57,69,57,105,81
111,208,124,57,69,53,109,81
134,260,137,66,78,61,118,96
131,259,121,64,80,62,133,99
124,268,138,63,83,66,122,93
118,279,140,65,83,66,123,90
120,263,140,59,74,64,118,93
93,219,132,49,68,61,110,82
101,218,135,47,58,54,94,81
100,209,124,44,52,43,103,88
103,186,120,41,49,39,96,87
108,189,122,43,56,42,102,93
111,183,130,44,53,39,100,92
104,198,112,46,60,45,126,133
102,187,104,47,61,47,117,133
106,189,116,50,60,47,118,131
103,206,145,55,64,48,107,121
111,245,135,65,71,50,109,120
113,238,141,71,66,48,91,93
118,248,145,77,70,50,94,91
123,260,145,80,76,57,101,95
132,273,125,79,68,54,100,92
138,303,139,76,67,59,113,99
156,306,140,69,67,58,116,104
165,315,148,66,64,60,117,104
154,304,145,61,61,57,116,104
153,312,153,59,65,59,119,106
150,270,142,52,59,54,112,113
135,288,144,61,64,55,99,92
122,275,140,60,71,61,105,89
124,269,132,58,69,59,104,87
135,240,116,57,68,60,112,102
127,245,154,65,75,64,135,117
130,201,151,60,71,61,135,129
130,204,144,62,62,53,131,132
129,237,164,63,61,52,129,131
109,245,167,71,70,55,133,129
111,238,131,67,61,48,121,111
106,280,140,71,61,51,115,96
103,284,152,68,68,56,112,92
110,262,131,70,67,57,108,91
122,260,130,62,64,54,98,89
121,251,150,71,69,58,85,88
120,200,144,64,71,59,98,95
119,195,135,66,72,58,99,94
112,198,138,68,83,68,101,93
111,196,134,74,90,74,107,100
109,221,115,65,87,71,102,90
129,236,109,66,89,75,86,82
136,229,104,64,89,74,87,96
146,248,109,67,86,70,108,102
142,260,120,64,77,63,100,94
151,243,121,63,78,63,104,101
136,238,125,67,76,59,119,109
132,236,125,66,69,54,118,102
125,212,120,61,65,51,102,102
118,206,153,58,60,46,109,95
126,206,146,57,58,45,105,94
122,207,146,55,55,43,94,93
140,222,147,54,56,42,91,96
138,234,158,56,59,42,90,93
151,210,116,57,67,49,93,112
135,216,121,60,68,52,94,111
134,216,116,62,68,53,89,104
126,204,120,71,79,62,95,103
143,204,99,68,76,61,95,100
130,223,99,68,75,59,80,80
125,207,126,67,73,56,97,84
149,208,127,69,81,64,107,95
148,206,123,65,78,62,109,98
142,221,122,63,74,59,109,105
155,219,140,58,70,56,108,106
161,233,122,60,73,57,96,100
156,263,130,56,65,48,85,92
153,266,131,47,54,43,83,86
151,239,140,49,55,47,83,85
139,234,119,50,55,48,100,80
155,224,109,48,50,50,98,79
144,189,103,50,47,48,112,98
140,198,108,51,42,44,114,98
137,219,107,59,49,45,112,92
136,212,111,62,50,43,101,94
118,202,118,63,53,43,108,97
114,207,143,60,57,47,117,73
135,248,141,61,58,46,111,76
141,233,131,53,60,47,112,84
141,238,132,54,65,49,112,81
143,230,128,52,67,48,106,80
150,262,104,51,64,43,86,81
136,235,105,64,74,49,96,78
130,247,127,75,77,56,109,83
140,239,141,72,79,58,107,87
141,260,146,74,77,59,110,94
130,217,140,81,81,60,107,99
129,191,136,71,72,56,103,110
132,196,135,69,66,48,99,108
133,208,116,69,61,46,100,108
132,212,107,67,61,46,92,100
137,231,107,57,59,46,93,100
157,238,120,63,59,47,97,88
148,231,105,51,58,47,103,104
161,267,106,52,58,44,102,103
153,249,109,54,60,48,109,102
157,230,103,64,60,49,111,99
143,222,90,59,59,47,111,100
149,207,82,56,54,45,96,74
120,151,80,62,53,47,103,71
126,143,78,66,49,42,103,77
122,145,80,56,48,45,105,79
112,181,87,58,53,50,104,72
97,182,90,64,60,53,103,76
107,227,100,57,64,56,101,80
112,228,107,50,61,54,100,77
112,232,106,55,58,49,98,82
119,225,104,61,61,48,96,88
131,276,111,66,70,57,101,85
127,264,102,65,69,56,100,83
136,263,88,63,72,57,100,89
130,270,112,62,73,59,102,100
132,286,110,59,82,64,100,101
128,241,102,47,67,52,101,106
133,241,125,50,65,51,105,113
118,263,138,50,61,49,112,117
154,344,145,59,70,61,118,104
147,332,150,64,62,58,124,102
150,340,155,65,66,58,125,105
151,332,141,64,70,61,136,100
158,344,137,79,85,74,145,91
134,271,139,81,83,70,154,95
144,310,144,83,83,76,147,98
176,305,147,82,80,77,146,94
170,299,171,88,95,86,149,107
162,287,169,79,84,78,139,102
153,272,151,73,80,76,119,95
148,203,147,66,75,66,121,93
105,190,141,71,77,67,120,99
109,214,125,82,64,57,115,109
108,220,149,81,66,59,106,116
111,215,145,84,70,61,105,120
112,221,137,81,71,61,98,113
123,241,160,82,77,65,89,107
129,249,153,64,68,58,65,85
139,228,121,65,68,59,72,92
140,230,132,65,66,55,71,98
143,238,143,64,64,54,82,115
142,226,118,57,59,51,94,113
144,211,116,58,62,49,100,136
139,222,134,56,60,43,98,130
139,223,144,70,75,54,106,129
136,244,141,70,77,56,104,121
123,238,156,72,73,54,111,129
108,209,148,71,72,55,108,99
99,179,136,69,71,55,108,93
98,190,113,49,49,42,106,89
128,148,130,51,53,43,119,106
138,143,121,52,53,45,113,96
137,145,127,50,52,43,110,95
158,173,127,53,51,44,123,112
170,269,177,65,58,46,118,110
148,276,163,67,52,41,108,95
145,303,162,65,55,43,102,99
148,305,163,68,59,47,116,102
151,325,165,72,65,49,114,100
135,256,113,60,60,47,122,109
132,246,114,65,67,51,131,117
125,223,121,67,64,49,156,119
125,226,136,70,68,49,156,117
112,223,137,65,72,50,154,116
111,212,137,69,78,53,151,110
114,227,133,71,87,62,140,94
122,243,116,67,89,64,122,87
122,284,122,70,90,66,119,92
104,256,135,65,83,64,117,84
106,254,149,70,83,66,112,79
109,292,164,62,66,56,117,82
101,290,186,64,67,60,105,84
99,246,167,55,58,56,95,80
115,256,154,61,61,58,88,77
141,264,149,63,63,57,93,84
138,225,131,66,83,75,88,82
146,211,118,67,88,76,121,97
151,224,131,75,94,81,126,103
145,231,138,80,102,86,124,102
120,226,136,77,103,86,120,98
149,254,147,85,92,73,126,100
147,253,135,88,92,69,98,87
145,278,143,85,92,69,95,90
148,297,168,85,88,65,99,103
160,299,163,84,90,71,107,114
141,263,157,76,93,73,98,122
144,258,153,83,88,70,94,120
149,232,145,87,85,67,87,113
166,239,136,90,89,70,110,140
161,234,151,89,81,65,110,136
163,288,170,93,82,64,120,130
189,301,174,92,90,70,173,163
188,321,183,111,92,71,189,174
187,387,179,103,88,70,183,146
201,428,173,102,90,68,193,154
215,493,184,105,108,85,206,157
221,547,262,108,128,107,173,133
255,595,269,148,154,122,167,127
278,584,278,160,164,126,165,144
333,655,276,181,177,136,162,138
329,609,288,181,174,133,143,132
333,595,239,177,167,121,176,173
341,554,228,130,142,105,182,176
346,509,225,120,138,105,192,180
288,391,233,91,128,101,211,191
305,371,201,85,113,89,219,198
338,328,186,90,99,81,201,161
312,309,194,89,99,84,192,172
299,327,197,83,89,79,198,176
316,343,186,90,77,69,177,163
353,347,198,107,92,80,192,182
312,374,209,110,92,78,200,190
303,370,206,109,92,76,210,178
314,361,184,113,94,78,197,164
307,326,183,129,100,83,195,169
240,353,172,129,93,80,188,141
276,324,174,124,93,76,179,139
293,339,168,131,98,79,182,133
275,317,171,144,96,71,191,130
297,325,175,137,95,66,196,123
293,261,157,124,92,59,192,130
251,223,130,120,90,65,178,116
258,181,144,114,86,62,155,115
244,175,134,97,83,68,139,113
213,149,143,74,75,68,126,111
255,167,146,74,71,68,108,107
249,221,151,80,66,60,134,127
222,286,137,93,68,60,145,140
222,315,138,91,65,56,151,136
204,341,132,99,67,53,150,136
146,353,143,104,73,56,168,131
177,340,133,98,73,57,192,134
186,292,137,83,69,55,199,123
191,306,159,82,68,58,200,125
198,273,152,72,64,58,220,133
209,282,142,86,69,66,213,139
197,283,162,89,76,71,181,130
203,291,147,102,81,74,169,125
236,296,139,111,93,78,177,128
243,310,148,113,94,76,149,124
237,314,153,104,90,67,135,128
241,346,160,106,85,63,125,116
237,387,165,94,77,59,131,120
243,354,147,88,65,52,137,121
243,346,144,88,62,55,129,114
258,329,155,109,62,56,130,107
248,277,122,106,59,52,146,121
247,190,111,108,62,54,150,120
198,175,117,104,58,51,121,113
195,191,129,120,79,67,133,118
211,176,101,97,78,69,145,131
239,262,152,104,86,74,147,126
241,265,158,104,85,73,141,126
240,294,185,116,94,76,164,137
236,302,177,94,78,61,174,138
202,308,181,88,75,56,171,121
182,286,157,76,66,48,158,108
180,296,170,75,70,54,155,104
197,268,138,58,58,51,136,92
201,268,132,57,61,55,116,87
200,259,125,59,58,53,111,89
198,219,116,71,62,61,135,102
203,239,97,72,57,57,159,120
205,251,98,71,57,53,164,141
197,235,105,84,53,51,163,145
205,232,124,90,54,55,165,147
193,227,119,83,49,48,142,143
170,198,110,80,55,50,113,132
233,181,121,94,56,52,113,148
238,185,116,86,59,53,118,144
231,199,105,78,62,50,129,149
229,190,100,79,68,54,132,157
267,212,117,91,74,56,152,159
219,218,100,81,75,56,156,131
224,213,105,87,72,56,173,139
244,204,127,108,72,59,208,174
240,205,132,108,64,57,218,180
204,189,126,97,68,66,224,192
175,184,128,94,61,64,216,190
172,180,127,93,68,64,209,203
143,189,96,69,65,60,175,173
192,203,97,73,71,61,168,158
211,205,105,72,55,48,138,140
217,229,107,81,64,52,146,136
220,251,106,89,63,55,149,109
218,244,105,94,68,62,135,95
210,235,107,88,62,62,128,90
189,220,96,93,71,67,145,108
186,199,105,87,75,68,138,113
180,217,143,91,76,67,124,114
191,210,152,95,76,63,125,120
166,204,145,100,78,61,145,123
168,216,145,100,74,55,134,111
202,227,138,99,65,52,137,105
192,181,95,82,61,51,169,118
176,177,84,75,57,53,174,117
174,223,121,73,59,55,196,141
192,236,134,72,58,54,199,141
153,220,166,72,66,55,196,136
157,222,166,70,63,50,175,128
178,226,164,68,71,49,170,131
177,193,140,66,70,45,136,105
168,171,126,66,67,45,154,108
178,173,94,70,62,44,155,107
173,177,104,73,64,47,163,101
192,215,119,71,56,47,165,102
183,210,135,70,60,50,165,120
177,203,134,67,60,50,141,112
199,207,125,62,68,55,150,119
207,208,128,79,71,57,149,118
169,201,120,78,71,57,148,110
170,194,105,92,79,58,138,91
175,189,103,92,79,58,145,89
154,197,119,89,71,52,183,126
165,218,105,75,68,50,179,134
175,205,117,77,74,55,178,136
216,229,129,72,73,143,195,149
206,252,135,72,76,304,210,165
196,252,119,71,74,329,167,135
178,241,121,69,80,332,160,129
206,246,119,71,79,332,161,122
192,228,110,60,68,303,145,113
214,205,112,62,63,143,126,96
216,214,134,69,70,70,129,99
224,206,138,67,64,61,150,110
195,181,134,66,68,60,151,132
187,195,125,80,68,58,160,138
180,237,146,79,67,57,154,141
181,259,148,78,77,61,171,141
179,258,158,88,91,74,179,156
174,276,158,92,86,70,174,147
172,273,161,77,85,72,171,144
161,252,145,74,86,73,170,136
155,218,140,74,87,75,166,139
153,212,121,60,72,61,141,112
164,184,114,52,69,60,135,100
151,186,111,54,65,59,130,93
148,173,104,67,65,57,157,107
157,178,94,69,49,44,150,109
196,190,93,69,48,41,168,113
198,209,103,68,65,51,172,118
192,211,105,68,68,50,185,112
239,205,107,68,72,50,162,102
240,199,106,70,74,49,177,93
214,185,119,73,75,52,166,97
237,186,128,73,66,50,175,107
247,184,140,73,72,59,166,126
201,203,151,80,68,58,177,146
207,214,149,87,65,63,157,171
201,233,139,90,63,59,152,171
172,234,137,89,62,56,139,164
162,233,151,90,57,51,153,168
185,219,142,79,64,60,163,174
171,209,138,64,63,56,167,157
170,192,145,57,66,59,167,155
163,207,164,56,65,55,183,163
181,193,142,56,61,54,171,145
151,209,150,52,55,45,153,116
168,212,155,51,58,47,144,105
163,212,156,53,56,51,147,100
163,185,129,53,59,53,135,89
158,202,144,51,60,52,136,90
157,193,134,53,65,57,139,101
153,208,132,68,64,56,146,106
181,222,136,72,66,52,156,118
179,213,143,75,63,51,150,123
163,206,124,74,66,55,154,133
169,203,133,81,74,55,168,133
205,205,143,83,76,64,215,182
190,225,159,82,81,67,211,187
191,238,151,92,83,69,245,232
222,248,161,98,84,69,256,258
219,257,156,94,83,71,266,267
179,263,148,100,97,74,235,235
195,233,133,101,94,76,225,226
208,244,136,92,93,75,190,177
187,245,124,87,89,76,180,136
208,243,125,85,84,83,188,132
213,266,128,88,74,449,185,134
207,269,120,94,77,525,187,126
201,266,127,94,78,546,198,128
190,290,144,95,78,555,193,131
186,318,155,101,81,558,154,104
195,284,149,93,73,343,152,100
206,282,160,83,63,209,171,128
220,275,173,85,64,145,181,144
227,242,164,95,67,107,176,143
210,202,153,93,57,74,172,146
193,190,176,82,55,62,191,156
189,209,168,82,57,56,188,137
212,206,144,77,69,59,161,111
198,213,147,74,80,67,177,111
220,207,150,71,87,71,209,131
227,216,146,72,93,74,203,147
248,225,164,68,100,81,197,152
233,232,172,69,90,79,200,152
247,223,173,72,80,74,180,144
240,222,165,67,74,66,160,125
232,218,144,74,71,64,147,93
191,198,124,78,65,55,161,92
157,189,122,75,61,47,180,96
136,210,111,62,59,49,198,126
123,201,116,80,62,52,187,133
147,188,120,74,60,46,185,138
159,200,117,72,54,44,162,135
169,222,129,80,57,48,154,145
170,197,128,80,61,44,138,131
170,202,140,69,76,61,139,126
153,206,137,70,79,62,136,121
138,185,145,74,90,70,139,125
165,150,124,74,91,71,129,118
165,162,125,72,86,69,125,108
160,171,119,67,71,52,126,117
206,219,115,71,74,57,125,116
211,216,113,67,62,50,120,112
192,222,121,72,68,55,139,127
205,235,122,82,75,58,158,149
216,232,123,78,71,55,186,154
185,184,137,84,72,54,193,156
189,186,125,83,69,51,200,160
201,187,125,84,65,45,193,152
195,173,135,78,65,45,189,132
191,179,133,86,79,62,163,124
182,201,123,80,76,63,165,123
170,194,121,83,78,65,177,117
171,176,110,71,76,61,174,124
165,162,104,69,71,63,171,125
159,195,108,64,69,54,168,122
201,190,99,57,64,48,159,137
217,202,115,54,61,49,138,134
212,229,129,79,84,72,150,127
235,227,124,81,84,69,147,132
232,189,124,84,80,69,140,126
215,190,123,89,89,72,151,119
216,241,130,97,92,73,157,136
213,224,118,82,76,56,181,165
191,228,130,80,78,61,185,157
202,284,128,74,81,62,212,171
179,299,145,68,78,67,214,169
173,264,147,64,76,65,235,166
164,325,187,62,71,64,201,127
169,336,176,61,70,62,187,143
215,299,183,62,58,56,153,137
226,282,172,68,58,50,138,131
222,276,166,70,59,53,102,119
224,225,134,75,62,55,112,148
220,230,142,79,60,51,139,142
167,224,137,81,69,53,139,134
174,217,136,80,60,47,149,141
164,238,142,81,66,48,150,149
177,220,129,80,61,44,142,127
207,206,130,76,68,51,118,125
204,229,128,73,65,51,133,137
185,246,130,71,67,54,133,125
187,225,110,55,58,50,122,118
169,222,112,50,62,50,124,113
121,211,99,54,56,45,138,112
125,189,136,59,64,58,153,107
138,178,139,67,69,60,143,108
135,177,139,71,72,62,140,107
161,182,144,72,69,64,144,116
191,206,155,79,76,68,154,121
189,195,131,75,69,58,128,119
188,190,125,67,71,59,164,135
200,200,127,75,75,62,170,137
203,199,126,75,74,60,183,131
182,215,113,71,70,61,160,119
180,225,110,71,68,60,166,118
189,220,107,71,66,56,149,104
183,210,111,65,63,58,149,107
159,247,118,71,68,61,134,104
198,230,122,69,67,60,150,111
218,227,106,67,66,56,154,116
209,290,146,68,62,56,154,118
201,311,144,67,70,57,169,119
218,290,136,81,70,55,180,121
185,287,137,81,67,52,195,124
196,292,144,82,69,54,203,123
191,231,117,89,68,54,193,127
191,229,112,92,80,59,189,123
196,246,133,80,82,59,180,118
197,257,154,78,84,56,153,111
229,274,164,89,83,56,131,112
255,284,163,87,88,62,125,102
266,289,170,79,69,49,110,103
253,271,163,77,64,50,107,107
245,262,139,79,62,52,115,109
206,250,125,69,66,56,137,99
190,255,119,63,61,50,165,100
183,241,138,67,63,52,166,105
175,245,127,65,59,50,195,122
188,252,128,63,64,54,204,127
172,274,139,59,59,51,205,133
167,256,135,54,56,51,186,139
158,236,104,49,55,51,194,146
170,242,124,58,62,55,198,156
164,219,122,59,58,52,179,151
178,165,103,58,55,48,168,149
178,163,106,61,55,46,178,155
178,203,125,60,52,45,232,159
177,208,109,53,53,42,207,135
222,226,110,62,69,50,212,134
207,239,121,63,70,53,230,137
194,244,123,63,78,61,245,139
190,235,104,70,81,60,188,119
243,213,95,75,85,64,194,152
205,188,106,68,73,58,222,156
222,211,95,68,72,58,196,150
237,213,104,78,74,56,162,135
266,195,119,76,70,55,183,155
212,185,118,74,69,54,186,128
212,190,105,69,66,49,149,119
189,208,109,72,71,51,159,120
164,202,115,70,68,51,177,127
144,200,99,71,73,52,168,105
145,212,101,81,72,50,150,102
150,224,107,89,75,54,149,109
163,200,135,92,72,55,197,122
174,206,125,85,69,51,198,122
189,223,129,82,66,52,196,128
205,227,135,70,57,47,206,127
206,234,150,68,58,44,228,131
197,211,135,67,58,42,189,122
225,236,131,82,57,44,197,145
202,242,128,90,57,44,186,154
211,299,159,91,64,49,199,168
202,309,173,93,69,49,206,176
221,309,169,95,73,52,208,183
208,290,178,84,76,50,200,167
199,275,181,79,75,49,195,147
185,202,152,84,72,49,181,134
204,245,127,77,66,53,151,126
189,256,121,76,70,55,148,109
166,254,118,84,69,56,128,94
179,247,116,86,73,58,143,104
195,249,127,83,72,59,142,105
173,190,126,89,81,62,145,101
173,202,128,94,91,68,162,106
181,205,121,87,93,74,174,112
189,217,118,82,92,76,189,140
169,231,116,83,93,76,193,149
176,252,136,80,93,80,185,146
184,240,137,82,80,73,160,145
242,256,158,95,86,69,196,192
235,299,174,110,92,72,179,173
243,295,181,117,91,69,173,164
242,289,161,127,91,63,177,171
255,283,157,123,93,68,181,179
229,284,140,121,83,66,145,132
232,279,138,115,87,70,155,135
230,283,136,113,87,72,156,134
246,344,173,119,88,76,156,127
241,384,184,129,98,79,166,111
268,506,201,136,117,90,199,175
259,520,205,137,117,87,205,176
266,548,196,138,123,91,200,175
275,532,173,122,120,88,229,191
264,513,164,139,117,81,225,201
238,415,153,137,100,69,190,144
247,390,152,132,93,63,180,138
253,404,190,137,85,58,189,147
241,385,188,146,90,60,148,128
252,409,201,126,82,64,165,136
236,381,190,120,81,61,174,146
223,378,179,120,80,59,189,160
200,316,146,109,81,61,190,158
220,305,140,107,69,53,192,153
214,265,128,109,77,52,168,132
203,273,147,105,72,52,151,112
236,297,145,103,69,55,121,99
244,306,143,103,69,55,112,91
230,288,141,91,70,57,102,91
247,306,143,86,69,56,144,126
274,299,122,91,84,57,153,152
262,281,149,101,93,57,165,160
257,270,136,99,88,52,166,161
242,289,144,104,88,50,179,188
211,270,140,99,79,49,158,169
167,262,147,100,69,49,147,156
156,236,117,84,61,47,138,147
149,243,137,86,67,49,137,156
158,276,136,85,72,55,142,129
161,268,133,84,71,54,139,136
177,283,121,83,67,53,152,145
169,281,131,89,63,55,173,157
178,312,131,91,65,60,184,148
163,276,142,86,60,58,176,151
172,291,161,85,64,58,180,144
175,283,164,90,70,62,174,139
171,301,161,95,82,69,162,121
156,270,157,97,75,65,151,114
162,271,141,102,78,68,156,109
167,257,115,104,75,67,174,131
148,290,147,108,72,63,180,124
192,352,150,106,60,55,168,123
213,391,156,107,65,55,163,126
221,388,155,104,57,47,152,117
207,389,158,105,61,51,122,91
217,354,128,90,58,49,107,87
198,304,140,122,79,64,119,96
181,246,135,117,78,63,132,104
176,262,135,115,83,65,135,110
201,302,150,120,83,64,136,121
198,303,150,119,84,69,174,136
182,272,128,84,67,56,174,132
181,288,117,89,70,59,164,128
214,273,113,97,73,64,164,127
190,228,88,100,71,65,187,114
184,244,83,98,71,59,149,89
198,275,96,111,67,61,149,94
198,261,93,108,63,56,147,89
143,257,95,100,53,49,152,92
148,257,94,89,48,41,129,96
156,261,96,95,61,52,135,103
144,223,82,76,60,50,120,89
135,206,78,73,64,54,115,84
154,245,90,79,64,56,179,110
171,252,105,83,66,61,179,107
167,228,113,86,65,60,181,107
179,230,117,85,67,59,193,110
218,296,137,98,70,58,229,157
231,272,133,93,79,65,196,157
227,266,138,93,80,66,192,159
263,296,129,92,76,64,190,158
254,306,128,92,71,62,178,162
230,238,107,74,67,61,160,131
208,234,104,80,56,52,163,119
215,236,97,76,60,53,155,113
174,211,108,69,57,49,154,115
183,262,127,70,64,53,175,128
210,311,144,81,65,54,155,114
237,338,149,81,73,61,156,115
220,328,143,86,73,57,175,119
216,346,135,85,79,59,187,112
212,333,127,87,78,58,170,97
210,312,113,78,76,59,171,104
192,273,106,74,70,53,152,92
198,327,119,74,64,50,142,91
223,305,130,79,54,46,134,103
219,262,119,77,54,45,153,108
187,243,118,77,52,40,159,106
222,269,114,99,68,40,164,107
232,244,105,97,78,51,171,116
217,263,113,92,77,52,164,110
214,268,121,96,78,52,152,108
217,297,124,108,84,55,143,101
197,279,132,86,71,57,148,108
183,255,141,81,61,51,131,106
188,254,125,87,67,49,163,142
198,271,127,86,63,46,152,136
204,239,126,71,62,50,153,139
205,235,118,71,63,49,136,137
231,236,100,81,64,49,146,134
216,224,105,78,67,51,128,119
210,199,93,75,70,57,142,124
235,200,107,78,67,54,145,151
213,199,109,83,65,50,153,149
193,226,132,85,66,50,153,148
199,220,140,86,64,50,148,132
215,244,168,83,60,46,148,133
214,252,158,85,60,48,176,112
222,258,159,86,77,60,176,126
230,221,159,76,75,59,179,131
235,232,158,77,76,60,177,131
224,287,140,79,77,61,176,127
208,288,148,88,76,60,145,127
213,297,154,85,72,54,162,135
202,310,129,85,74,55,146,129
193,296,124,86,73,55,134,130
241,224,114,83,74,56,152,148
226,209,118,66,78,60,164,141
239,192,104,69,71,57,136,114
241,192,106,73,66,56,148,115
246,188,101,68,66,54,179,120
211,182,98,76,70,60,172,97
238,205,78,81,67,58,179,124
228,241,97,79,66,63,194,133
223,223,105,77,67,62,204,143
206,225,105,79,61,59,189,141
189,229,119,82,56,53,179,155
159,222,125,84,53,50,173,148
141,183,117,86,59,49,168,150
138,253,123,99,69,63,155,145
177,277,131,102,70,65,143,140
183,277,116,95,68,61,146,131
171,269,110,92,69,62,136,113
171,287,129,101,69,60,139,105
186,246,124,86,60,48,134,103
156,228,120,86,69,51,174,105
144,238,129,95,68,53,180,104
163,231,127,94,71,52,188,109
166,211,109,93,68,51,183,112
147,195,106,98,66,50,177,103
144,196,118,95,62,51,144,108
151,186,111,109,63,49,143,105
131,184,112,117,59,48,118,98
131,232,115,128,63,50,109,87
143,234,119,138,64,53,120,109
147,230,107,144,70,54,137,128
179,229,106,129,72,58,132,125
186,240,105,121,71,57,136,125
188,197,101,109,73,55,136,125
191,179,94,98,75,54,130,112
199,169,91,90,67,49,128,86
191,174,94,90,67,49,147,96
186,165,100,98,75,57,166,115
184,206,116,99,72,59,174,120
178,251,130,114,73,63,178,119
162,252,125,109,71,62,170,117
131,244,120,113,67,58,152,107
130,238,111,113,56,55,134,88
119,195,90,144,57,55,126,87
120,137,66,136,53,50,133,106
138,136,71,152,61,52,133,114
158,167,79,151,64,53,133,115
164,183,106,149,68,52,167,143
218,216,118,118,64,49,182,147
210,219,117,122,65,49,180,133
215,301,161,104,65,51,209,148
212,303,169,98,68,56,207,150
206,309,157,102,68,57,181,134
152,295,162,95,69,55,169,134
172,301,166,81,68,56,181,143
165,227,131,78,64,53,149,122
150,211,123,87,59,48,150,117
160,200,133,81,54,43,158,108
171,188,126,96,54,46,159,100
168,175,121,95,53,41,166,89
166,178,116,117,57,43,162,80
164,176,113,130,63,43,157,79
164,176,103,129,68,45,165,108
168,195,96,119,68,44,167,114
154,213,95,130,69,46,140,118
157,205,96,117,71,53,148,129
180,216,107,106,71,56,185,157
187,246,111,108,81,70,165,140
172,233,105,123,89,76,161,133
175,233,113,110,90,75,187,165
172,236,110,109,86,71,180,170
186,232,96,116,82,69,163,152
174,204,85,133,75,56,167,151
188,210,92,121,67,49,173,166
188,195,83,123,76,57,154,129
202,258,90,124,72,53,151,113
203,248,87,117,75,55,134,110
217,246,90,94,73,61,140,118
211,249,89,89,69,63,142,107
254,250,86,91,68,61,131,118
237,198,94,96,80,67,135,117
209,245,118,102,81,68,155,124
214,245,119,101,77,61,156,120
223,237,117,111,79,57,148,121
188,240,121,110,78,56,143,117
221,248,113,100,68,51,157,128
229,212,104,80,62,48,132,116
223,221,118,96,61,46,123,115
212,212,122,82,61,52,133,109
226,233,128,81,58,52,137,102
193,217,128,86,57,51,112,96
186,262,142,95,59,52,125,100
186,253,139,95,63,55,157,105
185,266,145,100,74,58,161,103
140,243,142,104,71,56,182,105
168,260,143,101,71,56,181,93
185,234,119,105,69,52,180,100
171,228,111,107,67,52,149,87
181,233,107,107,56,49,148,93
193,235,111,105,56,50,130,87
197,213,113,111,57,51,136,94
181,216,112,104,58,52,131,85
176,235,111,96,59,51,138,94
160,214,106,97,67,56,128,92
163,258,110,100,74,55,114,96
157,265,101,94,73,56,115,97
150,237,108,91,76,60,119,101
160,223,112,85,75,58,149,99
171,243,117,91,67,50,155,107
162,192,103,88,55,47,167,110
153,177,119,95,53,45,167,108
174,206,112,100,58,49,181,123
190,232,111,96,65,54,164,145
204,218,107,89,61,51,161,154
216,250,108,88,67,55,153,163
232,269,100,83,69,55,147,159
218,250,99,95,63,51,126,144
206,232,94,96,64,53,144,135
186,266,96,93,66,57,150,126
178,232,111,99,64,57,142,113
163,243,103,95,73,60,144,114
182,277,106,80,70,59,165,120
182,276,111,80,68,58,145,101
194,278,124,93,75,61,138,87
209,316,118,98,80,63,140,87
206,310,126,102,77,62,160,99
197,282,139,111,77,63,147,108
215,315,147,125,77,59,152,130
219,305,135,129,69,53,149,133
209,275,151,150,70,49,159,132
207,307,155,163,82,63,170,152
212,372,171,181,93,73,181,173
201,368,195,183,96,75,182,168
211,363,203,183,101,78,190,170
216,394,218,163,100,82,192,181
245,486,234,166,108,88,172,162
291,456,220,149,103,85,149,142
289,494,203,139,103,86,151,152
291,535,203,140,106,90,155,153
294,527,170,155,110,94,151,141
260,414,134,149,99,83,158,143
217,482,154,147,99,79,172,147
233,441,153,149,98,76,179,151
209,386,160,146,104,78,169,142
204,383,172,126,99,75,175,151
218,383,182,110,93,69,176,147
202,283,160,115,95,72,175,130
191,294,163,129,93,71,152,95
186,300,153,133,83,64,148,100
178,275,141,134,88,62,146,88
