74,256,25,32,253,75,73,48
75,257,24,31,253,79,67,42
62,238,24,33,237,70,70,41
59,171,23,34,177,68,74,40
57,160,21,36,149,72,62,35
53,141,20,37,146,87,72,35
51,130,21,40,136,93,80,37
53,107,23,37,130,92,80,41
64,100,21,40,119,95,78,40
65,109,23,36,115,91,81,43
66,122,23,33,116,74,72,38
69,116,23,32,137,64,66,39
71,122,21,32,148,66,67,39
60,124,23,28,144,69,67,39
55,135,21,31,164,70,70,40
61,133,21,32,155,86,76,45
62,139,21,36,142,86,83,46
60,159,22,36,157,85,82,43
62,166,22,38,175,91,89,42
68,158,20,36,166,91,85,40
65,155,20,38,164,76,80,37
61,151,19,37,159,75,75,33
63,127,19,36,133,73,73,36
61,125,19,38,116,57,68,38
62,129,21,39,102,56,69,38
62,129,26,40,97,60,71,39
69,132,25,40,93,64,66,40
66,131,25,41,100,70,66,45
77,125,25,38,108,72,62,47
73,125,24,36,108,82,61,46
72,120,21,37,112,89,78,51
65,111,22,36,116,90,83,52
80,143,23,34,132,83,84,45
72,161,24,34,150,81,82,42
71,158,27,37,153,76,83,44
74,162,27,39,155,76,71,42
88,171,26,38,159,72,66,40
76,144,25,40,150,76,68,40
75,121,24,40,126,80,73,40
74,111,20,35,135,80,67,38
87,111,20,29,134,77,61,34
71,109,21,29,136,75,59,31
69,110,23,27,125,73,53,34
68,109,23,30,126,69,51,35
67,117,23,33,115,69,61,40
44,113,23,41,128,64,67,40
48,203,22,42,217,75,73,41
48,233,21,43,253,80,73,37
50,255,22,42,263,85,80,36
50,267,23,41,274,88,87,36
48,277,23,35,274,94,82,37
58,220,25,33,209,96,77,36
61,187,25,36,177,92,84,41
59,159,27,35,160,91,76,43
59,130,26,35,144,94,71,40
61,109,25,34,133,89,75,43
47,105,23,35,125,228,78,46
44,104,24,33,108,278,83,47
66,108,23,35,125,280,90,48
73,106,23,38,123,279,84,49
73,100,25,39,117,277,79,46
97,96,24,38,122,178,78,45
99,99,25,37,126,85,72,41
87,90,23,34,108,81,67,36
82,93,22,36,109,78,66,35
95,109,22,34,116,80,74,42
72,109,28,35,114,85,78,41
71,105,28,35,110,85,76,40
76,114,28,38,118,80,73,43
78,119,28,34,115,76,79,44
58,115,28,35,115,79,84,40
57,119,23,34,131,67,83,41
69,118,22,35,132,66,79,44
66,109,22,34,121,67,87,44
65,101,23,34,122,68,84,47
64,99,22,36,135,70,80,46
70,96,21,37,118,71,73,42
61,100,22,37,115,71,89,40
60,102,22,37,123,70,94,36
59,110,23,39,135,73,100,34
60,104,22,38,123,68,97,36
52,107,21,36,125,73,104,35
53,105,23,36,127,70,95,36
55,99,24,33,122,68,84,37
55,96,22,32,108,67,85,34
70,104,25,32,111,75,93,34
71,113,26,33,136,73,91,37
69,113,24,32,147,79,99,37
68,115,23,33,148,86,109,41
67,112,25,35,152,83,104,42
48,109,24,36,153,76,96,44
48,106,21,40,136,73,100,48
60,107,25,45,125,72,88,47
60,111,26,45,126,74,85,48
66,118,25,41,117,73,84,47
78,119,27,41,105,88,95,45
78,119,29,37,100,85,87,40
69,118,26,33,103,84,91,41
70,119,26,34,109,83,98,42
72,117,27,38,112,85,98,45
62,119,25,40,127,73,92,47
66,120,25,40,128,74,92,46
67,119,25,39,118,70,88,45
65,121,24,38,109,59,74,43
63,120,22,42,130,57,77,47
62,115,24,44,125,50,81,50
65,110,28,50,126,53,94,55
67,114,28,52,134,64,105,57
66,106,28,55,135,70,112,58
61,106,30,56,133,83,124,58
64,108,29,53,124,89,122,59
60,107,27,50,133,87,115,56
54,110,26,47,125,84,108,56
55,118,30,54,133,87,121,60
61,119,28,53,123,78,105,60
54,112,28,53,135,75,103,55
53,107,27,50,118,80,100,55
56,103,28,53,125,77,98,54
53,98,29,42,126,72,75,49
44,108,31,42,123,78,91,46
56,114,33,48,116,89,106,55
54,117,33,52,120,86,108,57
61,118,32,49,138,85,110,61
69,112,27,48,138,85,107,60
70,103,25,44,140,80,97,60
66,97,23,39,151,75,82,56
67,105,24,38,156,74,79,54
63,106,28,44,141,94,90,53
57,127,29,45,132,96,97,57
60,126,29,45,122,90,95,52
63,128,29,44,112,89,98,55
65,119,29,43,102,96,104,56
69,148,25,37,143,84,96,54
71,147,24,44,167,77,93,51
73,150,22,46,180,88,102,53
69,152,23,48,187,86,95,52
70,154,22,48,187,85,98,50
65,119,23,48,163,83,101,50
65,101,24,44,137,86,100,54
64,91,26,43,123,77,88,55
77,87,24,39,108,69,88,54
74,87,26,38,107,67,80,53
77,88,26,43,114,69,79,52
81,93,26,41,118,68,78,46
80,97,23,41,125,78,85,50
71,101,26,41,125,95,95,46
83,114,26,40,128,95,95,48
82,119,27,35,120,95,92,47
78,110,27,35,118,95,86,48
81,108,31,38,120,95,86,43
88,106,30,40,128,86,72,48
78,95,30,43,126,81,71,53
84,91,31,45,126,74,66,60
94,92,31,50,132,76,67,58
92,91,29,47,127,68,61,57
84,89,28,48,120,62,66,56
88,87,27,47,148,65,69,51
83,84,26,48,152,69,77,46
67,84,28,45,144,67,77,48
70,90,27,43,147,72,79,51
72,92,25,40,148,69,76,48
66,96,25,39,129,70,71,46
65,104,25,32,208,71,67,42
67,107,23,28,242,67,66,41
63,107,21,31,251,65,64,42
66,109,22,32,258,76,75,41
63,98,46,30,253,71,78,42
59,91,185,32,188,66,72,41
64,89,272,33,189,79,82,42
64,83,289,34,207,76,80,38
57,73,290,33,251,67,76,38
66,80,287,35,278,67,70,37
72,79,225,37,278,75,73,37
70,79,102,39,254,62,60,38
72,85,36,36,243,71,72,43
85,96,28,40,186,75,73,47
79,90,24,40,167,78,78,49
78,93,17,41,179,76,81,49
75,94,18,43,186,87,87,57
73,95,18,44,176,78,79,55
67,106,16,41,218,75,75,56
73,106,18,42,205,85,83,56
71,108,21,39,241,87,84,59
94,115,23,41,239,84,86,69
93,112,25,39,234,85,87,69
89,103,26,39,197,86,88,67
93,106,26,42,210,80,79,69
96,104,25,43,154,76,79,68
75,93,23,40,173,71,80,50
84,93,23,42,170,71,79,49
92,82,22,42,192,72,79,50
85,84,23,38,180,77,78,43
83,84,24,43,203,79,81,44
86,87,23,40,186,77,80,47
87,90,23,39,198,81,83,54
76,93,26,40,214,79,83,55
78,87,25,40,213,74,84,58
96,115,26,36,232,73,82,61
95,112,26,34,226,70,73,57
89,107,26,36,234,79,71,55
97,108,26,45,267,88,87,53
98,122,25,43,275,85,88,55
86,97,25,44,249,89,104,59
98,102,26,47,271,90,109,64
99,112,27,46,252,79,110,63
93,108,25,36,178,69,100,64
87,93,25,40,347,71,98,61
79,142,24,34,423,67,82,54
70,223,23,38,662,71,81,51
60,224,22,38,671,70,79,51
57,227,21,37,684,68,73,48
57,235,23,35,629,65,71,50
83,222,24,37,583,67,66,53
81,143,25,33,281,66,65,52
86,135,24,34,267,77,75,53
93,137,24,37,237,79,80,54
95,130,24,36,194,83,95,59
78,114,22,34,182,88,100,56
73,105,23,34,158,86,99,55
97,120,23,37,151,74,89,54
91,122,22,33,154,73,87,52
96,120,23,34,143,68,76,50
99,116,22,34,142,58,69,52
101,121,23,34,139,60,67,52
72,105,22,30,141,73,75,54
79,95,23,33,141,75,77,60
75,95,21,35,148,79,74,57
65,90,22,35,152,81,71,56
65,91,21,33,155,86,81,56
75,93,23,36,154,80,77,55
73,97,24,42,160,78,74,49
69,93,24,41,142,78,81,47
70,89,24,43,133,77,82,46
66,91,24,44,130,82,91,45
60,86,24,42,124,85,93,45
60,82,21,36,163,89,99,53
64,87,21,37,183,85,95,57
64,86,23,35,207,88,99,60
64,80,21,35,211,80,83,60
64,93,21,34,212,78,83,61
58,94,22,33,176,82,84,66
69,93,22,28,161,83,86,65
71,103,22,30,136,83,104,65
74,108,23,30,136,82,121,69
78,110,22,32,134,86,124,68
86,116,24,33,129,81,119,62
72,111,23,34,125,82,115,62
79,106,24,35,117,87,99,60
82,109,24,38,140,99,81,57
76,108,23,36,146,97,69,56
74,111,20,37,154,97,75,58
79,113,21,40,170,114,83,57
75,111,20,41,197,118,87,61
71,116,22,38,190,108,84,58
73,109,24,40,186,107,86,60
71,99,24,38,183,112,89,56
70,103,24,37,180,102,85,58
70,103,26,36,157,105,78,59
73,94,25,42,159,107,85,69
100,109,25,40,162,119,84,84
103,108,26,43,165,113,78,92
103,113,26,43,156,108,76,90
107,119,26,46,164,108,79,86
116,116,26,41,149,111,76,81
100,103,24,43,154,97,74,66
98,104,25,41,157,102,72,54
101,101,26,38,160,98,70,53
97,97,24,36,149,99,70,59
102,102,25,34,150,102,70,57
121,116,28,35,144,100,72,56
131,129,29,40,141,99,85,55
128,132,26,41,190,151,110,63
140,135,27,42,204,154,112,57
128,133,28,44,216,153,110,57
105,130,26,44,225,164,114,59
110,120,26,42,228,165,106,64
109,113,27,41,188,119,84,59
91,107,29,37,169,108,78,64
91,108,27,36,150,119,83,61
94,105,28,35,140,111,81,62
70,108,28,34,133,104,81,63
76,108,27,36,133,113,80,59
74,105,26,39,134,114,86,61
79,110,26,37,147,103,80,63
81,110,27,40,158,106,83,64
83,105,31,44,181,117,81,57
78,113,40,48,204,130,85,60
94,115,42,51,214,129,81,64
92,108,41,52,213,137,79,61
89,108,41,53,212,134,76,60
88,109,38,47,189,125,74,67
88,106,33,45,165,111,75,71
77,110,29,38,157,112,75,62
77,116,30,39,152,96,76,63
75,111,29,35,144,111,78,74
80,125,27,34,152,119,80,67
90,138,26,34,149,113,73,68
91,161,25,38,180,126,74,70
93,162,24,38,175,134,82,68
93,158,23,37,177,115,82,62
84,145,23,40,171,111,85,59
79,131,21,42,181,108,88,57
75,92,21,43,173,93,87,53
73,85,25,44,187,92,80,53
86,97,25,41,189,113,82,42
89,96,27,41,198,124,79,47
81,87,26,37,199,125,73,42
83,90,28,36,196,125,71,44
88,82,25,38,191,123,72,45
80,71,23,39,181,104,69,51
90,93,21,44,189,102,83,49
94,109,23,47,187,105,86,55
92,127,21,43,191,97,82,55
84,132,22,45,189,92,80,55
79,137,26,51,208,96,83,58
63,128,24,46,206,95,73,57
127,138,27,43,207,102,76,60
127,129,28,46,189,103,81,65
129,129,28,44,197,99,84,65
141,131,27,39,176,92,78,60
141,129,27,42,173,80,71,66
89,112,23,42,201,65,66,60
89,107,23,40,196,68,62,57
90,108,22,44,197,66,59,58
76,101,21,44,203,69,61,55
74,97,22,40,194,66,74,49
80,102,21,38,162,65,79,49
86,108,19,38,170,87,90,48
82,105,20,31,161,104,93,47
88,113,20,34,167,104,92,53
87,117,23,39,165,105,84,59
79,112,24,41,184,109,82,64
78,107,24,42,185,93,68,62
79,116,26,40,182,85,62,61
70,110,26,36,175,93,75,57
87,115,24,33,178,106,80,50
86,111,22,31,178,110,84,39
80,113,24,39,175,109,86,36
87,110,21,45,172,100,84,38
86,106,20,45,171,93,73,38
71,100,21,43,177,88,64,37
87,107,22,43,158,87,62,41
98,102,19,35,158,91,62,46
90,91,20,31,157,91,60,44
91,94,21,32,172,97,62,45
99,97,21,35,171,92,71,49
92,88,22,42,166,88,67,51
87,86,22,42,167,84,68,56
86,95,22,43,194,86,70,61
89,98,23,47,176,90,74,60
81,97,22,46,189,88,68,57
75,98,21,39,197,85,66,54
69,101,20,39,193,85,66,47
71,102,21,40,188,86,64,43
72,95,19,35,185,75,57,43
70,98,19,33,167,74,57,45
67,99,21,35,165,75,58,45
68,100,22,35,163,68,54,47
63,93,21,35,147,68,59,48
52,93,22,38,166,75,57,46
50,91,22,41,168,73,56,47
53,93,21,41,155,79,58,47
55,99,20,44,178,100,59,46
60,101,21,41,178,101,56,44
72,102,22,42,165,96,63,51
75,103,23,39,161,99,64,50
75,102,22,39,164,113,69,51
82,96,24,33,142,101,66,50
79,92,23,34,135,96,71,49
72,105,24,29,153,96,71,41
74,107,23,32,153,92,69,46
78,110,24,29,161,80,69,46
76,118,21,31,211,76,72,48
80,138,21,32,233,75,69,52
78,144,20,39,249,79,68,54
75,138,20,38,254,82,66,51
78,141,22,43,255,74,58,52
73,137,21,44,225,79,60,51
69,117,22,44,206,82,56,45
72,96,22,39,170,75,52,44
68,96,21,38,160,71,61,49
88,93,20,35,150,79,68,46
90,89,21,33,172,75,65,47
91,92,21,33,171,73,70,51
93,95,22,33,171,73,71,52
104,104,22,34,168,72,62,48
82,99,23,32,168,71,58,51
78,98,22,33,146,75,63,50
79,99,24,33,151,81,66,56
74,99,23,35,152,78,65,53
66,91,25,36,154,81,64,52
68,87,24,36,154,75,63,49
72,82,26,36,148,69,57,50
76,79,25,36,141,62,46,41
80,84,27,34,148,95,57,42
90,86,25,35,146,102,73,44
94,92,27,40,149,100,78,47
100,92,25,41,139,112,81,48
98,93,24,40,131,112,84,51
94,89,25,44,154,96,87,53
82,86,24,43,161,93,78,53
81,80,23,39,156,91,73,52
74,84,25,38,158,91,77,50
71,81,26,40,160,94,76,50
74,84,26,36,144,103,72,50
76,88,27,37,167,109,74,54
75,89,28,38,169,116,84,57
73,85,26,37,177,108,80,56
73,89,30,43,186,109,88,57
70,90,29,42,183,101,87,56
71,87,28,44,169,99,86,55
69,86,29,41,169,94,74,51
72,84,28,42,162,96,71,52
77,85,24,35,158,90,60,48
96,88,24,36,160,98,59,52
95,95,24,34,152,93,59,58
104,103,25,37,163,100,70,64
102,101,24,35,164,98,74,64
99,105,25,35,161,101,73,69
86,98,24,33,159,87,73,66
83,90,26,33,153,97,76,57
70,92,24,33,166,92,70,52
71,96,28,44,173,95,71,56
68,94,33,52,185,102,80,50
62,92,34,55,185,117,102,58
66,94,36,56,218,115,101,59
72,92,47,70,217,112,100,60
68,95,54,68,228,124,102,61
76,92,54,68,223,122,95,62
100,104,58,72,221,133,76,58
103,111,60,76,213,141,89,60
110,109,59,97,203,166,114,61
116,106,62,105,200,162,120,74
118,120,67,110,202,170,129,74
110,130,78,140,215,176,133,74
111,132,85,141,222,182,126,76
108,151,93,135,257,167,110,79
114,189,108,152,367,181,115,74
123,303,120,157,510,190,119,83
122,364,117,144,608,183,139,87
122,381,151,173,671,218,178,100
129,380,159,182,690,220,181,100
132,369,154,181,653,209,176,94
132,283,147,184,566,214,174,94
158,230,158,196,484,218,160,97
172,218,125,173,408,199,142,94
170,211,120,166,367,194,137,95
168,222,134,184,351,198,135,99
162,223,138,187,338,175,134,90
141,188,129,177,292,154,134,87
120,161,125,183,271,133,120,85
122,172,130,179,251,156,127,86
165,190,123,152,256,190,166,87
170,190,118,144,271,210,171,91
164,194,116,141,295,220,175,95
166,205,123,151,321,226,177,93
158,205,109,151,333,231,182,100
118,165,96,148,331,206,150,104
150,173,94,140,304,198,156,126
150,199,105,150,354,196,158,125
153,242,106,141,518,198,155,124
150,244,123,163,576,187,147,119
141,262,127,175,605,189,150,118
88,268,129,180,670,192,138,98
100,245,122,165,663,204,142,99
94,209,122,168,579,202,148,93
102,200,102,140,531,190,147,98
107,181,97,136,536,191,143,94
117,155,92,134,457,181,140,90
131,200,95,134,447,171,141,85
140,224,150,144,587,170,142,90
140,237,162,151,605,179,148,79
159,283,192,147,598,171,153,82
175,331,200,163,657,191,163,84
156,320,199,167,649,185,151,93
157,319,168,163,498,167,143,98
168,319,175,180,513,176,145,108
152,314,141,180,534,173,140,108
136,305,134,167,485,158,132,111
141,315,132,170,479,159,134,103
142,318,130,173,442,193,155,108
138,314,108,148,378,186,151,109
163,309,104,152,279,198,153,127
169,276,100,156,223,232,171,133
167,290,106,152,241,238,171,137
171,290,90,126,287,220,150,133
171,312,85,129,431,220,147,124
141,316,89,116,565,209,141,110
126,308,92,120,600,159,117,112
123,269,89,109,600,178,146,116
106,243,90,119,605,180,144,117
123,212,99,121,531,186,155,126
123,160,106,129,433,186,169,124
122,179,117,133,380,198,170,116
147,180,114,142,350,166,147,112
144,174,120,148,307,148,142,112
122,180,116,140,270,145,145,115
125,182,112,137,211,152,136,120
140,168,103,130,228,153,136,116
120,159,97,123,232,157,133,108
128,150,88,115,246,175,146,106
122,128,90,133,266,176,153,106
130,136,113,155,250,188,163,94
142,157,112,156,240,176,159,97
137,158,122,162,302,190,171,101
156,173,130,173,335,190,170,101
161,185,125,162,328,203,156,104
153,190,99,137,457,201,148,111
149,207,97,135,579,205,168,120
155,234,88,129,632,202,168,124
141,240,81,118,622,235,169,121
149,247,111,120,642,218,164,109
151,235,115,117,587,209,164,116
134,212,116,110,486,247,177,106
154,205,127,118,394,235,168,110
156,196,127,130,391,200,165,109
152,188,110,131,369,223,176,131
147,185,109,131,325,227,169,126
149,188,118,133,311,201,149,131
170,212,116,134,310,212,169,137
167,246,130,123,431,207,170,146
172,315,126,125,497,175,161,142
185,378,124,124,604,161,160,140
182,403,127,127,657,141,148,137
139,412,116,132,694,141,150,133
163,419,93,120,648,161,154,129
162,372,88,113,613,173,161,117
150,313,100,134,524,200,199,110
183,278,85,129,444,190,203,111
189,235,91,119,379,212,214,116
182,193,93,121,331,190,208,128
177,174,99,138,312,188,207,145
178,172,132,132,347,179,184,152
147,183,133,145,357,193,186,146
161,179,131,147,338,161,153,142
152,185,137,162,346,168,150,135
156,189,137,167,314,175,161,116
162,185,98,163,229,178,160,109
161,201,94,155,243,174,151,110
135,209,91,149,254,175,143,100
128,227,82,135,537,179,143,94
120,245,77,118,605,211,145,94
112,250,71,113,645,204,140,99
111,250,72,116,646,194,145,102
107,238,83,127,687,195,148,102
111,212,116,145,482,193,153,105
114,205,135,159,402,161,142,99
113,207,139,155,366,185,129,99
139,174,138,148,355,202,127,98
142,178,139,153,270,201,149,101
135,172,122,153,271,193,142,94
162,177,112,138,287,201,153,107
173,186,121,152,252,180,166,117
156,189,126,150,259,194,169,123
159,194,160,156,333,217,157,122
160,210,160,158,355,222,157,131
136,209,154,155,360,214,137,124
140,206,163,163,362,207,132,118
160,225,173,176,368,190,132,113
159,217,139,156,322,170,123,116
160,207,160,172,418,181,123,108
174,283,157,170,586,190,124,109
159,299,141,151,607,187,109,101
131,287,131,141,658,183,112,99
134,307,135,149,651,176,119,90
129,303,121,127,618,183,119,97
119,250,134,138,496,175,127,93
113,217,136,142,519,179,127,96
128,228,160,200,465,203,123,120
127,228,158,209,578,229,116,120
147,264,149,211,595,224,123,112
136,261,136,209,579,219,114,114
151,316,150,237,577,212,118,108
151,318,120,204,585,184,112,86
155,305,116,186,466,149,127,99
142,273,106,174,424,146,132,100
146,265,111,168,404,135,128,95
135,245,92,124,342,151,140,96
152,266,102,129,380,173,154,94
145,293,107,143,479,182,148,85
139,334,117,159,492,181,153,83
153,327,118,166,512,187,160,90
155,304,112,168,547,178,150,89
129,285,103,153,510,156,137,87
155,256,109,155,431,145,132,97
152,192,109,143,384,152,120,104
128,183,106,133,349,173,135,116
140,168,118,133,296,172,133,121
143,149,127,124,257,173,135,128
141,159,119,121,235,194,138,122
140,156,120,120,229,194,138,114
147,153,118,117,199,174,135,104
137,179,107,116,277,194,153,104
151,191,93,141,333,204,162,99
136,308,89,130,534,190,161,96
146,321,74,134,569,190,162,97
148,338,113,157,587,191,152,87
140,328,126,181,562,188,140,84
121,330,141,183,542,186,129,79
109,211,148,188,361,179,125,79
93,192,151,191,347,161,117,77
94,163,128,174,327,167,112,88
95,156,131,161,329,143,101,80
105,136,133,148,328,146,109,92
116,146,132,148,318,177,117,98
121,148,132,140,283,195,125,102
109,152,138,137,271,185,123,94
110,170,135,120,314,187,128,100
100,220,121,130,537,183,118,99
98,237,119,133,595,158,126,91
109,252,117,137,612,144,126,92
145,259,112,148,661,158,130,104
151,243,97,156,651,165,131,105
155,219,99,157,531,175,140,111
150,207,94,152,483,175,124,119
143,210,96,149,484,171,114,118
116,202,96,156,471,154,108,110
120,208,114,159,656,178,113,106
139,220,112,148,809,178,108,92
147,250,113,141,932,189,129,86
147,267,109,138,987,198,147,89
140,298,112,138,1094,206,145,86
137,299,100,156,1014,207,143,84
115,282,99,154,865,206,145,81
119,255,140,169,740,191,128,88
115,215,143,180,654,182,123,78
112,173,161,179,405,194,128,78
120,171,166,161,442,168,118,89
119,156,164,168,456,148,118,103
118,142,128,169,422,155,122,101
135,156,125,162,419,152,111,117
140,146,89,151,411,160,116,121
130,150,84,149,292,157,122,123
136,157,82,141,271,155,112,132
134,160,84,129,268,162,138,135
128,159,92,127,264,180,153,124
121,170,113,128,255,170,165,122
121,174,104,116,243,170,163,115
114,176,104,112,311,189,172,101
112,172,100,105,387,182,157,90
117,177,109,99,398,174,148,92
125,201,87,109,539,163,128,88
122,226,85,116,624,169,138,88
117,245,82,113,636,155,132,73
105,252,82,119,664,147,121,74
105,261,84,150,679,127,121,68
103,252,92,148,590,126,130,85
109,229,101,143,546,125,118,84
110,207,103,144,506,141,135,85
115,203,104,134,416,144,136,103
98,173,90,108,395,148,128,101
120,167,88,95,376,147,136,89
122,162,76,101,325,150,154,112
126,192,69,94,377,192,200,117
126,228,83,110,584,207,208,103
144,314,91,109,594,221,222,108
136,335,83,115,663,224,221,116
135,370,85,110,688,232,224,94
139,373,101,123,700,188,178,91
144,368,114,161,546,213,183,108
152,329,113,156,546,200,165,119
147,321,128,194,500,208,178,134
145,282,146,217,502,228,207,138
148,267,141,217,448,227,203,136
146,270,124,187,431,200,189,121
119,250,117,187,397,202,192,111
115,223,101,146,335,186,177,78
113,211,79,124,262,146,123,65
102,239,82,123,283,146,126,69
86,232,77,136,302,141,135,71
104,276,82,141,527,150,134,66
96,298,90,147,620,168,127,75
93,301,83,131,679,178,135,81
92,267,78,127,684,171,132,93
94,255,94,128,702,170,118,90
102,183,95,124,552,161,113,110
107,143,91,131,464,161,113,113
105,133,92,133,366,146,94,112
106,134,93,140,339,152,123,104
111,135,90,141,282,147,129,106
97,139,85,153,289,152,147,93
99,132,83,143,264,139,150,91
118,159,112,159,279,159,156,92
123,160,126,177,264,158,130,95
124,139,122,164,257,146,120,92
129,141,122,156,252,148,97,89
129,141,122,152,248,142,91,81
113,125,102,137,207,113,75,74
124,122,86,106,179,116,74,73
121,125,82,113,173,150,85,78
104,126,77,109,187,142,88,74
110,125,72,106,228,153,90,70
118,143,68,115,387,157,91,69
98,212,55,105,499,149,91,64
98,229,51,92,529,124,84,56
112,241,65,99,572,131,89,64
99,238,75,113,584,118,94,69
101,232,72,103,506,119,105,71
108,182,79,103,417,127,112,67
107,158,78,110,405,130,109,68
97,147,87,115,326,122,103,61
109,153,86,126,303,128,101,66
112,144,84,121,289,119,88,72
111,127,80,119,265,110,75,72
118,134,80,116,245,119,73,73
123,124,65,116,252,125,72,81
115,130,58,91,218,120,70,78
112,122,57,97,265,130,81,81
111,135,61,101,286,148,94,85
103,134,65,95,261,140,105,83
98,131,61,82,285,130,102,75
100,120,64,91,298,138,99,75
86,114,64,86,268,140,95,72
79,123,61,89,322,127,85,70
86,242,58,92,525,127,79,69
83,253,56,93,571,132,78,67
78,300,52,80,645,117,72,63
78,311,56,85,680,104,65,53
82,308,55,82,667,93,65,52
74,226,54,92,550,107,65,53
70,224,77,117,489,98,67,54
81,163,79,117,384,104,71,51
98,151,76,115,307,104,74,64
91,142,88,117,290,115,90,70
95,143,103,133,242,100,108,71
97,137,96,118,241,97,117,76
91,128,93,120,217,93,122,84
82,117,96,122,232,111,125,79
86,120,97,125,184,110,113,74
88,118,84,106,205,110,96,75
108,106,74,105,221,121,90,71
105,103,78,115,236,124,84,62
105,120,79,131,227,105,82,73
104,110,65,125,242,101,86,71
96,108,62,124,221,108,80,70
77,104,73,127,218,96,80,69
91,158,77,123,306,94,92,73
84,193,73,109,446,100,93,65
85,201,68,113,478,108,92,73
89,219,70,111,505,92,93,75
85,233,66,99,508,99,97,94
78,217,81,112,460,103,84,93
79,177,82,122,349,103,93,89
79,172,84,123,323,91,93,85
78,155,94,139,286,107,93,84
78,141,97,141,292,114,89,61
69,119,82,130,286,106,85,65
64,131,84,114,267,125,85,68
61,126,91,111,251,130,93,67
65,123,82,85,245,119,92,67
73,140,82,77,224,110,90,68
77,135,77,79,220,110,94,64
88,125,75,78,205,97,88,83
91,135,66,78,179,106,90,89
90,127,67,84,172,109,91,89
86,102,56,84,157,105,86,88
94,110,60,72,163,127,87,91
90,140,60,73,260,116,90,72
89,221,59,78,392,115,82,61
88,240,58,84,458,113,81,58
84,248,56,85,472,114,84,57
83,254,53,88,489,101,90,49
87,244,48,86,453,109,97,45
86,171,52,74,358,103,96,65
87,150,57,70,284,116,106,68
91,143,55,63,282,125,103,69
86,128,55,65,252,115,95,71
84,121,57,73,231,109,85,73
83,116,67,92,215,104,85,59
83,111,61,83,211,91,78,59
80,111,62,86,202,85,78,62
78,112,61,85,199,92,79,61
71,113,59,80,211,97,84,60
75,122,51,64,200,95,84,72
82,125,53,85,204,116,83,76
84,131,62,93,186,116,83,77
97,137,65,121,208,111,84,79
102,143,75,126,194,125,84,84
98,152,69,126,284,136,90,78
97,213,76,131,394,121,88,73
97,235,74,128,451,123,95,71
89,253,87,106,469,125,97,72
83,248,78,101,475,104,86,65
94,246,78,98,431,96,76,65
87,197,69,72,341,104,79,64
95,167,66,84,268,99,76,63
92,136,50,82,221,103,70,58
95,138,64,100,209,109,74,61
90,123,69,100,220,112,84,64
99,128,72,107,182,105,85,66
95,115,68,94,168,111,82,67
95,120,77,94,169,117,103,69
89,120,70,87,175,109,100,70
86,123,64,85,167,106,95,67
74,108,59,80,175,102,91,63
79,116,61,84,176,107,89,63
71,107,48,86,172,100,68,62
83,115,45,80,166,100,66,61
87,117,56,90,186,116,65,58
105,133,55,89,198,117,62,61
114,156,57,99,288,105,65,74
117,212,60,102,489,104,65,74
122,244,62,100,555,109,71,71
129,249,53,92,567,89,68,72
121,264,66,94,580,88,72,72
113,255,64,84,558,90,77,64
130,224,72,98,397,89,76,66
122,189,75,99,320,86,76,71
110,182,77,102,282,91,77,69
108,154,70,102,241,98,77,65
98,141,69,96,209,109,82,61
70,119,56,69,209,114,90,54
83,123,48,64,210,115,87,52
88,120,45,58,205,109,92,63
90,114,40,55,227,106,89,67
92,115,44,82,249,88,75,63
97,118,41,84,251,78,66,64
85,108,44,83,237,86,64,65
80,109,42,80,242,82,54,55
73,119,44,85,227,80,63,51
71,119,37,69,195,88,75,57
72,139,38,77,263,101,74,59
97,233,42,86,444,99,82,66
98,251,45,102,483,107,85,65
98,265,57,100,510,110,84,69
102,268,63,100,529,110,89,69
101,264,66,98,527,107,92,69
83,195,74,95,376,104,87,61
92,171,84,99,353,110,91,62
97,138,76,98,342,104,88,66
100,138,78,100,315,97,78,65
102,139,90,106,261,106,90,63
100,131,87,104,269,102,89,65
95,140,81,126,271,95,91,64
88,139,80,131,241,95,95,58
91,143,79,127,264,111,110,59
91,146,64,121,332,117,111,64
99,185,69,145,490,128,118,63
96,213,68,118,524,125,116,64
112,225,69,111,528,128,115,62
105,233,68,113,540,129,101,58
104,233,65,108,502,121,90,57
93,204,53,71,356,110,79,63
92,198,49,65,323,109,73,62
69,224,51,69,339,112,71,63
82,225,45,68,336,96,70,64
87,226,46,72,344,87,65,62
89,223,49,81,353,96,68,64
99,201,49,83,313,98,74,63
101,172,45,84,315,103,75,67
90,175,58,89,306,111,82,73
79,189,60,86,319,125,100,77
83,205,68,82,324,123,101,69
73,244,69,79,376,122,96,74
81,272,72,78,402,117,97,67
82,299,64,82,417,118,98,66
82,293,62,86,406,99,79,59
81,286,46,78,383,92,75,63
80,250,43,79,322,91,77,57
69,215,42,86,249,87,72,65
67,156,40,77,187,81,77,58
76,144,46,81,177,96,91,59
75,136,50,83,196,103,113,61
76,136,63,98,207,104,124,62
78,122,65,93,220,103,126,61
89,113,65,91,221,97,125,62
87,104,64,91,212,83,114,61
83,97,68,102,194,73,91,57
91,89,65,87,195,70,73,56
96,164,66,82,317,66,71,53
84,201,71,98,380,67,51,57
84,212,98,111,425,74,52,58
90,345,114,140,590,84,59,61
82,375,116,142,642,90,60,63
76,353,114,160,607,102,56,63
81,341,116,152,575,113,68,62
85,342,103,158,561,118,76,66
95,218,82,144,383,112,73,67
103,166,80,143,276,107,77,72
102,175,97,138,253,98,78,69
103,166,95,147,246,87,74,68
101,153,85,128,202,67,63,67
90,152,88,108,229,77,65,63
82,147,84,117,258,79,62,59
92,136,68,109,234,79,72,62
88,133,63,96,220,87,71,61
85,127,63,107,227,102,88,57
90,112,56,107,219,97,96,60
97,115,50,93,206,108,98,54
99,111,49,108,205,107,96,58
101,120,61,122,198,99,98,58
99,118,60,118,210,101,88,61
106,145,62,123,291,105,79,62
107,210,62,126,412,100,84,65
113,224,76,121,479,106,77,63
119,238,66,110,497,106,83,67
120,243,66,107,500,98,81,65
112,232,81,111,473,101,103,68
106,181,90,114,381,100,114,70
91,163,77,101,289,98,133,67
92,147,85,104,260,106,128,62
100,145,84,104,236,105,131,61
96,142,72,95,183,97,114,57
102,129,61,91,173,116,101,56
107,129,60,90,176,116,74,58
99,116,52,93,193,114,66,59
99,106,50,91,214,128,70,58
93,97,46,94,222,134,75,55
88,105,46,93,195,119,69,49
82,97,44,93,206,119,85,53
82,95,38,79,196,118,91,49
87,103,43,76,172,99,86,53
92,106,43,68,165,93,78,57
93,105,57,79,188,90,79,61
92,137,67,82,324,92,69,56
94,199,68,91,485,87,66,61
91,234,64,108,556,95,67,61
87,244,64,105,572,102,77,58
82,244,57,104,578,103,75,52
94,234,42,98,520,103,77,63
91,185,40,90,383,112,87,58
83,136,44,70,291,125,86,57
88,113,57,85,277,122,77,57
94,120,55,88,262,123,77,63
80,101,56,89,240,116,75,56
79,102,59,88,223,111,59,59
89,107,58,88,209,94,68,64
81,111,47,78,191,100,76,65
83,104,41,61,199,115,83,61
93,116,40,59,208,128,82,59
108,118,39,57,204,123,83,59
99,111,37,59,190,124,76,52
103,108,35,59,203,116,78,61
108,105,40,60,204,105,73,71
106,114,53,93,213,93,69,79
96,162,54,99,300,108,70,79
102,229,58,102,434,104,72,79
111,247,60,103,503,108,79,75
102,258,65,114,513,100,77,66
103,251,59,90,538,100,77,61
101,225,62,93,512,87,84,60
96,161,59,88,423,92,96,60
91,140,88,102,351,88,85,55
88,125,86,91,322,90,88,55
77,126,82,90,278,85,92,56
71,111,80,84,271,94,90,60
84,111,82,88,243,89,77,58
73,104,54,78,212,100,78,62
76,96,51,81,217,98,88,67
93,106,50,81,207,101,83,64
94,114,51,81,173,98,83,60
82,114,52,77,183,103,88,61
86,119,47,68,177,111,96,65
93,119,41,68,165,113,95,61
82,112,45,73,189,113,102,63
87,112,52,87,193,115,99,65
99,107,48,91,195,117,93,65
101,141,57,94,284,106,85,67
96,227,69,89,367,113,82,71
101,237,80,93,392,125,86,66
100,246,74,81,434,120,84,68
91,254,78,83,448,110,86,73
97,238,75,78,412,113,84,75
98,167,72,83,340,111,81,70
87,155,60,77,313,113,81,73
90,139,67,87,252,113,81,68
92,121,63,84,213,114,86,65
85,119,61,95,183,109,81,53
91,110,60,111,206,104,85,58
93,102,59,110,179,87,74,55
88,103,50,102,180,88,75,61
83,108,49,104,202,87,68,57
85,111,59,117,207,85,81,61
86,116,57,106,209,85,73,60
89,118,60,112,210,88,72,60
93,114,60,109,201,95,76,60
120,129,73,119,208,122,86,62
118,124,68,105,232,143,81,59
110,157,70,104,310,147,80,55
117,221,71,105,439,147,84,57
120,269,72,112,473,147,82,65
95,377,63,102,591,133,90,67
94,398,59,106,642,109,89,66
107,401,62,109,642,109,93,73
98,370,59,104,570,103,90,73
110,340,58,100,552,103,88,75
110,215,53,92,432,93,71,76
112,174,54,85,349,93,70,76
102,136,46,83,265,86,73,75
115,146,55,85,249,90,76,84
98,146,55,92,233,86,72,75
100,127,56,91,195,96,73,74
99,127,64,86,215,106,80,76
98,122,66,88,233,111,85,76
79,112,65,107,248,109,84,70
81,111,73,101,251,104,90,71
90,120,73,101,242,97,89,72
93,122,72,103,201,95,86,71
98,122,67,97,199,92,86,74
111,131,69,69,163,89,100,70
115,136,69,75,163,91,113,68
107,133,70,94,187,96,117,66
101,150,68,95,282,88,114,64
99,223,68,92,392,85,108,66
117,245,62,93,430,84,94,67
109,249,54,97,452,86,74,65
123,253,60,84,464,83,68,66
128,252,58,85,434,82,73,78
128,195,55,88,354,80,74,79
100,159,59,100,341,103,86,77
104,151,67,94,313,111,87,76
92,153,69,101,288,116,89,87
85,135,67,95,258,116,83,76
86,120,69,96,230,116,88,71
88,124,69,93,185,110,83,73
83,113,58,86,174,99,85,77
77,101,47,76,179,122,103,64
96,119,48,80,178,121,106,66
89,122,47,81,162,117,101,64
87,113,35,73,178,120,93,63
99,120,35,77,189,127,92,65
100,115,37,77,197,115,66,70
84,105,39,80,199,140,75,72
99,130,38,75,292,149,81,73
107,203,38,72,379,139,83,85
101,223,37,72,440,140,83,84
104,242,40,70,475,135,91,80
109,244,35,77,497,112,79,85
101,235,33,82,475,110,75,90
101,191,40,83,414,113,78,78
94,163,41,78,371,114,77,74
85,135,34,80,315,125,92,73
82,123,33,68,292,124,95,73
88,124,36,60,253,129,103,69
78,103,30,70,235,133,110,66
83,98,28,81,200,127,111,69
83,101,29,79,197,103,93,69
98,107,36,94,166,112,100,60
87,108,40,93,190,108,93,60
92,106,40,91,183,103,83,64
96,111,41,82,185,102,84,62
96,113,39,84,186,109,90,60
86,111,37,82,192,96,78,71
88,114,36,99,181,80,71,71
95,146,41,112,202,79,76,74
102,145,40,113,196,76,76,79
115,160,42,110,226,96,76,84
112,239,42,97,364,104,81,80
114,256,42,91,425,108,83,78
103,249,38,65,429,104,83,72
96,256,40,68,442,108,93,72
86,251,40,82,432,93,99,78
83,183,36,85,340,97,101,75
90,162,30,75,253,99,99,73
96,149,29,84,237,100,97,85
90,133,30,81,210,98,83,83
90,120,35,73,205,93,74,78
93,108,37,73,176,83,78,80
82,89,39,81,171,90,84,79
76,80,39,76,188,103,94,66
77,94,40,87,197,115,98,64
83,94,39,97,209,121,99,67
85,93,42,104,216,121,94,63
89,101,41,101,229,117,96,73
91,119,51,107,201,104,88,78
90,119,51,96,198,100,88,78
77,127,51,88,180,92,84,73
78,154,54,83,278,95,82,74
84,226,58,87,418,93,77,64
94,243,59,86,435,102,73,57
103,254,68,106,440,98,81,60
108,257,68,111,444,98,91,66
104,246,66,109,399,100,99,65
114,214,78,124,244,100,102,67
106,201,74,127,226,97,105,73
108,205,65,114,200,94,96,77
109,210,66,117,236,117,90,75
108,218,72,124,231,119,88,78
90,185,58,102,225,115,81,80
96,184,58,92,236,121,90,78
86,164,57,95,242,119,89,73
82,144,55,84,211,111,93,69
87,167,43,71,226,101,84,75
92,248,41,81,364,107,86,76
86,264,49,81,377,107,72,79
85,273,52,76,387,110,78,78
88,309,50,79,485,117,63,78
83,296,52,85,488,121,62,76
80,259,50,81,426,125,71,71
81,243,40,79,415,118,73,72
82,236,44,88,422,120,73,83
75,191,43,82,318,102,75,84
71,190,41,74,332,96,75,77
71,220,43,80,402,99,71,80
77,231,45,81,423,110,74,77
80,250,43,71,419,106,69,66
95,307,47,69,413,104,68,71
99,312,49,67,387,111,75,72
94,785,47,62,289,107,77,67
87,971,46,64,265,103,70,65
86,1154,40,69,249,112,82,64
81,1171,37,67,250,116,89,58
83,1182,36,68,334,117,85,58
93,926,35,63,388,113,90,62
93,729,38,73,405,103,93,62
100,364,37,69,412,96,85,61
97,250,38,76,439,97,87,62
93,176,37,76,380,103,88,66
90,158,42,87,328,115,92,69
92,158,40,87,305,125,88,76
84,155,41,89,293,120,88,81
79,159,41,89,237,125,104,78
100,159,43,94,242,121,105,75
95,155,44,87,223,111,96,78
88,119,43,76,190,102,100,71
95,119,41,77,189,116,102,69
101,113,40,74,200,111,79,67
84,107,38,69,182,117,78,66
88,107,29,57,201,118,78,63
88,114,26,63,211,120,75,64
78,114,30,57,209,112,69,62
91,147,37,64,199,113,69,70
90,168,39,68,276,108,79,68
88,245,39,76,447,111,82,64
96,269,39,74,480,123,84,70
103,276,39,81,497,135,91,71
85,260,31,77,505,145,95,68
86,256,31,75,474,150,95,71
87,191,32,71,330,147,92,79
85,155,34,67,277,135,87,82
79,135,32,61,252,123,80,81
94,140,34,64,246,104,71,85
93,115,30,61,228,91,63,107
93,106,29,62,214,99,68,104
94,114,31,63,229,100,70,98
94,126,35,63,220,94,87,100
92,129,37,71,220,95,110,101
111,139,38,90,233,99,113,83
105,138,45,91,205,88,109,78
114,132,48,97,187,100,112,82
119,119,45,96,192,115,98,78
115,111,42,86,168,120,77,76
99,99,44,69,164,114,69,72
102,147,43,76,276,119,67,77
85,203,40,76,415,111,71,71
72,234,41,74,456,98,78,73
71,244,40,79,464,97,75,67
71,249,40,77,469,101,77,64
68,229,32,66,420,93,77,57
95,188,29,74,320,97,71,67
103,157,40,85,281,106,73,67
102,133,42,78,268,104,70,74
106,126,40,83,283,113,79,76
112,125,44,87,268,115,84,81
99,111,47,78,240,113,85,74
95,108,42,70,209,109,81,72
108,122,54,93,211,123,95,70
102,124,62,93,178,115,92,68
103,118,73,87,191,113,87,66
106,133,78,93,203,122,90,70
107,128,76,97,209,117,86,71
101,120,71,83,211,108,79,71
102,119,70,97,212,130,87,70
106,134,92,134,234,139,96,69
96,164,92,130,293,135,95,67
108,246,98,135,396,135,92,72
99,277,102,136,445,135,94,70
98,277,99,130,464,117,83,70
90,272,72,93,456,118,73,77
101,267,68,100,413,108,67,83
92,214,63,101,345,108,70,83
90,176,52,93,293,105,70,85
104,188,70,96,267,112,78,92
106,185,81,101,269,106,80,88
93,180,86,97,368,118,94,85
92,204,83,84,462,126,96,83
107,227,85,90,490,121,89,79
99,235,72,79,496,117,86,73
101,246,57,77,522,111,90,72
109,228,46,76,458,103,81,71
105,195,44,82,364,98,76,71
91,163,43,83,346,104,83,70
87,160,40,81,354,93,80,65
82,149,49,83,312,92,79,62
74,149,48,77,306,89,88,58
71,148,54,71,278,89,94,53
95,164,58,63,231,83,95,54
96,147,58,66,204,96,101,55
92,147,45,55,211,105,108,58
97,161,46,55,235,115,104,58
103,163,46,72,242,113,105,55
95,173,39,70,282,112,102,53
94,177,42,76,281,105,99,54
112,192,62,91,321,116,98,57
112,204,64,99,365,117,94,55
107,234,73,97,403,120,91,56
116,257,89,110,402,124,88,58
119,253,90,118,425,141,95,67
106,244,89,115,400,136,87,62
126,231,87,110,352,131,96,68
131,193,84,105,284,132,94,71
122,137,74,101,253,137,100,77
120,144,76,106,239,147,110,74
115,160,73,104,275,144,116,78
101,172,75,108,274,139,109,75
123,201,73,106,289,148,121,73
115,197,68,101,315,142,116,63
112,201,79,106,325,127,114,58
117,197,75,109,283,131,118,59
108,188,74,109,281,137,126,74
81,172,77,120,318,134,120,80
90,179,80,132,296,134,119,87
97,185,70,129,301,125,102,88
91,182,69,123,307,117,95,91
93,181,73,127,326,114,91,82
101,178,72,134,295,99,98,86
95,180,68,122,319,113,103,86
96,175,73,113,294,111,109,83
101,169,73,116,308,114,106,78
100,159,70,106,300,109,97,75
102,172,61,83,311,126,86,70
106,187,71,92,317,112,86,67
100,197,67,90,321,110,79,68
110,193,66,87,319,106,76,71
129,199,66,89,299,114,86,73
128,181,63,88,284,96,88,79
127,170,66,79,294,99,91,76
136,151,59,80,303,94,89,89
128,143,59,87,292,109,96,89
108,132,58,90,304,108,93,87
97,137,62,93,323,118,92,81
91,124,44,92,295,131,92,80
77,124,46,93,274,136,93,63
78,123,41,85,278,125,86,59
80,131,40,77,280,135,83,59
79,124,33,73,239,125,85,56
80,147,32,69,250,107,79,54
82,144,27,56,267,110,80,54
85,149,31,81,284,117,95,59
81,149,41,87,286,102,95,55
83,153,49,96,320,115,93,62
87,152,50,98,323,117,91,65
84,144,50,95,315,107,91,67
70,138,48,85,323,118,100,70
76,141,41,91,336,117,97,75
85,155,32,83,335,102,101,68
85,153,31,83,323,102,104,67
88,157,47,121,310,103,105,67
107,167,48,117,292,85,85,64
111,183,51,115,281,97,85,60
103,172,51,115,262,97,77,58
98,149,51,118,281,98,81,60
104,149,39,81,277,101,84,57
86,147,40,86,267,99,84,52
74,128,32,78,256,90,86,53
82,133,31,75,274,92,86,54
84,144,32,74,243,86,78,51
71,141,28,68,240,87,71,51
70,192,27,58,369,83,65,49
72,212,28,57,378,79,65,52
61,205,27,53,357,74,61,48
64,202,27,50,362,84,59,46
71,213,30,54,383,82,67,44
75,182,31,59,302,85,70,45
74,183,31,64,332,77,61,41
80,226,32,65,378,81,62,50
77,273,30,63,385,73,62,51
86,313,29,67,372,69,59,55
88,326,25,56,342,64,60,55
90,331,25,50,307,79,62,56
85,305,27,52,256,81,71,55
96,263,27,54,233,89,104,65
89,231,28,55,243,96,117,67
91,224,32,56,238,104,128,71
99,210,34,62,222,93,133,76
99,216,33,61,231,97,130,74
86,216,34,69,253,110,108,64
88,199,36,68,230,104,96,63
96,167,34,70,231,101,83,59
82,144,32,64,234,108,85,48
89,126,31,64,224,105,88,47
86,117,30,55,184,86,88,47
89,106,29,59,198,89,88,55
82,128,28,56,198,93,94,59
86,123,29,62,190,92,93,70
82,129,30,61,193,92,96,76
87,137,28,67,216,91,101,78
102,149,24,66,213,89,98,81
101,156,26,76,220,82,94,84
100,178,30,80,232,92,86,83
106,201,32,84,240,87,83,80
115,226,34,84,251,90,75,83
94,232,37,82,273,91,79,75
89,324,36,77,457,96,79,69
92,355,34,78,581,82,85,63
85,342,33,78,601,88,86,61
75,329,33,73,608,92,84,62
74,319,34,73,600,96,81,59
82,209,34,72,474,93,75,57
77,127,33,62,301,97,72,54
70,146,31,55,250,89,62,49
64,140,31,56,222,86,64,41
82,140,28,57,239,79,64,42
73,143,28,66,232,83,73,48
75,147,28,69,253,80,81,52
80,167,28,75,347,83,87,54
85,188,29,75,369,81,92,56
71,206,30,72,395,89,101,55
81,219,29,60,427,83,96,49
87,229,32,68,465,93,98,47
96,201,32,66,393,96,96,52
104,177,33,66,367,105,94,55
103,163,31,66,322,97,86,67
101,150,33,69,309,102,94,68
94,200,33,62,337,91,84,71
82,220,32,57,368,86,82,68
64,226,31,54,376,70,75,63
77,218,31,53,383,66,81,59
73,211,28,49,364,61,75,60
73,158,23,42,291,77,88,58
72,134,26,46,258,85,89,61
75,127,28,49,260,93,91,61
61,134,28,48,251,100,88,61
57,132,29,46,242,111,94,64
66,134,35,49,238,111,87,63
66,145,35,57,240,111,90,65
64,148,33,64,219,109,96,65
64,146,34,65,225,106,92,57
64,151,33,66,227,93,87,53
53,133,28,64,194,78,78,50
48,128,27,54,222,74,77,43
62,131,27,45,249,79,81,49
62,128,25,42,252,89,86,54
66,135,24,43,257,85,82,53
75,136,24,46,276,86,91,59
80,131,23,51,269,83,86,60
81,133,25,59,263,80,91,57
86,137,23,64,266,68,87,55
83,136,27,67,264,70,89,56
81,138,29,66,257,76,89,51
84,129,28,60,231,80,99,55
75,132,31,58,219,78,88,52
74,128,31,54,215,81,92,49
75,126,28,48,208,80,89,47
71,130,27,51,225,74,83,50
68,139,26,56,232,73,70,48
66,137,21,47,241,89,73,51
65,152,23,51,241,92,71,51
68,152,25,55,247,101,74,50
76,148,27,55,235,105,71,49
75,141,26,54,249,107,72,48
77,135,27,54,241,101,65,50
73,125,26,47,240,102,67,50
71,129,25,47,251,96,75,54
62,130,23,46,248,92,80,52
60,135,24,42,243,86,84,56
100,125,28,50,232,85,97,55
109,117,31,59,218,81,95,60
107,118,34,63,242,83,86,57
107,115,33,64,243,87,82,63
108,114,33,66,247,86,81,57
77,128,29,61,267,77,69,53
67,125,27,58,278,84,79,50
72,120,24,52,254,78,89,52
80,130,26,53,269,76,89,45
77,136,27,55,295,79,90,56
76,139,29,56,297,81,86,72
72,143,28,56,301,81,74,78
77,141,28,63,293,80,61,90
87,136,27,62,292,85,59,100
88,132,25,65,270,87,53,96
97,137,27,73,263,98,59,99
96,147,31,72,264,105,76,98
99,149,31,71,280,108,88,96
86,152,31,70,270,112,92,91
89,151,31,70,255,122,94,90
83,159,30,59,297,134,97,78
83,151,27,58,295,121,91,77
73,143,27,51,291,128,81,75
77,138,27,48,282,118,82,74
75,133,27,44,302,120,89,75
65,117,26,47,260,102,82,73
77,113,26,51,267,107,76,68
84,125,24,61,250,102,81,70
85,132,25,64,260,105,79,77
84,135,24,59,253,103,77,79
81,129,27,61,255,100,80,83
85,142,29,71,270,96,82,89
88,137,29,63,274,94,81,84
83,133,28,60,275,92,83,82
85,138,27,63,254,88,77,81
88,138,23,59,249,90,78,81
79,136,23,47,234,101,82,75
75,134,24,56,234,103,75,72
72,137,24,60,228,104,77,63
69,137,27,59,233,95,74,61
66,137,26,60,244,91,71,59
69,124,25,60,229,85,71,63
65,131,23,48,238,84,72,60
68,126,26,47,231,83,64,64
70,130,23,45,240,84,67,65
81,125,26,60,227,88,73,67
71,129,26,56,223,84,74,59
71,149,28,67,256,92,75,58
71,147,24,66,259,93,82,53
81,147,26,73,269,101,82,56
72,150,25,60,269,100,72,50
73,149,24,62,269,104,93,55
71,136,23,54,236,94,101,51
78,148,24,53,240,97,111,53
73,135,23,47,214,92,114,52
76,136,22,50,211,110,121,56
77,139,23,47,222,108,107,61
111,152,23,48,198,108,102,70
110,156,22,50,233,106,91,74
108,157,21,51,235,102,92,84
117,167,21,49,247,94,108,83
124,166,21,49,255,94,108,84
90,137,19,54,279,101,105,79
85,141,22,56,271,104,113,80
97,160,22,54,285,115,116,84
89,144,25,60,283,113,106,86
79,138,25,58,281,108,100,83
94,143,27,60,289,109,100,85
99,131,25,60,286,107,105,84
93,111,28,59,269,101,98,70
88,110,24,53,257,95,86,74
92,109,24,55,234,96,92,77
79,101,23,47,199,92,94,79
72,87,24,42,172,91,72,76
61,92,24,51,176,86,70,74
69,101,24,51,178,83,72,69
63,99,25,51,194,84,76,64
68,96,26,51,196,86,76,58
73,95,26,51,193,86,81,60
73,83,24,44,183,81,80,61
78,65,24,47,181,82,78,59
79,70,26,56,160,81,80,59
76,95,25,57,187,75,86,60
74,111,24,60,241,104,88,65
81,122,24,59,261,111,89,66
80,138,25,58,265,117,92,67
80,146,23,49,273,127,92,66
89,147,24,51,266,130,86,66
89,141,24,52,231,109,84,62
83,144,27,56,231,112,89,58
85,138,25,56,242,110,86,54
84,135,24,54,256,99,74,53
71,118,23,51,251,93,75,52
68,118,26,49,244,96,77,46
101,130,24,48,241,85,69,49
90,126,25,46,234,75,75,52
90,124,25,47,245,86,82,55
91,131,25,50,264,99,82,57
93,134,29,50,292,104,82,58
68,120,29,49,300,111,86,65
68,119,28,49,307,112,78,66
65,124,28,52,305,104,76,62
65,128,28,47,301,96,80,59
87,121,23,50,278,89,77,62
81,130,23,51,264,83,92,56
82,135,24,52,254,100,103,52
82,133,26,50,247,105,108,54
96,129,27,54,242,107,105,58
90,139,27,50,254,105,106,54
87,125,26,51,268,111,92,53
87,122,26,57,261,97,85,54
94,115,24,57,239,86,76,53
84,127,24,56,241,98,70,52
90,119,23,55,221,99,65,53
94,123,26,62,217,91,74,56
121,167,28,56,243,92,71,55
121,179,29,58,272,102,71,59
122,175,29,63,264,85,72,61
130,188,34,76,264,87,75,64
134,192,35,72,267,87,70,66
116,177,33,76,301,86,67,65
114,170,42,79,286,75,66,61
116,168,47,75,299,74,68,59
94,154,47,64,326,93,66,62
89,152,44,69,342,99,77,71
86,125,47,67,290,104,80,74
86,138,41,75,330,111,87,77
91,134,43,79,318,124,96,85
92,131,42,80,305,109,97,86
91,135,49,81,512,120,91,79
88,142,50,81,715,125,89,79
87,140,53,75,757,128,84,81
81,154,46,74,769,122,79,79
78,153,47,76,764,123,79,74
74,144,47,84,634,106,78,68
78,150,49,87,395,99,79,68
73,140,47,81,270,92,77,65
66,127,47,87,264,84,74,58
63,125,46,86,266,83,72,59
71,132,44,77,252,83,69,68
71,138,40,86,262,85,78,72
69,137,38,93,259,80,80,71
83,138,40,88,215,78,79,69
85,150,49,111,213,95,88,69
82,154,54,123,211,96,95,65
77,134,57,116,228,95,85,59
100,131,59,121,241,102,92,70
92,139,59,121,262,115,105,88
115,157,58,101,284,121,112,89
119,162,59,97,313,121,108,90
127,167,76,120,320,127,114,90
116,170,86,121,305,122,106,85
126,177,137,199,320,114,94,76
105,163,144,226,292,92,82,78
102,157,146,223,322,108,81,77
102,162,143,211,293,111,75,80
103,169,141,211,313,122,87,79
97,174,108,159,277,116,83,72
102,177,101,118,305,118,79,66
100,171,94,113,248,113,79,63
104,168,86,115,261,99,77,66
96,170,93,127,237,98,77,68
92,172,94,127,246,100,76,74
87,162,90,124,211,102,81,75
84,158,89,123,220,93,75,80
73,153,88,121,197,105,81,78
70,156,78,113,211,105,79,72
67,128,63,82,211,111,86,66
66,135,65,90,240,122,91,66
67,147,63,96,222,128,103,67
65,141,66,97,237,124,106,63
75,136,71,105,239,118,115,62
72,138,63,106,240,112,121,60
73,129,62,105,217,100,120,61
77,115,62,99,213,87,116,55
74,128,57,97,211,84,111,60
71,123,35,74,220,87,95,60
71,118,40,84,244,96,83,58
67,120,37,83,260,97,82,55
60,122,38,87,267,99,75,54
55,108,39,95,280,97,74,48
47,101,43,94,259,91,77,49
57,123,45,96,249,93,77,50
67,131,45,91,221,94,77,53
77,138,54,92,211,92,76,55
83,139,60,85,189,95,78,54
90,145,62,86,205,105,81,57
91,137,59,74,203,103,82,69
91,141,57,72,219,113,78,71
82,136,49,82,240,126,79,69
83,138,44,79,243,124,73,72
76,136,41,76,248,115,66,70
71,144,38,78,251,105,62,63
60,132,37,76,248,97,77,55
66,129,36,61,231,86,84,58
76,127,32,67,250,81,85,56
87,148,34,74,252,82,89,53
83,134,33,73,241,86,88,55
87,141,34,75,245,75,71,69
85,142,34,71,245,69,60,66
70,143,31,67,223,69,59,65
56,120,24,57,221,74,55,70
59,120,24,58,229,79,58,70
56,144,24,60,255,89,74,62
59,184,27,60,265,91,80,61
67,184,25,59,260,94,79,64
82,179,25,60,241,89,80,68
82,186,24,61,242,82,80,71
82,181,22,58,243,77,70,66
83,141,27,67,241,81,77,76
88,144,31,68,240,79,79,74
75,173,34,64,253,80,77,71
76,267,37,68,232,90,77,68
74,256,39,76,213,81,76,69
85,258,36,76,210,75,68,64
75,258,34,73,210,74,65,71
77,239,33,75,192,82,66,70
75,117,40,77,220,79,77,68
81,118,39,76,206,91,82,74
71,114,39,70,197,91,78,69
76,110,39,77,217,93,82,60
73,108,39,79,216,95,86,55
80,106,29,71,206,91,78,54
73,116,32,68,211,84,75,48
75,119,30,66,235,94,81,51
71,143,29,58,258,94,81,57
77,154,31,55,274,86,76,61
68,148,30,57,266,83,80,65
67,132,31,53,259,84,78,63
65,133,30,54,240,68,75,71
73,121,31,55,222,67,78,77
65,118,28,60,212,78,85,83
65,127,28,63,227,92,85,81
66,130,26,60,238,90,84,85
78,135,26,62,250,92,82,78
71,123,26,63,251,101,77,70
87,138,28,60,264,93,77,62
89,146,26,53,282,84,70,59
88,141,22,53,269,91,72,53
89,137,24,52,261,89,71,59
93,142,25,48,240,86,74,61
81,138,24,49,234,84,66,62
82,129,26,52,216,90,72,65
83,136,28,51,216,82,66,70
66,133,27,51,207,81,73,65
75,136,28,49,213,73,70,64
70,119,27,45,194,86,70,62
71,130,25,45,229,74,65,57
71,128,24,46,236,72,66,52
68,120,24,45,310,79,61,50
61,115,23,46,342,88,63,49
65,125,24,51,361,75,61,49
66,108,24,47,330,81,68,51
65,111,25,54,344,98,72,58
67,115,25,50,282,98,71,62
69,139,24,49,266,97,71,64
77,141,22,50,244,99,81,66
75,147,21,51,245,94,76,74
77,140,20,41,216,80,75,67
81,143,22,47,224,83,86,67
75,118,22,48,203,77,87,64
72,111,24,47,215,70,78,64
77,105,24,46,214,68,76,59
78,108,25,54,221,78,79,62
72,108,22,51,215,74,68,62
71,116,22,55,222,75,67,67
62,103,21,50,201,76,66,67
55,102,22,53,226,81,70,63
52,103,23,51,221,72,65,61
50,103,23,54,244,74,74,54
46,96,24,51,253,72,79,57
51,120,25,53,288,71,81,56
48,119,24,49,278,68,83,54
46,122,23,48,282,63,83,56
46,117,23,46,260,57,77,59
50,117,21,46,235,56,80,52
54,113,22,48,199,61,79,54
54,121,24,48,194,60,71,52
54,120,24,44,195,64,71,48
54,127,25,44,242,66,67,49
56,119,25,46,240,71,58,50
57,127,24,42,264,69,55,44
64,130,23,43,258,72,55,46
68,133,22,46,262,74,57,50
79,142,21,47,251,71,57,50
74,145,21,57,275,69,56,54
75,137,20,57,258,73,84,54
70,132,20,61,261,71,97,55
72,134,21,64,265,66,102,53
63,124,21,60,259,72,110,53
68,138,22,49,285,74,111,51
65,130,21,50,286,73,93,56
64,132,20,45,308,89,81,57
57,125,20,42,313,97,78,58
58,129,20,46,305,102,75,56
61,112,19,47,274,103,73,54
63,108,21,52,286,111,71,50
68,121,23,54,282,110,79,48
76,119,25,54,292,108,79,53
88,118,25,66,315,108,80,54
84,121,27,68,317,104,79,55
84,128,27,65,312,98,81,56
82,120,26,68,325,88,72,58
78,122,25,69,309,95,73,56
77,118,23,60,287,89,63,62
80,119,23,56,279,90,79,62
80,113,24,53,267,93,84,60
87,104,23,55,235,89,87,59
89,106,23,51,224,77,84,64
77,110,26,47,218,72,83,57
77,119,24,49,213,71,74,62
78,138,23,50,230,64,69,69
66,138,24,42,232,74,73,68
64,139,25,51,243,79,71,62
74,134,24,59,226,88,70,61
70,127,25,59,230,87,69,51
66,104,23,60,213,89,64,45
78,108,23,62,202,81,57,48
73,102,24,54,187,78,57,48
64,103,22,47,181,68,64,49
68,110,22,47,177,73,85,54
64,128,23,45,201,77,92,52
52,137,24,43,225,82,97,50
56,142,24,42,263,113,98,52
61,142,24,45,285,122,101,57
63,134,24,50,291,119,77,66
70,135,25,50,285,119,73,68
69,128,22,49,276,114,66,64
72,129,22,52,254,83,78,70
72,134,26,47,243,70,74,75
74,131,25,47,230,77,82,74
69,129,24,45,239,71,82,72
70,131,24,46,270,86,85,78
68,127,24,44,259,88,72,72
66,126,22,45,266,85,67,63
57,125,21,39,265,81,66,53
62,117,23,41,254,80,65,53
60,121,23,36,243,69,65,45
57,124,24,37,257,69,76,55
62,122,22,36,245,72,80,59
74,120,24,36,243,72,78,55
76,108,21,40,237,92,83,57
80,118,22,41,233,93,82,58
86,116,22,39,241,93,74,53
85,131,22,41,257,100,78,49
76,148,23,40,292,101,75,54
73,153,23,35,287,112,78,53
80,138,24,37,257,109,74,60
74,135,25,44,264,111,76,57
84,117,25,54,258,115,74,64
88,101,24,55,220,115,81,67
86,94,24,58,215,89,76,68
81,86,23,58,230,98,77,71
78,90,22,59,210,95,75,73
68,88,22,49,201,83,70,69
68,84,23,52,216,87,68,64
77,92,25,49,214,87,62,66
73,96,25,46,210,77,69,65
80,94,25,48,190,76,68,64
79,102,24,56,211,100,76,70
77,98,27,56,206,105,84,75
65,92,25,56,213,103,83,74
70,114,26,55,238,102,83,73
64,132,26,48,294,102,81,76
64,131,27,52,300,77,74,72
59,137,24,51,303,62,64,69
66,141,23,57,326,91,77,66
66,122,23,61,309,100,73,59
67,118,25,65,294,104,72,56
70,123,25,59,284,103,69,53
67,122,25,60,292,109,71,54
65,122,24,58,268,99,66,58
57,124,25,62,287,89,64,56
58,109,23,57,273,87,79,50
55,118,22,59,279,87,86,52
58,128,22,55,268,80,80,47
64,141,23,54,276,65,75,51
67,156,22,49,283,71,77,56
67,155,23,54,266,67,62,64
71,148,23,49,258,64,60,64
74,140,24,52,263,71,64,66
79,154,25,48,290,75,66,60
81,141,24,54,268,71,64,59
86,153,22,51,275,72,70,58
87,170,23,49,284,75,69,57
92,170,21,51,283,78,67,55
88,148,21,53,239,80,68,56
88,147,22,46,230,79,70,60
86,136,25,50,241,79,79,56
77,114,23,50,231,82,79,56
78,110,25,47,225,81,81,58
69,115,25,48,254,84,81,60
78,120,25,48,252,85,83,62
75,126,24,49,245,86,76,60
76,118,24,50,229,84,73,58
75,131,23,56,244,89,79,58
79,127,22,60,230,79,79,62
68,120,23,61,226,87,81,55
72,118,22,56,245,90,84,56
79,120,21,59,259,99,87,62
82,114,22,58,250,88,83,67
99,116,22,56,251,104,84,62
99,111,23,54,253,105,77,63
96,110,26,65,246,102,71,66
95,111,26,61,238,96,73,66
88,106,24,56,238,102,70,61
70,104,24,55,246,83,66,63
77,117,24,57,256,82,70,63
79,119,23,47,237,79,66,62
85,130,23,61,234,88,65,60
87,131,26,63,221,106,73,59
86,126,27,59,198,121,79,61
79,116,25,57,184,117,78,58
81,119,24,58,183,124,85,60
74,113,28,52,215,125,84,64
67,108,25,52,221,109,75,63
74,113,27,67,250,95,68,65
72,117,27,72,262,93,71,66
91,118,28,74,265,96,68,64
87,110,25,72,262,82,66,56
95,115,28,73,258,87,74,57
89,120,27,61,241,84,73,48
94,117,26,55,242,84,72,58
77,116,26,54,266,84,69,55
89,129,27,56,256,90,79,57
89,128,25,57,267,89,87,58
92,121,24,57,280,92,91,63
96,125,25,58,270,109,93,56
98,132,25,62,262,106,98,59
87,121,25,59,259,99,89,57
84,143,26,61,266,99,81,58
80,148,28,61,252,101,90,57
70,144,28,66,296,95,86,56
63,133,30,64,277,91,83,59
69,135,29,68,301,102,89,70
67,112,27,66,287,104,87,68
63,110,28,67,281,101,70,71
71,133,30,70,260,98,86,73
72,133,28,67,269,99,86,71
73,135,29,63,241,101,87,62
72,139,34,65,244,97,87,67
71,133,32,68,242,97,89,69
69,122,31,61,210,92,78,66
68,122,30,59,198,102,91,64
70,129,32,62,194,99,86,68
70,122,26,58,196,101,82,67
70,125,26,51,206,108,83,58
63,116,25,52,213,106,77,57
65,122,25,53,242,101,64,63
56,113,23,50,256,99,62,58
58,122,24,54,252,98,70,55
60,129,21,57,243,95,71,64
66,138,22,56,235,99,70,65
63,155,24,56,251,92,68,59
68,161,24,57,274,93,72,68
69,163,25,58,271,84,66,68
67,157,25,61,275,96,88,65
66,154,26,67,296,104,96,72
65,131,22,74,263,106,97,71
62,135,26,73,255,115,105,64
71,144,38,87,307,128,112,65
79,148,39,85,307,114,102,61
80,154,44,85,307,119,99,54
80,163,53,85,312,130,95,57
78,151,51,85,293,115,85,55
66,149,48,76,265,112,83,54
63,159,49,75,290,123,75,59
58,165,52,72,277,110,72,60
74,172,56,80,263,97,90,62
79,186,61,86,273,101,98,68
80,192,59,79,265,100,96,65
93,202,63,92,250,92,102,64
95,192,65,93,244,97,102,64
79,197,56,79,276,96,90,57
76,185,52,72,249,91,90,50
74,168,50,73,238,85,100,54
48,145,47,70,217,81,102,56
49,143,41,86,262,77,102,57
54,117,40,89,251,85,105,64
60,123,39,88,270,86,98,66
79,146,46,106,331,94,95,68
83,148,42,100,342,96,91,72
83,164,39,85,315,99,100,77
85,167,43,94,314,101,100,77
80,165,44,103,306,107,103,77
62,162,40,88,254,105,98,74
67,162,41,88,257,109,90,74
71,154,42,95,297,114,104,66
68,163,38,86,284,113,105,58
72,169,37,80,310,113,110,68
69,168,35,79,302,123,118,68
59,172,33,76,320,125,129,59
53,163,31,64,294,124,113,63
52,152,32,64,297,120,113,67
51,140,31,80,270,113,105,66
57,125,28,89,267,108,97,70
59,120,26,93,243,99,99,68
65,150,29,102,221,106,104,69
71,152,25,116,262,111,107,71
72,166,24,105,267,115,110,65
72,170,26,96,306,129,111,64
70,169,32,95,308,143,114,66
63,162,38,90,307,136,126,64
60,159,38,76,281,129,123,67
62,143,40,75,284,132,125,67
57,135,39,90,250,116,127,62
59,125,36,87,239,92,112,66
69,101,27,88,245,98,104,68
68,97,25,84,220,103,123,63
62,112,27,91,242,93,122,63
68,111,25,78,242,84,119,63
72,127,25,77,238,91,118,61
73,129,30,78,254,80,113,59
75,137,32,80,266,82,89,63
73,121,29,69,235,89,88,61
77,132,33,66,243,98,93,63
80,134,35,68,259,109,95,65
73,129,32,65,241,115,113,64
71,122,34,72,232,113,114,59
77,131,37,73,247,113,112,60
67,125,36,80,238,103,105,57
59,113,33,78,205,109,126,57
69,112,34,76,206,100,112,59
79,123,34,65,202,94,111,59
85,125,33,62,242,91,111,69
90,125,33,61,228,91,118,76
89,123,34,61,247,81,113,74
79,122,37,60,248,86,111,80
76,121,34,68,267,88,108,82
64,132,34,71,213,93,108,71
59,133,32,72,244,94,101,67
66,135,32,87,244,90,80,70
75,139,36,108,246,87,86,62
80,141,57,121,248,86,87,62
96,151,63,129,276,79,82,67
97,159,66,129,249,82,100,69
94,158,73,140,249,80,106,69
95,168,82,158,268,86,101,77
90,159,72,174,271,89,108,92
82,166,69,173,307,93,122,93
85,171,73,182,313,91,110,96
97,181,71,171,315,88,103,101
93,193,61,145,321,82,100,102
91,194,60,117,327,80,91,88
89,173,61,114,276,81,86,87
90,164,54,98,286,83,84,82
80,152,46,97,275,90,93,68
90,135,41,89,251,92,91,64
94,142,38,88,224,99,113,65
90,134,34,81,234,91,106,61
91,122,30,71,205,92,106,64
98,135,32,75,244,91,109,65
95,128,33,75,265,96,119,66
88,153,31,63,279,86,113,65
92,178,34,80,270,87,108,62
108,192,39,93,289,88,113,72
103,192,36,86,273,90,122,74
96,213,34,90,249,89,127,79
110,226,51,96,246,88,115,90
105,232,48,81,244,102,124,92
88,232,46,69,241,106,126,81
86,255,46,80,297,111,117,80
88,246,49,80,311,108,110,74
75,225,31,77,314,123,108,65
76,201,28,77,306,126,101,66
71,188,29,78,299,117,95,63
71,154,30,68,239,101,80,65
72,131,29,70,235,101,74,63
74,119,30,71,215,92,80,60
85,120,29,81,215,79,82,63
88,113,29,84,208,84,79,68
92,124,28,85,241,92,84,74
108,137,26,80,256,97,83,73
107,132,27,78,261,96,81,75
102,142,28,85,304,118,88,74
116,172,28,80,307,122,92,78
110,161,28,87,282,120,87,70
100,164,26,91,270,114,81,71
100,176,25,97,272,111,74,70
100,181,25,85,245,86,91,76
95,163,24,87,237,93,92,73
103,168,24,74,222,93,93,83
95,171,24,68,210,93,99,83
112,227,25,66,207,93,103,80
110,238,29,67,185,98,76,69
101,244,29,68,246,113,79,69
94,238,29,68,257,115,80,58
102,251,30,69,255,119,84,56
91,196,31,64,262,119,86,57
101,183,26,60,266,116,93,70
99,170,24,57,215,92,88,66
101,170,23,57,203,83,88,65
98,147,22,59,214,93,83,71
92,142,21,60,205,103,83,70
92,130,22,69,195,103,80,70
91,156,25,80,206,106,78,68
91,170,27,81,216,108,78,71
92,173,27,84,234,107,77,68
90,186,26,85,235,98,81,68
74,199,27,82,268,93,79,57
77,176,25,90,280,93,85,64
77,171,23,91,291,93,90,69
82,159,21,84,272,91,90,64
83,147,27,82,265,91,84,67
97,146,26,81,259,100,82,70
92,156,26,59,252,100,74,72
99,144,27,60,234,106,74,69
89,152,30,63,233,103,73,68
89,163,26,60,253,104,78,69
84,144,28,58,252,105,84,70
95,144,28,58,241,108,95,67
85,157,27,51,249,106,88,65
90,145,29,50,259,100,85,69
100,142,30,55,257,92,80,64
118,152,30,59,254,81,74,61
138,167,30,60,260,84,63,54
143,165,30,67,272,89,62,50
148,181,29,69,260,92,73,57
154,178,28,77,245,95,71,61
145,176,27,74,255,99,76,61
120,156,27,77,255,98,83,63
148,150,28,75,235,95,94,75
151,132,24,75,238,96,92,74
139,126,24,64,248,98,93,71
129,107,23,65,203,98,90,68
128,105,22,64,193,89,83,69
90,97,20,63,203,91,73,56
83,92,21,64,191,91,69,62
81,78,22,61,182,91,68,61
87,76,24,73,197,109,84,63
87,78,23,71,198,110,85,62
86,76,24,70,182,103,83,62
73,77,24,67,199,100,82,49
81,74,25,75,187,95,90,56
84,103,24,71,204,80,76,51
82,111,24,75,236,90,74,49
88,117,24,75,230,87,75,56
98,136,23,74,235,85,80,74
94,151,21,67,247,95,76,71
84,143,21,58,233,86,73,73
99,144,23,53,210,72,76,76
98,144,22,51,222,78,80,80
90,143,23,53,221,95,82,71
97,137,23,57,236,88,81,73
104,136,22,63,275,105,95,79
117,133,22,69,266,113,97,80
115,154,24,76,274,116,98,74
118,142,24,79,267,108,93,66
139,173,23,80,295,113,96,63
143,178,23,78,270,104,92,56
122,175,26,78,269,101,88,52
121,163,27,77,284,97,89,52
122,159,26,75,281,94,87,52
87,137,34,89,267,99,82,54
79,136,47,111,269,113,75,52
90,146,48,111,277,112,72,60
96,148,52,107,257,119,73,62
88,156,54,107,271,131,75,65
111,146,57,103,239,122,79,66
109,146,64,93,239,107,78,80
102,144,63,95,239,112,87,80
91,135,61,94,237,103,85,79
90,148,62,101,257,91,92,79
92,166,59,104,264,113,105,80
89,159,43,97,248,117,109,72
94,160,40,92,244,111,106,75
101,163,40,102,262,116,108,72
107,171,37,94,242,118,103,72
92,148,33,99,240,99,88,74
94,150,32,96,246,91,86,71
94,172,69,122,259,99,84,70
91,177,79,147,274,114,88,79
85,164,86,150,268,108,86,80
80,177,86,137,267,111,82,77
79,176,92,140,268,127,89,76
74,155,71,122,272,121,89,72
73,144,62,86,246,104,75,64
78,149,59,90,231,110,78,63
80,139,58,103,241,108,77,62
81,134,48,110,240,102,71,66
81,129,48,106,255,112,67,70
84,137,49,112,245,130,75,71
82,126,41,108,264,128,77,68
84,121,43,99,252,133,88,69
85,125,50,89,275,129,86,67
85,130,47,88,238,124,88,61
81,125,44,81,260,103,82,59
82,117,45,89,244,101,85,58
84,117,43,84,238,96,89,59
86,135,36,79,215,95,90,57
84,150,44,84,221,89,95,63
83,156,41,77,206,92,103,63
86,155,41,69,206,96,98,73
75,161,43,80,248,96,85,73
73,146,43,86,231,104,83,71
81,123,35,81,232,119,89,64
87,127,37,82,241,122,90,65
85,129,37,84,263,116,90,57
88,136,40,77,242,116,99,61
90,148,40,75,258,103,97,63
81,156,41,76,262,83,91,71
80,153,43,74,246,78,81,72
85,153,44,68,243,76,77,72
81,150,40,63,226,78,76,70
85,144,36,59,213,84,79,70
96,132,35,52,202,102,80,62
98,122,27,51,214,112,82,61
94,118,32,52,187,117,86,61
92,114,32,57,196,117,85,62
93,107,34,57,186,122,97,57
89,126,36,82,205,113,99,64
90,122,39,84,185,103,100,64
92,153,36,90,190,107,105,68
95,148,35,91,171,103,106,65
96,154,34,90,173,96,93,66
91,140,35,80,161,95,92,59
94,141,33,83,171,91,92,62
90,107,30,77,167,79,90,55
87,109,29,76,181,79,83,54
88,122,28,76,224,90,87,56
87,133,31,66,224,94,79,61
87,143,30,59,237,99,81,62
87,149,32,62,265,111,73,61
104,141,32,59,270,114,84,69
96,119,31,56,242,102,79,69
95,115,28,72,250,97,84,71
85,117,29,76,248,94,96,69
90,138,26,73,261,84,96,72
77,148,27,73,272,83,91,73
82,152,30,81,295,85,99,80
83,145,28,68,274,90,97,76
83,138,28,65,266,108,91,79
82,111,31,71,217,108,93,78
77,103,31,68,193,109,96,71
66,93,28,63,159,113,87,61
66,91,27,61,172,114,85,60
79,96,28,63,165,97,75,58
75,95,27,54,188,94,78,54
74,88,28,57,181,91,67,55
83,89,29,61,183,88,68,55
81,102,29,60,178,77,68,54
71,93,27,57,189,84,68,49
66,101,28,53,198,86,61,49
77,130,26,54,248,83,63,46
71,141,24,45,253,80,68,47
76,137,25,46,254,79,75,48
74,136,24,43,234,73,74,56
74,138,23,41,215,82,74,56
91,138,23,41,232,86,74,54
92,132,26,43,239,87,68,52
93,133,25,50,241,101,68,51
100,147,26,55,250,108,72,48
100,144,26,59,253,104,83,48
79,130,26,58,198,103,86,48
93,142,25,58,202,112,90,54
93,144,30,55,215,109,92,56
84,141,28,58,228,104,89,58
97,142,28,56,238,108,85,64
96,141,28,54,252,107,81,68
80,145,30,56,266,97,75,67
76,155,27,63,276,100,71,64
87,151,28,59,274,99,72,61
84,168,28,59,268,97,76,66
89,176,31,72,254,97,78,66
87,172,28,77,244,96,90,65
88,169,28,72,245,86,88,69
79,198,29,76,230,84,85,67
71,196,28,75,255,81,77,60
62,194,24,67,255,87,77,55
68,185,25,66,240,91,70,58
67,176,24,63,210,88,69,59
79,203,24,64,229,89,73,61
78,217,25,75,219,89,73,61
80,218,26,73,219,81,69,64
78,222,24,65,214,72,63,63
81,248,24,68,255,72,59,58
73,206,23,63,253,71,61,58
81,186,21,50,243,70,67,57
79,188,22,47,247,75,74,60
78,192,24,51,248,89,81,65
76,163,26,49,242,91,90,68
74,154,26,49,233,95,89,68
63,143,28,55,234,108,85,68
69,140,29,64,230,108,80,64
88,131,31,73,224,98,74,55
85,122,30,73,190,96,75,58
81,124,31,74,213,90,76,61
79,121,32,76,208,71,77,64
75,113,30,73,238,74,82,65
67,107,27,66,239,87,88,68
77,114,29,67,250,99,80,79
74,107,27,68,237,99,77,74
73,106,26,61,233,106,78,71
80,102,25,58,197,103,80,72
67,96,24,54,184,95,83,76
61,103,23,51,174,81,79,62
61,99,24,45,153,88,80,61
61,120,25,46,190,82,82,58
70,117,25,48,193,84,75,54
70,138,26,47,215,87,63,45
67,139,25,50,235,88,63,44
73,149,26,56,250,82,62,49
82,132,23,56,227,101,73,63
68,132,23,53,227,101,76,65
68,122,22,55,228,96,76,67
79,138,23,56,273,100,79,67
80,143,21,53,276,106,79,67
76,143,22,49,278,91,65,59
80,144,22,48,280,89,69,60
88,140,21,50,285,93,68,60
86,123,20,48,248,91,66,62
85,117,22,51,255,85,67,62
86,128,23,60,248,79,70,67
82,127,21,60,249,85,67,66
74,137,21,59,246,81,71,65
66,130,26,61,217,93,79,60
79,138,26,62,198,94,84,59
74,142,26,59,229,92,80,49
80,139,28,59,225,88,76,48
85,138,30,60,222,85,72,47
86,134,27,60,235,76,61,50
72,132,26,66,268,86,66,57
92,128,26,64,245,90,68,61
107,139,25,69,251,93,71,58
108,144,23,68,251,106,71,57
110,145,24,65,238,101,70,59
112,142,23,57,204,100,66,60
101,151,22,62,220,102,67,59
86,151,23,64,232,97,62,60
87,140,23,67,219,88,69,60
103,143,24,77,241,88,73,55
100,137,24,76,243,83,68,46
100,138,25,76,265,86,80,43
98,135,23,72,264,87,89,44
98,128,25,76,269,91,93,49
77,121,23,68,253,90,94,49
79,123,24,65,245,83,93,53
81,131,25,60,232,77,85,50
90,132,28,64,226,73,75,49
81,140,25,53,227,71,70,46
91,138,28,55,226,82,76,53
128,135,29,60,226,83,75,51
124,116,28,67,210,91,76,65
119,106,27,63,210,88,74,66
123,100,29,64,199,88,76,65
117,97,26,63,192,77,71,61
77,96,26,65,185,81,77,60
76,82,25,56,184,76,81,44
74,78,25,57,157,84,88,47
71,89,24,60,151,82,93,47
73,106,24,54,162,82,95,50
85,111,23,46,166,79,89,51
81,132,24,45,172,81,80,53
85,139,24,49,198,78,75,62
94,135,25,46,208,73,65,62
93,126,25,53,219,80,61,66
80,131,24,53,221,79,67,65
107,130,24,53,232,72,70,64
105,133,24,55,245,74,72,56
100,134,22,53,249,74,70,56
96,133,23,48,243,84,66,47
98,124,22,45,247,91,64,48
75,113,22,55,249,90,63,48
88,107,22,55,236,87,62,50
86,105,23,58,238,95,69,48
95,106,23,65,234,86,71,50
89,110,25,66,227,76,66,48
86,101,24,57,195,73,62,52
74,117,25,54,219,85,59,49
80,113,24,55,223,74,50,56
72,114,25,48,232,68,55,56
74,106,25,51,230,75,57,57
82,122,26,53,244,78,57,56
80,122,26,50,247,76,58,59
72,135,27,48,246,77,59,55
74,137,23,46,235,78,53,52
88,151,23,49,238,80,63,56
78,147,22,49,240,84,77,55
80,130,23,49,194,76,75,58
85,120,24,51,194,80,77,53
80,112,25,51,196,79,80,57
73,111,25,41,202,76,75,59
73,113,25,42,186,68,67,63
84,124,24,44,188,68,67,56
85,136,23,38,175,65,67,59
95,145,23,41,171,68,64,57
89,138,22,44,166,66,64,52
89,136,21,46,188,67,57,47
72,135,22,47,207,64,59,44
75,127,25,51,226,68,59,51
64,124,23,50,238,63,59,56
69,122,23,51,235,66,68,58
68,110,24,48,217,72,69,57
73,119,24,47,239,72,76,58
62,122,22,48,233,67,81,55
95,135,20,53,236,75,89,49
93,137,23,53,241,84,84,49
98,146,21,54,255,82,85,56
95,131,24,61,223,84,76,57
94,125,24,60,216,82,68,54
61,122,26,53,207,76,56,60
64,164,25,54,202,66,48,63
57,158,25,51,176,69,49,57
59,192,24,49,203,68,49,58
76,235,23,49,218,73,52,65
80,232,23,52,224,77,63,67
80,206,20,54,228,74,79,63
92,204,20,65,237,78,78,64
107,181,21,74,235,91,87,69
96,116,22,79,234,93,90,65
93,114,23,84,240,101,86,58
90,117,25,84,249,105,72,59
79,120,27,79,248,95,75,59
62,110,24,66,235,83,64,52
60,128,25,60,232,77,57,49
62,128,25,49,221,69,52,49
58,128,24,48,228,61,53,43
57,129,24,43,241,63,66,47
85,134,23,42,229,62,74,51
93,141,23,51,228,67,83,58
94,142,25,57,234,61,85,58
96,139,24,56,227,80,91,61
105,142,24,60,218,86,81,58
82,138,24,67,238,86,77,56
75,109,24,62,225,86,79,51
72,110,22,62,227,94,79,49
70,124,22,60,234,87,73,50
56,124,21,54,225,80,77,58
55,124,21,46,207,79,75,55
48,125,21,42,193,72,63,51
47,128,21,38,204,61,61,54
70,126,22,44,193,49,58,54
75,123,23,51,200,54,53,44
81,124,21,51,217,58,63,46
81,130,21,52,232,68,65,47
83,117,21,52,205,69,64,45
65,116,21,50,220,70,62,42
56,119,20,41,220,70,59,49
47,117,21,41,219,70,51,49
68,117,22,47,226,64,52,56
73,124,22,49,238,78,62,58
78,115,21,56,234,80,68,63
85,120,22,60,244,78,74,62
86,117,21,65,230,82,77,64
87,121,20,62,210,82,73,59
92,142,21,61,229,67,80,62
90,172,22,67,253,68,82,64
89,196,20,71,350,84,77,61
87,216,22,71,418,81,78,62
76,256,22,72,510,89,83,62
77,254,22,88,522,102,79,68
78,243,22,82,522,113,70,69
74,225,23,78,462,103,71,72
77,210,22,76,406,108,67,71
77,160,24,76,311,104,62,73
72,147,24,65,272,92,63,70
72,126,28,65,231,79,67,65
75,111,31,71,214,83,81,62
84,108,34,76,199,89,106,62
86,104,46,84,166,88,108,65
82,104,68,112,161,96,107,63
91,99,70,109,152,97,110,69
96,123,103,125,218,95,108,68
94,136,137,201,248,90,109,78
96,154,152,250,319,97,148,90
106,158,148,243,340,107,155,96
100,162,154,250,376,107,153,98
103,226,159,259,358,119,160,109
102,271,150,229,370,132,152,109
109,263,150,240,324,136,126,100
109,265,171,279,353,135,125,123
108,281,179,310,390,153,136,125
98,302,204,347,448,164,136,122
99,290,202,350,438,165,139,118
93,295,196,325,437,163,134,121
92,291,179,297,404,154,150,90
112,310,174,288,356,162,153,86
117,357,128,256,326,154,152,90
127,355,152,283,358,144,150,96
125,410,160,285,414,160,151,91
123,480,236,366,531,173,132,100
113,508,243,385,537,161,129,105
122,542,248,381,609,157,129,112
118,569,243,370,640,161,125,108
124,543,247,387,632,186,158,117
131,487,186,326,551,211,176,116
141,460,189,302,586,245,191,148
170,386,218,310,506,270,212,146
168,331,223,322,456,280,223,151
168,314,213,316,442,288,240,150
312,413,211,302,441,270,246,153
379,435,208,293,419,265,246,126
441,488,166,277,487,240,242,128
455,504,136,232,490,227,237,132
470,509,154,238,503,193,204,148
393,435,156,255,530,201,197,143
421,418,144,300,583,191,194,148
422,295,142,296,577,190,181,147
412,272,137,298,684,204,209,146
431,269,109,270,795,203,214,125
431,267,114,263,894,212,219,134
356,254,111,219,906,187,213,139
255,280,107,214,881,182,227,138
246,274,170,257,930,224,240,143
209,334,207,316,846,236,244,154
208,324,204,311,758,213,234,163
202,329,204,293,739,212,226,158
204,302,206,303,740,234,210,158
218,352,193,314,656,215,175,151
216,311,161,272,632,225,172,149
207,316,157,272,628,228,171,144
183,292,159,279,558,236,181,147
179,299,161,295,554,260,200,145
183,265,127,238,455,258,203,147
162,251,121,233,451,235,190,152
167,264,114,246,417,246,205,155
170,262,122,280,466,255,224,151
172,290,130,303,549,228,212,151
160,270,149,363,535,206,197,153
145,254,162,367,548,204,206,145
154,406,166,353,539,215,186,143
166,438,158,352,514,217,175,134
170,486,159,330,445,225,171,141
165,547,145,317,508,226,183,145
170,565,126,311,552,246,207,144
155,460,122,320,771,263,232,138
163,522,132,291,798,261,234,140
163,494,130,275,819,253,231,138
162,434,115,223,809,268,242,149
162,415,115,194,970,274,241,148
176,473,164,222,863,276,242,152
160,410,170,271,889,280,236,158
162,370,161,280,901,279,234,157
181,367,198,286,904,287,222,135
195,409,214,339,673,273,215,128
196,435,201,325,667,232,183,130
191,437,190,280,719,235,222,147
182,465,190,293,650,263,249,141
158,455,169,306,684,254,258,148
201,427,156,310,740,283,259,163
194,399,124,322,752,333,293,174
197,364,122,333,680,355,293,158
204,333,135,315,720,353,289,157
217,388,140,307,734,371,299,149
186,394,134,249,685,347,301,163
194,328,133,223,616,335,332,152
198,320,131,212,601,312,311,165
222,355,144,232,630,337,328,168
214,296,119,221,561,302,339,191
211,284,115,228,592,307,326,179
204,336,130,231,652,335,304,178
220,422,165,250,655,344,337,169
205,444,139,234,626,302,358,202
219,473,145,228,615,319,374,189
200,477,151,242,623,361,394,191
204,450,151,244,616,322,380,196
201,401,113,236,639,307,344,193
201,353,113,245,598,304,302,174
195,322,108,255,615,286,253,171
199,297,103,294,581,261,267,157
195,282,90,303,509,237,246,137
178,249,86,329,414,235,255,143
165,264,109,345,504,263,264,124
148,242,115,351,503,265,252,134
188,280,119,310,509,235,232,149
204,310,136,299,544,239,258,165
223,300,148,281,611,233,282,155
221,279,138,267,574,206,290,156
226,296,130,258,561,213,294,157
204,282,131,268,582,206,276,153
182,253,124,294,566,206,259,143
159,256,119,281,562,250,242,151
166,241,112,258,562,247,240,157
185,263,165,281,560,251,255,158
180,280,172,311,532,246,260,148
197,274,166,286,539,237,270,151
201,370,167,282,535,230,272,154
197,371,168,283,513,259,267,152
180,351,123,253,489,250,258,147
185,319,100,187,508,266,278,162
165,336,92,182,478,268,272,171
157,246,75,185,424,254,271,162
164,261,77,190,409,238,274,173
185,303,97,215,463,275,290,174
197,472,99,226,450,285,278,170
208,543,96,223,461,298,288,156
205,542,124,233,488,309,280,160
203,537,132,243,505,303,277,156
196,526,111,218,465,267,259,167
175,392,113,220,483,252,241,164
164,285,118,227,480,254,214,163
194,291,90,220,465,219,211,166
193,294,75,207,423,207,180,152
195,279,92,261,613,199,193,138
241,301,101,255,694,185,186,141
254,300,104,258,700,174,205,151
233,288,108,246,705,176,189,151
235,296,120,257,731,179,192,150
240,290,108,194,578,205,217,147
198,298,95,186,447,215,230,152
178,417,84,163,675,221,238,140
177,421,76,203,677,227,260,133
173,410,48,190,696,239,267,136
151,411,62,191,740,221,243,135
148,398,62,197,761,219,240,141
144,245,69,208,684,211,225,150
144,394,73,176,713,215,213,149
187,451,102,247,807,219,238,163
186,466,114,258,759,224,232,161
173,483,115,260,746,232,233,141
176,498,112,263,734,227,230,130
183,385,118,269,751,262,247,143
169,317,99,193,728,247,216,133
162,282,77,185,784,251,231,144
174,229,71,178,774,236,226,145
175,214,101,176,687,245,225,149
183,283,101,160,693,189,192,143
170,327,100,157,698,194,188,143
170,336,99,149,660,173,177,126
166,329,104,147,662,195,199,127
163,324,79,156,660,236,234,130
147,269,71,165,607,240,235,136
131,216,65,185,509,263,252,143
128,202,63,187,566,266,239,145
144,226,65,200,569,268,232,152
151,228,60,176,563,230,199,147
158,212,55,191,592,214,205,148
150,206,60,180,598,175,190,128
147,198,60,183,518,206,221,122
141,188,49,173,527,189,221,123
154,179,58,187,533,178,219,119
140,167,73,178,475,183,225,103
155,153,73,188,464,196,221,119
164,159,84,218,486,185,216,132
149,143,88,229,502,197,211,118
134,138,81,226,490,201,215,138
154,138,69,216,513,245,229,165
141,137,63,203,446,238,235,153
205,172,59,176,475,223,211,149
206,169,56,172,486,216,205,156
210,176,62,165,487,244,224,153
212,191,59,158,435,204,216,135
220,200,61,166,454,214,214,138
164,168,46,148,432,215,232,139
173,171,56,145,378,208,234,141
177,176,55,143,365,176,203,141
161,154,53,140,371,181,176,129
148,147,54,124,559,177,163,134
167,195,80,176,649,203,173,129
177,204,79,177,664,224,168,131
164,191,77,174,656,213,173,143
163,189,97,200,714,228,187,144
162,207,124,233,668,229,196,142
154,164,110,205,611,210,184,180
152,178,115,204,623,196,191,178
152,195,136,223,625,197,196,179
174,217,132,221,616,181,202,179
191,205,108,221,567,177,220,180
200,216,114,223,562,182,225,149
187,194,126,251,582,174,234,143
199,227,135,248,607,185,237,119
177,216,130,237,592,193,225,119
173,230,147,223,543,204,230,116
164,228,146,221,631,211,228,117
161,237,129,175,679,227,225,133
160,202,109,173,694,221,220,133
184,203,114,178,656,226,234,128
173,178,95,173,646,207,223,129
153,173,93,175,522,220,217,126
162,164,102,186,410,204,206,110
147,148,102,180,332,208,201,111
134,148,96,172,344,190,190,115
130,145,91,151,331,199,174,119
151,149,92,163,302,170,166,120
146,179,103,185,335,188,169,120
154,198,109,188,383,215,180,125
167,193,112,204,404,221,177,124
174,202,112,215,501,220,188,118
159,201,121,221,580,218,191,115
173,188,115,202,550,195,177,117
175,177,98,194,553,162,170,116
151,173,92,176,524,164,179,113
150,191,100,166,496,194,189,116
168,186,92,144,427,190,180,112
155,170,81,150,410,185,191,111
157,189,78,145,365,189,195,117
154,196,79,141,373,189,194,116
164,190,75,151,306,172,202,127
157,190,69,153,290,199,222,127
176,192,68,136,304,207,212,128
169,183,67,136,294,205,213,115
169,174,66,139,337,192,206,118
172,177,70,136,350,193,173,97
163,178,65,138,350,169,152,99
160,194,64,136,386,161,153,100
154,177,67,138,432,156,132,107
157,184,77,164,440,154,145,106
162,192,65,166,437,138,156,112
154,190,66,159,412,128,151,109
135,167,66,165,378,144,151,102
144,176,68,171,327,139,165,95
144,167,57,149,256,140,157,111
160,149,58,150,270,132,153,110
162,141,73,161,287,140,153,107
163,136,68,152,331,127,155,105
158,123,60,136,337,132,149,100
205,137,60,139,349,123,134,97
182,134,62,142,334,113,127,105
187,163,54,134,330,97,126,105
195,170,52,135,280,98,129,119
196,169,53,139,309,94,124,131
156,160,56,155,363,111,130,121
161,152,67,175,353,115,136,120
154,140,67,176,367,128,149,145
144,139,75,195,403,122,147,142
137,152,99,227,394,122,151,134
137,159,99,220,335,123,158,138
149,176,90,204,363,139,161,133
153,167,90,205,351,132,150,112
150,168,98,207,307,140,153,104
147,151,76,171,272,139,154,105
152,164,90,193,317,130,149,98
124,146,96,188,309,112,133,101
120,150,91,176,296,129,143,107
134,147,77,155,306,132,134,113
165,168,97,181,340,138,126,110
156,156,96,176,364,161,133,115
150,164,96,177,357,166,144,107
165,175,99,180,406,159,131,104
151,178,99,180,400,155,138,99
117,160,77,161,427,178,155,100
108,160,72,146,381,157,143,89
132,168,69,139,354,148,133,102
120,152,62,139,293,137,126,108
125,156,66,140,310,154,122,128
127,164,82,145,268,132,121,128
145,165,77,132,260,140,118,130
128,145,74,123,283,147,115,133
120,154,75,119,292,146,130,126
119,152,75,121,324,134,134,124
115,149,59,106,352,132,130,144
88,139,52,103,368,126,139,148
102,147,51,124,421,136,148,145
107,140,55,132,448,138,151,146
107,141,47,124,420,125,148,146
106,134,50,130,387,121,147,123
113,136,54,139,396,131,146,121
102,121,60,123,326,114,133,126
103,113,61,128,309,124,129,125
108,100,62,145,329,144,142,122
125,105,58,138,353,158,146,130
119,101,54,147,345,147,150,131
131,115,50,146,345,167,161,113
174,154,50,137,335,161,151,118
178,161,49,131,323,148,135,109
171,166,48,131,323,137,117,102
176,173,51,110,310,144,118,96
166,165,45,125,307,129,112,94
131,152,35,123,299,138,127,87
126,155,36,125,291,152,133,83
129,155,41,133,272,148,141,80
122,151,46,133,265,146,132,75
128,166,44,122,250,142,130,85
107,151,44,122,248,140,127,77
96,145,46,116,231,117,121,76
84,130,46,106,202,108,111,81
79,123,37,108,203,111,122,99
68,134,35,109,239,112,120,96
80,134,37,112,241,99,115,93
88,139,38,105,249,109,116,88
89,144,36,102,270,111,118,85
103,147,36,95,268,109,110,71
103,124,38,96,241,105,112,64
92,125,37,95,232,104,106,65
100,118,34,90,220,106,116,79
114,122,37,96,184,108,115,77
106,123,37,102,172,99,114,71
108,133,35,92,189,116,108,71
129,135,34,87,193,121,116,81
127,129,34,86,199,110,110,75
119,142,28,81,221,104,110,72
129,158,30,72,220,103,104,74
125,160,32,88,235,87,108,75
107,347,34,91,244,84,99,66
105,449,36,95,227,81,91,60
104,481,34,98,260,104,97,60
88,479,34,93,265,116,101,58
85,479,32,77,240,114,102,53
84,365,30,70,230,109,110,55
76,232,25,60,239,117,121,74
66,138,28,55,196,102,112,79
83,124,25,61,205,97,108,83
82,109,25,67,211,105,114,85
78,103,27,78,236,110,106,86
73,102,25,78,235,106,96,70
108,105,24,78,274,110,99,74
99,104,26,74,270,123,115,74
102,96,26,71,273,124,108,72
101,99,24,54,250,124,107,67
100,84,24,55,240,119,102,64
66,83,24,48,175,109,101,57
56,79,22,50,175,108,88,52
53,87,22,45,159,114,92,53
46,87,23,44,169,121,92,49
51,104,25,39,172,125,95,50
58,106,24,49,196,163,107,62
59,113,24,52,214,180,128,65
74,113,24,59,232,200,130,74
76,117,23,58,245,209,141,78
77,108,21,64,300,244,150,86
85,127,24,61,313,235,144,79
92,124,23,61,291,216,126,80
81,120,23,76,314,216,114,77
81,117,30,86,302,214,112,84
81,117,31,105,276,181,111,80
75,110,29,115,261,166,108,83
75,129,32,122,267,161,107,80
77,134,35,124,238,133,115,76
86,136,32,122,241,132,137,70
85,140,36,120,261,122,134,65
99,144,51,144,257,138,146,67
95,142,68,147,269,153,151,71
95,150,75,163,300,160,146,86
95,148,79,170,310,144,122,87
92,147,78,169,282,144,119,87
70,136,70,146,277,121,105,77
65,123,72,154,279,97,93,78
66,120,71,139,239,67,95,71
60,264,75,139,217,68,84,73
60,316,76,130,213,70,89,74
61,471,79,127,243,74,85,76
59,480,64,108,222,78,88,74
63,478,70,99,224,79,87,65
57,425,74,108,263,71,91,58
57,404,74,112,257,85,84,53
62,317,71,116,235,92,87,52
68,370,74,117,232,91,87,51
67,388,64,124,238,91,86,47
70,404,48,109,198,95,97,48
74,391,47,102,206,80,96,52
66,311,43,97,193,77,100,53
60,228,35,96,187,81,103,52
52,195,35,75,172,78,104,53
66,140,36,69,171,87,98,58
66,133,33,71,156,96,120,69
68,120,33,67,166,102,124,69
74,111,36,74,186,98,124,67
78,111,36,95,200,108,126,70
69,107,33,93,198,99,123,64
71,111,34,98,204,92,121,57
75,113,35,103,203,84,107,58
70,120,35,102,179,82,103,58
73,125,29,84,167,72,100,57
78,121,28,88,156,76,103,60
75,122,31,84,159,73,86,55
75,119,30,83,152,72,90,55
83,127,28,72,186,71,92,55
89,124,29,79,185,73,107,57
84,121,30,74,197,69,104,54
87,120,30,70,195,95,114,55
83,124,31,62,198,93,128,60
81,119,37,79,171,94,124,63
80,121,37,72,161,96,114,67
76,118,37,72,157,95,115,68
75,109,38,75,140,67,103,67
75,103,36,77,126,61,80,58
73,92,29,62,155,63,84,58
67,102,28,59,157,62,96,56
68,109,27,65,153,60,91,55
62,108,23,62,152,59,89,49
59,106,24,61,150,62,95,50
57,106,26,61,121,60,93,44
52,89,26,58,116,56,75,39
54,89,25,53,112,56,76,39
56,98,25,51,114,68,87,43
59,107,24,54,122,70,92,53
57,101,21,59,138,67,89,57
75,104,19,62,138,67,87,55
75,103,21,59,139,67,84,54
77,97,21,67,164,56,74,53
77,96,21,64,175,59,73,47
80,105,23,60,193,65,80,43
65,103,24,59,195,69,84,44
69,101,22,60,203,76,94,48
63,100,22,53,184,82,93,55
61,93,22,52,170,78,87,53
52,85,20,48,134,74,81,52
65,95,21,51,169,80,88,57
64,101,23,54,179,77,85,55
67,100,22,50,181,71,84,49
68,104,21,48,184,74,82,46
80,110,22,61,200,73,93,48
65,100,20,60,170,71,88,39
62,87,18,57,151,75,94,39
73,93,17,60,165,78,99,39
74,91,19,60,162,78,101,40
68,85,21,55,144,78,95,42
70,94,20,55,152,77,102,43
74,98,23,58,164,69,98,42
64,93,25,59,161,77,101,43
71,93,25,60,157,75,100,43
68,95,25,53,157,76,99,47
67,82,27,53,160,66,87,53
64,88,26,58,157,68,81,54
64,89,26,52,141,49,66,51
63,107,25,51,164,49,64,55
60,104,22,55,166,49,67,50
59,115,22,54,165,52,77,43
55,112,22,48,150,52,75,41
50,115,22,47,151,59,79,44
64,97,23,57,136,660,83,39
66,101,22,54,132,1057,77,36
63,91,21,55,145,1250,67,40
68,87,35,97,198,1405,77,62
73,84,38,247,311,1447,75,110
52,99,39,268,367,1296,69,125
52,97,40,280,383,1000,72,136
61,96,40,283,378,744,74,137
67,101,29,271,355,379,66,130
62,101,26,148,269,147,68,93
67,96,24,99,186,64,73,71
69,94,22,59,159,42,67,46
62,93,22,73,175,29,72,44
53,94,21,77,179,22,67,41
52,87,19,77,180,20,71,43
53,85,19,81,182,19,64,48
50,84,21,91,181,17,68,52
50,82,21,72,158,17,62,49
45,76,22,69,161,16,72,53
62,87,23,88,202,16,70,51
64,84,23,106,210,16,78,49
71,116,22,370,525,16,78,174
78,158,26,513,761,15,78,239
78,174,29,583,875,16,70,274
67,172,33,589,869,16,64,278
61,172,33,586,866,16,63,278
74,167,33,465,727,16,64,222
68,140,31,300,486,15,63,150
69,126,28,115,226,15,65,66
70,129,21,59,246,15,62,43
69,126,20,57,253,15,54,38
44,104,20,57,221,15,50,33
47,91,20,47,197,15,47,28
54,84,20,48,185,15,42,32
59,82,20,45,129,15,40,32
58,79,21,43,117,15,51,35
63,88,21,39,126,15,76,40
60,87,21,43,134,14,90,41
56,91,20,41,129,14,94,46
49,88,20,47,140,16,95,50
55,94,22,51,140,424,90,48
47,90,21,50,138,620,73,48
53,90,22,51,126,704,62,55
51,87,22,50,135,745,57,52
53,84,21,47,117,790,55,50
54,92,20,44,145,700,56,51
57,90,21,49,138,558,52,48
51,87,21,51,133,469,52,43
55,90,23,50,132,431,58,42
52,92,24,54,150,385,57,39
47,78,25,53,128,352,55,36
43,76,24,49,134,330,54,37
42,74,23,43,145,338,47,31
49,79,23,43,140,362,43,36
53,74,22,41,125,348,43,36
50,77,21,42,128,351,44,36
50,78,22,42,131,392,42,37
59,78,21,45,117,425,47,40
51,66,21,49,124,450,48,36
56,74,21,50,129,482,49,41
57,73,21,45,122,518,61,42
57,72,20,45,120,535,63,40
47,80,20,42,126,541,63,38
42,86,19,39,152,552,62,42
30,89,21,35,150,559,66,39
37,89,20,40,148,535,60,39
39,92,20,47,145,503,64,40
42,87,20,52,177,471,62,38
43,83,21,54,160,412,62,35
51,75,20,57,158,372,57,32
47,77,20,54,157,371,56,34
51,76,20,48,156,371,52,35
51,73,19,48,115,368,55,38
52,75,18,44,102,385,54,36
51,79,18,44,94,390,55,40
49,81,20,47,102,398,49,35
42,81,21,48,106,409,47,34
43,84,24,46,116,433,43,33
42,84,24,47,110,411,75,36
38,81,23,46,108,416,93,33
37,77,22,44,108,423,95,37
42,78,21,43,105,438,99,41
40,78,21,44,97,445,100,42
42,75,21,45,103,493,77,40
39,76,21,43,139,529,53,40
46,79,23,43,136,528,58,41
41,77,25,50,145,521,50,39
39,74,23,47,140,515,50,41
35,81,22,46,144,498,52,46
40,81,24,48,118,465,55,47
35,76,24,47,116,439,53,45
36,73,22,40,104,418,61,44
42,75,23,42,124,413,63,41
42,64,24,44,118,390,69,37
43,63,23,42,116,395,68,36
41,66,23,45,122,432,64,37
43,70,22,45,136,466,65,42
37,73,21,46,125,511,65,44
37,77,20,42,130,565,60,44
31,76,19,43,136,563,60,44
31,81,18,44,155,607,60,44
46,87,21,44,148,643,52,40
50,87,22,51,147,615,51,41
52,95,24,55,150,577,59,44
56,94,26,52,146,571,69,46
56,89,26,50,123,507,74,53
43,86,26,50,130,448,74,53
40,82,24,44,128,449,71,52
43,73,23,41,126,450,63,51
39,73,22,41,136,476,60,48
39,74,21,44,151,501,53,38
39,67,20,49,139,511,54,35
42,70,19,47,138,528,65,40
47,75,18,47,138,542,67,40
49,78,21,48,123,520,63,49
54,84,21,45,109,530,67,50
63,98,21,51,113,539,92,54
63,99,22,56,124,524,102,49
60,97,22,55,130,553,104,51
60,94,22,58,134,598,104,53
56,92,22,58,132,625,103,64
48,83,20,52,145,636,81,64
48,88,25,59,155,662,64,63
50,87,28,66,158,640,73,61
52,86,32,66,164,603,78,59
53,89,34,69,168,550,80,51
55,85,35,78,176,510,84,50
53,82,33,71,167,466,84,53
48,80,34,74,171,422,92,56
43,89,32,77,169,402,89,50
41,87,29,78,180,411,86,49
40,95,30,76,162,432,84,50
43,96,28,78,161,459,82,48
40,103,25,67,146,514,60,49
41,96,23,64,143,544,60,47
39,91,23,61,127,579,75,45
40,97,21,51,131,613,75,44
41,97,22,49,124,602,76,47
41,95,21,50,139,583,73,46
41,103,21,47,145,580,78,52
44,101,20,51,147,532,71,51
44,87,20,55,149,475,77,50
41,86,20,50,160,467,81,52
44,83,20,55,146,450,89,57
44,76,21,58,141,441,91,51
46,78,20,56,139,467,85,56
46,80,19,48,129,477,77,56
48,81,21,48,114,481,75,54
44,81,22,51,129,557,72,45
49,81,21,53,133,544,60,44
48,79,21,48,129,530,71,43
45,78,22,48,132,537,107,43
42,78,21,51,141,525,124,39
43,87,20,47,138,448,126,39
38,85,21,41,136,483,128,44
39,93,20,43,132,510,125,50
37,96,19,44,133,537,99,50
39,95,19,42,140,586,71,50
46,85,22,42,127,617,64,62
47,95,23,47,141,673,66,68
51,93,22,49,154,661,61,62
50,92,24,49,155,636,65,63
48,91,23,53,148,591,67,66
43,96,22,50,154,568,67,56
40,88,21,50,137,473,64,54
63,92,22,52,131,445,78,52
69,90,21,51,137,445,75,52
69,92,21,48,127,454,77,49
69,90,20,50,120,465,77,52
70,87,20,48,125,507,78,52
43,83,21,45,119,545,68,52
35,84,21,48,119,551,64,52
44,81,21,51,132,568,63,51
44,79,21,47,136,576,61,45
47,101,21,46,153,589,61,41
46,96,20,44,156,589,58,44
51,102,22,42,172,603,60,44
52,108,20,40,169,590,66,50
57,113,21,50,172,568,74,56
54,107,22,52,160,526,75,54
55,129,22,58,167,505,77,53
50,127,20,64,157,491,80,58
44,149,23,63,155,468,112,57
37,172,21,60,154,448,130,53
40,165,21,60,149,449,132,51
51,160,20,56,139,450,131,53
51,162,21,49,135,429,134,48
49,141,19,46,160,450,105,45
48,114,21,39,173,467,74,49
47,122,22,37,176,456,72,50
37,107,22,37,177,450,71,47
53,105,23,42,167,476,64,48
52,109,22,48,161,551,64,50
53,104,23,51,150,633,74,47
55,102,22,54,148,711,84,46
54,106,22,55,150,765,83,47
54,106,21,49,147,772,85,46
62,102,22,52,149,732,82,43
68,101,22,60,165,656,79,46
66,98,22,57,188,587,71,47
73,96,25,62,199,505,77,45
62,100,25,65,218,453,75,47
58,91,24,65,207,419,73,48
52,90,24,59,204,412,75,51
51,94,24,59,182,383,73,53
55,98,21,58,165,390,68,54
65,94,23,60,140,407,70,52
66,102,25,57,165,422,75,49
65,109,24,57,184,438,73,44
67,110,24,58,194,449,68,42
56,102,23,61,214,466,74,41
55,101,20,62,226,501,74,42
50,118,19,67,219,563,75,45
52,119,19,67,238,593,145,47
49,112,26,75,244,610,171,48
55,126,44,125,261,616,171,51
57,143,52,128,264,602,176,51
70,140,60,136,269,552,185,52
78,158,86,178,290,513,141,50
78,162,92,176,300,483,129,49
75,164,92,149,284,474,137,52
67,165,93,153,283,456,135,56
56,161,95,150,269,437,123,54
50,158,75,106,217,456,120,58
52,167,66,111,197,459,100,55
51,158,56,104,185,447,92,51
49,144,49,93,176,441,86,48
47,140,36,98,192,457,84,49
50,127,37,111,189,458,75,63
49,114,36,108,183,494,77,73
52,113,35,109,195,543,64,72
60,115,41,123,213,587,77,72
74,129,47,134,210,600,87,76
73,124,47,123,197,607,98,61
72,126,50,133,255,584,100,53
71,127,54,136,255,538,113,57
73,140,58,132,242,497,122,57
66,132,52,107,262,505,112,53
64,131,51,102,269,510,112,56
64,133,54,93,216,516,113,58
62,130,52,95,217,519,112,57
58,123,49,86,213,526,98,63
63,120,50,93,183,499,107,67
59,165,48,91,180,464,120,66
61,208,45,88,218,478,154,62
65,239,54,91,209,520,176,60
69,240,49,92,210,512,175,57
70,241,52,104,216,514,177,50
83,218,55,103,216,544,173,52
87,183,55,97,195,525,147,57
87,148,47,97,204,492,123,69
87,156,44,96,211,529,124,71
79,148,40,83,204,511,123,74
67,141,43,98,212,474,114,73
65,135,51,108,209,481,111,71
65,126,53,104,202,456,102,62
64,102,53,106,208,401,95,61
67,104,53,109,212,406,88,57
68,105,50,97,202,403,93,58
64,96,38,89,226,393,96,58
68,98,35,96,242,399,91,59
72,100,31,93,247,386,101,55
72,102,33,87,242,381,100,54
75,96,28,82,237,402,96,55
78,97,27,85,217,384,85,53
75,109,25,74,217,401,86,52
73,110,29,81,210,434,90,55
72,114,25,83,229,438,96,61
71,120,26,87,238,441,104,65
78,138,26,84,258,536,136,71
80,139,26,85,261,570,147,71
72,146,32,94,293,576,141,71
70,138,36,98,285,573,170,69
73,136,36,108,291,556,183,68
63,117,41,108,276,472,171,63
66,106,42,114,250,408,184,69
67,104,37,99,199,388,184,66
67,129,35,87,195,381,160,74
58,154,36,84,202,375,144,79
58,161,41,84,173,368,139,83
57,185,39,70,178,362,105,78
56,181,38,78,180,352,113,82
53,174,36,85,216,351,127,75
53,163,38,82,191,354,124,66
52,160,30,91,194,368,124,58
41,133,32,97,194,429,128,61
41,132,32,96,209,445,126,54
41,121,34,95,171,463,119,53
40,110,33,97,197,485,119,54
43,112,37,95,203,472,114,62
55,109,35,93,208,441,122,63
55,104,35,89,204,434,128,65
58,106,37,83,197,410,112,62
58,104,34,83,176,404,125,63
61,98,30,76,194,417,128,54
53,91,37,100,208,398,130,49
59,109,40,106,197,370,124,54
60,107,38,107,192,371,131,54
62,105,36,104,188,341,124,52
72,108,36,100,198,302,120,55
75,109,36,81,180,297,147,59
73,96,37,78,188,320,181,55
69,101,38,79,187,352,184,60
69,100,38,76,190,404,183,61
53,126,39,85,148,431,192,62
49,193,43,78,147,470,166,60
48,202,41,80,135,493,124,58
50,204,40,80,137,496,111,54
49,201,41,81,130,480,100,53
51,187,42,74,133,509,76,56
53,123,31,73,137,464,75,57
54,102,29,62,153,432,75,58
59,94,29,59,163,402,79,64
59,104,29,52,176,390,81,77
56,112,28,61,197,409,83,80
51,115,28,58,202,466,76,84
50,116,27,61,236,483,75,97
43,116,27,64,246,513,80,96
42,119,28,66,236,543,86,85
47,109,23,61,242,525,104,84
49,103,23,61,240,486,110,78
50,107,24,65,193,470,109,62
50,105,25,65,186,467,101,62
54,91,25,84,196,448,111,69
61,91,27,88,168,424,99,69
59,86,26,92,181,447,102,70
75,85,27,91,209,453,123,69
74,91,26,90,221,470,132,68
84,108,24,78,229,473,124,76
82,109,23,72,226,463,122,69
89,128,22,66,227,496,121,77
75,127,21,62,205,531,112,77
75,120,25,63,187,494,99,78
64,110,27,63,184,483,102,65
70,107,27,62,198,512,110,66
64,86,26,63,176,450,108,61
68,93,28,63,192,422,97,63
68,95,24,63,195,515,107,59
67,96,22,59,186,628,99,56
62,96,24,63,184,654,99,54
64,94,26,65,188,688,96,55
61,79,24,62,165,680,100,51
62,91,25,62,152,697,97,52
61,85,27,62,159,672,96,54
64,88,28,56,149,663,82,54
59,93,27,52,149,666,82,49
61,95,28,60,158,696,75,50
65,88,28,67,190,611,67,50
65,89,25,64,188,553,76,57
57,83,22,63,185,545,80,60
61,74,22,63,183,516,81,60
66,83,21,58,175,591,85,61
71,90,20,62,142,665,83,66
72,89,19,67,147,632,90,69
74,93,18,69,149,598,91,69
76,99,18,70,149,599,85,79
70,96,20,70,167,491,90,80
83,101,19,64,175,435,100,81
86,103,20,60,177,506,93,77
86,106,21,60,174,545,100,74
82,108,23,63,171,580,100,65
84,111,22,65,150,608,103,61
63,100,24,65,173,627,114,58
75,99,29,84,169,643,111,63
74,140,42,112,185,654,113,65
77,170,48,121,190,665,112,67
78,257,68,145,226,654,104,69
78,259,80,156,258,606,101,72
72,277,88,157,268,548,107,76
75,280,96,159,285,521,103,75
71,266,98,152,285,446,104,72
68,188,86,134,261,422,107,79
69,191,82,132,218,448,102,76
60,174,81,131,209,434,96,64
51,135,69,109,178,461,95,77
58,128,65,108,177,504,101,79
56,121,66,114,201,511,107,77
52,111,65,101,192,528,100,77
58,103,68,108,190,569,96,78
64,110,68,107,181,538,100,68
60,101,66,106,171,535,99,75
62,100,64,92,153,566,88,75
66,105,62,112,173,544,88,77
65,112,55,114,158,519,108,82
70,104,57,130,170,530,103,89
73,108,63,138,180,526,104,85
72,111,75,148,184,511,106,81
73,114,73,136,154,534,107,82
72,99,67,118,152,559,85,81
63,99,62,102,154,565,80,72
62,100,58,107,163,558,82,68
62,112,42,106,145,562,95,75
56,107,43,114,157,544,108,67
54,113,43,114,155,525,121,79
58,113,41,112,153,493,122,85
54,117,63,114,155,498,122,86
53,106,68,128,174,477,113,83
62,107,65,122,167,465,100,85
61,108,65,120,178,485,96,74
56,105,67,128,175,550,102,68
57,101,47,117,168,597,105,62
70,107,45,98,155,655,106,64
64,111,42,99,153,682,106,63
70,110,44,109,143,669,99,59
70,129,53,105,158,691,103,58
73,129,52,111,164,658,105,61
72,125,49,104,162,616,99,55
71,118,55,104,172,578,105,62
66,126,55,104,236,609,113,65
66,113,46,95,235,545,110,66
68,113,43,85,231,530,110,64
62,176,40,85,232,531,113,68
66,200,31,75,230,529,105,58
65,201,28,72,163,494,120,53
71,206,22,90,184,494,113,54
68,204,24,94,194,512,110,62
63,145,25,93,187,519,109,62
58,108,25,96,188,589,118,65
56,96,26,91,198,583,94,63
63,78,25,75,166,583,102,62
63,78,22,67,166,604,102,60
65,92,27,76,214,618,104,66
69,94,27,73,217,596,96,65
75,94,27,80,217,617,104,70
65,112,27,81,230,632,95,71
61,120,28,80,220,626,88,64
62,123,21,73,180,601,81,54
72,123,20,80,178,576,76,62
71,122,21,69,178,586,77,61
69,112,24,69,182,624,81,67
70,104,25,74,183,598,95,70
83,97,26,75,181,575,97,77
76,105,25,67,174,608,97,71
75,102,25,73,164,549,93,72
75,100,23,67,133,450,109,72
76,100,24,71,155,420,108,73
58,98,25,72,158,409,111,71
51,92,24,67,158,357,112,72
53,93,25,67,166,407,105,78
55,95,29,68,170,437,93,74
56,103,26,65,154,458,80,75
56,101,25,68,165,475,81,72
57,96,28,78,192,458,83,71
52,101,30,77,199,418,85,66
50,95,27,78,199,397,81,63
53,92,27,76,200,380,84,66
54,104,29,71,201,402,91,69
62,106,28,64,180,397,92,74
71,101,25,63,173,411,101,70
73,100,28,71,181,415,104,69
68,90,31,73,164,456,121,67
71,80,33,72,155,434,115,66
63,83,36,75,168,471,113,64
55,83,36,75,174,512,115,68
55,87,34,68,164,557,111,72
68,99,33,71,181,564,94,69
67,101,32,85,191,586,97,65
65,99,30,85,214,575,104,62
63,102,29,81,217,547,92,60
60,110,28,80,218,485,89,60
52,109,27,72,227,429,96,61
56,112,26,59,222,399,98,64
59,109,23,64,193,393,98,71
62,101,23,62,193,394,101,70
61,94,27,71,203,408,104,66
60,95,28,72,181,424,95,64
59,86,27,73,181,435,85,62
61,87,27,65,178,439,78,51
56,89,27,69,161,470,78,50
56,90,24,63,150,473,82,50
58,86,23,59,147,511,81,51
58,86,22,54,149,590,92,56
68,87,22,61,146,638,106,56
71,89,22,69,152,654,103,57
72,88,24,68,163,695,95,56
67,88,27,69,175,692,95,53
64,89,29,69,176,618,92,49
65,94,33,66,177,560,73,52
62,96,37,60,186,509,90,58
72,115,38,62,211,506,96,58
78,113,36,69,224,509,99,61
85,120,38,72,218,538,97,63
77,114,39,74,246,561,96,61
81,115,37,78,256,588,86,67
79,97,35,75,236,584,90,69
79,96,35,79,239,569,91,74
75,85,31,80,246,553,95,85
76,82,25,81,215,544,100,86
78,81,23,80,202,533,98,80
75,81,21,81,206,509,94,83
73,87,21,73,193,528,90,79
72,89,21,67,185,548,82,64
68,101,21,74,221,571,77,65
63,105,19,67,207,594,72,62
68,105,20,73,206,597,71,68
64,118,21,74,192,573,73,67
63,120,20,77,191,567,79,68
76,114,22,74,179,526,94,83
77,109,23,74,190,502,103,80
72,115,26,76,191,508,102,76
74,98,25,85,204,494,108,82
79,104,26,85,214,476,105,81
68,108,25,83,195,490,102,69
68,104,22,83,198,459,95,78
67,101,22,78,199,434,91,74
65,100,23,68,218,445,94,66
63,96,25,76,213,442,94,70
68,89,26,67,213,449,83,78
76,95,27,74,250,464,85,76
79,95,25,76,262,465,111,77
78,93,27,77,262,481,101,86
76,97,33,74,264,535,101,83
69,114,33,74,267,581,100,71
58,124,33,70,240,592,98,74
58,123,35,68,211,587,77,85
61,122,35,66,201,595,83,82
59,116,28,63,196,560,86,90
59,101,30,64,188,499,94,91
74,87,33,63,172,470,95,85
74,82,31,62,174,445,87,76
78,85,28,61,154,377,86,71
76,91,27,55,161,337,86,60
75,88,25,57,166,317,81,64
77,102,22,69,163,311,81,66
77,109,23,69,165,331,82,69
71,108,26,70,161,347,84,75
87,110,25,97,175,370,90,79
91,108,28,97,173,389,88,83
79,100,28,88,190,398,96,90
83,95,31,94,206,410,96,91
103,100,31,102,206,434,90,92
93,96,36,78,179,415,88,93
89,96,40,79,187,459,83,90
92,95,43,85,193,479,75,86
113,92,45,89,193,479,79,86
115,98,53,94,210,474,82,78
115,107,51,97,218,495,76,75
117,104,46,93,216,455,80,73
113,100,46,90,204,455,80,67
83,103,50,89,195,450,85,60
60,108,52,86,199,445,83,66
62,104,52,89,190,409,91,82
62,110,53,98,184,391,88,85
68,114,52,96,173,351,93,84
70,111,47,94,203,363,95,82
84,106,41,95,193,384,102,80
90,115,47,104,196,411,100,64
88,112,46,110,191,424,105,60
84,103,46,119,193,448,99,62
87,109,51,128,166,456,88,65
75,117,47,126,175,461,90,68
64,116,40,119,183,466,82,74
65,131,42,116,211,480,85,76
69,136,40,109,227,476,88,73
68,137,33,112,234,440,95,86
71,129,36,133,233,429,91,83
71,113,35,135,239,396,102,76
75,97,35,129,216,391,106,72
71,96,38,129,213,432,104,73
81,95,35,118,206,460,99,69
76,95,36,105,193,465,108,66
77,101,38,103,213,503,101,71
72,111,36,106,228,495,95,75
75,116,36,116,215,522,97,81
61,113,34,110,202,575,103,69
64,112,29,90,201,566,102,66
60,111,26,86,163,549,111,67
58,101,26,77,150,564,113,68
52,94,25,58,149,514,112,74
59,102,23,76,164,462,103,78
69,95,25,82,165,491,91,79
79,96,25,80,169,492,80,74
82,100,26,83,172,496,71,79
83,102,27,81,168,505,76,71
85,92,27,60,154,481,80,70
71,90,27,59,144,445,81,67
65,81,26,59,145,450,95,71
69,82,26,59,132,426,96,60
68,77,22,59,131,408,95,56
73,83,24,80,142,446,96,53
77,82,22,74,140,463,95,63
77,84,24,75,136,501,82,63
72,73,24,74,136,522,85,62
75,83,24,77,142,577,86,60
60,76,23,62,140,604,86,62
57,84,24,66,141,626,85,61
61,93,25,69,142,607,85,61
66,104,24,71,137,628,88,63
71,101,25,78,133,611,84,63
73,102,26,76,135,588,80,60
69,99,25,75,146,579,82,54
76,96,24,72,151,567,87,53
77,90,24,77,161,536,89,58
72,88,22,75,174,536,89,66
68,89,19,74,165,558,95,65
74,88,19,73,177,581,90,67
67,89,20,71,165,640,82,70
65,90,21,61,159,642,68,64
63,87,22,51,160,621,86,57
70,90,24,50,160,620,84,64
67,87,24,52,144,589,89,66
62,80,24,52,145,545,94,58
69,82,23,60,150,559,101,66
68,84,24,66,128,580,86,66
69,75,23,63,128,601,83,62
69,79,22,64,138,640,83,59
79,85,22,67,133,646,94,60
76,82,23,64,144,698,90,54
76,76,20,56,152,717,97,53
77,85,21,56,159,687,100,60
79,86,23,54,148,645,100,58
77,88,23,51,151,645,87,57
69,88,22,47,151,569,87,53
74,91,24,49,151,530,76,52
74,88,24,52,146,515,75,54
78,88,23,60,167,511,70,58
67,81,22,57,168,519,67,61
74,90,22,62,152,536,72,72
69,89,26,60,153,556,77,73
70,84,26,61,145,608,75,66
61,81,28,51,121,634,79,63
63,83,30,61,148,635,81,64
65,76,33,57,157,634,80,54
68,88,34,69,153,620,77,53
69,89,32,66,165,586,73,64
72,90,30,66,160,584,75,65
93,103,28,60,143,592,82,66
88,104,24,64,145,603,85,68
84,97,17,53,157,603,90,70
80,95,19,53,145,591,94,61
85,95,19,53,158,582,98,67
63,79,20,52,158,559,91,69
69,77,23,52,160,554,84,68
69,71,22,49,143,551,77,65
65,79,21,53,151,546,78,60
61,80,23,51,139,542,68,51
60,81,23,62,145,542,78,44
56,79,21,59,133,523,82,44
56,82,20,62,141,532,86,46
64,78,21,62,134,555,85,46
75,81,20,64,142,557,82,48
78,80,20,63,136,597,76,46
77,80,21,65,154,643,80,44
76,85,21,66,151,672,74,40
79,90,19,67,147,698,75,45
70,90,22,67,141,716,74,45
65,88,22,62,139,676,66,43
64,95,22,62,142,669,58,47
64,92,23,64,173,628,61,48
54,90,24,60,171,572,68,44
49,89,22,60,171,550,70,43
48,87,21,56,161,548,86,55
61,84,22,55,138,509,92,55
65,86,23,55,98,511,91,56
68,88,23,56,119,557,106,62
70,93,24,58,136,565,117,65
69,94,24,63,152,592,117,61
72,101,23,67,171,611,129,67
78,102,21,67,180,623,134,69
79,98,21,69,179,622,136,73
76,89,20,65,167,658,129,69
80,92,21,64,158,644,130,68
82,98,23,61,136,659,114,63
78,105,22,61,133,681,112,66
78,114,22,59,124,672,90,60
95,126,22,66,149,638,93,61
95,125,22,62,151,621,81,61
87,110,21,55,156,596,87,59
85,100,20,50,153,555,88,70
84,92,20,50,151,544,89,67
70,80,20,46,126,533,86,71
68,81,19,44,142,551,86,71
61,82,20,48,139,523,85,70
70,91,20,54,148,512,89,57
77,95,19,55,142,501,96,65
75,96,18,50,136,500,98,64
76,100,19,51,126,503,102,68
83,99,18,63,154,544,111,71
76,92,20,66,151,567,110,71
70,85,23,67,177,566,106,69
80,88,24,70,192,581,102,65
84,87,23,77,188,579,102,58
86,92,23,67,169,576,93,55
83,91,28,69,160,564,97,64
86,97,26,67,147,549,102,64
75,92,27,68,129,537,105,63
71,89,31,80,133,513,109,66
58,92,31,83,137,497,107,70
72,103,29,78,141,484,102,66
71,105,30,90,139,489,96,70
74,108,30,103,165,468,95,78
71,112,26,91,194,478,92,75
90,113,28,100,201,471,99,73
78,108,32,106,203,497,93,69
76,100,32,96,198,492,86,61
75,103,32,81,180,510,81,51
81,103,32,83,156,540,90,54
70,99,30,65,138,564,78,52
71,95,28,57,162,569,77,49
71,103,28,59,163,618,84,53
70,102,28,61,168,627,92,52
69,93,28,59,161,620,82,56
61,91,29,60,180,620,83,56
61,90,23,62,158,611,87,54
91,104,24,82,172,578,85,62
90,103,23,85,171,559,94,63
87,111,25,81,167,551,87,57
92,115,22,83,149,535,91,62
94,114,23,89,157,530,89,63
76,96,21,76,156,527,102,56
75,91,26,69,150,513,88,55
75,87,26,71,153,508,98,61
67,82,27,70,153,492,93,56
70,88,25,59,139,497,96,62
63,93,26,55,139,535,83,64
66,96,23,57,151,542,83,65
64,98,21,60,150,565,87,62
80,115,23,61,155,606,90,65
86,117,23,63,176,604,87,65
83,113,21,59,180,606,98,60
83,113,24,59,190,638,99,61
86,111,24,62,198,614,97,74
76,97,22,63,204,594,101,81
62,87,25,67,195,609,105,78
59,93,28,70,185,593,91,80
56,100,28,74,173,554,92,83
58,102,32,70,179,560,87,76
55,93,34,81,174,545,81,71
53,94,34,79,181,502,85,74
50,88,32,79,188,501,94,72
50,83,33,85,184,494,97,69
49,76,29,85,171,472,98,71
59,87,28,75,168,482,96,71
64,89,27,71,144,481,91,66
71,95,29,76,148,473,85,67
72,98,27,64,152,505,83,73
70,102,29,64,147,509,79,66
62,99,28,61,163,519,79,63
81,114,43,67,177,579,75,65
77,110,59,72,188,571,75,66
78,109,63,95,193,567,76,61
80,107,64,93,210,575,75,62
87,105,66,97,197,559,82,60
70,86,56,95,195,508,90,61
104,106,40,104,208,504,89,67
104,105,33,86,196,481,88,66
104,107,30,86,195,462,87,65
110,119,26,82,203,460,84,67
116,125,26,81,203,462,87,70
90,110,22,65,173,497,108,70
95,113,21,72,202,504,116,69
104,114,21,77,199,540,125,75
91,108,20,79,205,551,128,87
84,121,21,83,247,637,120,93
88,143,21,79,256,649,101,90
80,153,20,73,248,662,100,92
67,153,20,73,256,652,93,88
90,157,22,77,252,627,89,78
96,146,23,77,238,521,94,68
98,132,24,78,236,464,91,65
109,131,24,80,233,434,92,60
110,132,22,76,220,404,97,61
100,125,22,70,213,426,98,66
100,127,22,63,185,453,100,67
100,130,21,66,169,441,102,71
102,116,21,62,160,432,92,73
107,111,24,70,179,451,82,72
100,110,23,71,174,429,75,63
109,113,23,70,164,393,68,64
102,100,22,62,156,386,67,62
95,105,24,66,151,379,74,57
89,107,21,55,119,353,76,59
89,112,21,61,141,432,78,59
68,100,20,60,143,444,75,55
68,104,20,70,154,479,75,60
62,99,18,65,149,531,65,66
62,104,20,65,164,561,60,67
60,97,20,61,175,534,68,67
62,100,21,70,188,549,79,68
69,93,21,65,183,537,89,62
71,96,22,63,180,491,90,60
77,89,20,66,164,461,100,63
80,90,21,62,135,418,104,66
77,85,21,60,116,383,105,68
76,82,21,61,121,340,98,67
73,77,21,63,131,322,108,67
69,72,21,60,128,316,100,59
67,76,22,66,129,348,91,60
73,80,21,64,136,441,90,62
73,89,21,59,136,481,96,60
71,92,22,57,136,526,95,58
83,94,22,60,141,579,104,63
84,89,21,64,150,579,121,69
87,92,21,67,162,528,120,66
89,89,24,77,167,551,121,79
89,88,26,87,161,532,116,80
80,84,28,84,162,499,108,90
78,83,31,82,182,509,87,86
91,86,33,86,189,507,105,89
87,83,30,79,180,474,98,85
94,118,28,71,181,479,102,87
93,282,28,76,178,468,102,74
94,338,32,73,146,465,104,77
77,434,33,85,135,493,80,70
82,465,32,97,158,470,79,75
82,464,34,98,170,445,78,75
80,466,39,111,186,466,84,77
78,461,36,121,187,436,87,72
74,372,34,106,176,438,87,71
79,335,37,97,158,504,93,59
72,328,40,97,151,516,101,55
77,203,36,91,140,547,97,55
77,100,35,81,137,623,93,52
78,90,35,82,148,650,93,57
61,80,37,93,173,645,90,59
81,97,34,117,174,671,84,72
83,105,38,123,168,627,92,70
85,109,40,126,183,560,95,71
90,114,42,129,174,498,98,78
95,116,39,123,149,426,103,77
81,98,39,104,156,373,98,69
78,108,48,100,165,383,101,69
74,110,47,101,160,387,104,68
69,110,45,97,154,441,103,55
71,110,44,161,195,513,102,66
69,110,44,186,192,567,100,65
65,100,27,184,214,684,87,65
69,95,24,182,213,731,83,71
81,113,26,187,225,732,95,83
82,110,25,131,202,725,101,72
84,121,24,91,199,715,101,78
88,121,25,84,171,645,113,80
93,128,33,90,180,631,121,84
84,118,39,99,191,622,114,78
76,115,40,108,193,610,112,82
72,108,41,110,200,596,109,79
72,103,41,108,213,566,110,80
70,100,36,99,199,563,108,76
67,102,33,84,189,570,107,79
68,101,31,88,177,557,102,75
64,99,30,88,169,541,108,71
63,98,29,91,145,545,105,71
64,94,28,96,147,510,108,65
63,89,23,96,149,509,111,59
65,94,23,84,151,521,107,57
83,106,22,83,153,538,105,66
89,108,22,81,156,551,102,66
82,111,22,74,164,588,90,69
82,107,19,62,159,618,88,66
80,114,21,59,159,669,87,67
72,111,23,60,159,710,89,59
61,105,23,59,160,734,89,55
59,103,24,66,174,766,93,50
68,114,29,104,174,744,95,54
68,115,32,108,178,694,97,57
63,111,30,105,176,645,98,64
67,109,31,106,175,586,98,64
70,109,30,103,151,516,94,70
64,102,28,70,140,505,87,67
68,110,23,73,135,509,84,66
67,103,26,80,135,519,81,61
65,108,26,77,141,566,81,60
66,111,27,73,141,579,79,55
75,104,27,69,142,575,77,61
80,95,26,63,136,575,82,76
79,102,24,57,147,592,81,74
78,98,23,59,138,563,74,73
78,96,21,72,138,546,77,78
74,98,21,71,156,551,80,75
66,95,22,65,153,593,76,64
66,93,21,63,146,596,74,65
71,97,21,63,148,593,70,65
69,94,21,48,148,581,76,57
64,96,21,51,131,593,87,67
68,98,23,61,131,549,85,61
76,102,24,58,124,545,87,60
72,99,23,60,121,540,85,62
75,100,25,63,123,552,73,72
80,101,32,69,122,528,67,64
73,92,33,61,126,513,68,62
71,93,33,66,125,496,74,61
70,91,34,64,133,521,79,69
66,88,33,61,129,515,82,62
63,87,28,50,132,535,80,64
65,89,25,48,129,566,82,68
59,79,23,43,148,585,75,66
61,80,24,44,155,593,74,64
60,87,24,41,157,627,72,62
59,98,18,51,152,629,62,58
61,106,22,52,154,653,60,58
66,109,23,50,133,623,67,60
80,119,22,59,118,598,74,57
80,116,23,59,116,560,76,57
80,106,25,58,127,542,86,54
90,108,22,63,135,497,85,51
86,105,21,68,138,529,85,47
73,98,20,60,131,545,80,49
76,103,20,59,139,569,80,50
85,107,21,66,153,594,73,52
74,100,22,61,154,606,73,54
80,107,23,58,161,601,67,56
77,101,25,58,161,600,68,51
80,97,24,61,150,586,68,49
66,89,23,48,136,574,70,49
67,89,22,48,135,575,78,52
59,87,22,49,137,563,75,60
65,89,20,51,143,570,79,60
59,87,19,52,148,586,78,62
59,84,20,52,139,589,74,63
57,84,19,50,126,588,63,60
67,87,20,52,116,581,70,56
63,95,21,50,117,568,64,52
77,100,21,48,118,551,64,51
87,98,19,49,111,536,67,47
84,97,24,50,120,502,73,45
77,87,23,44,121,478,71,42
77,81,23,50,125,498,79,48
67,75,23,46,121,474,77,48
53,75,28,49,140,458,78,58
64,81,25,50,145,467,76,64
65,86,25,55,150,494,75,63
70,89,25,57,150,484,69,65
68,96,25,60,157,515,74,70
67,100,20,59,150,538,76,68
65,100,22,56,158,566,86,64
75,104,20,53,155,585,84,65
83,113,21,52,165,592,87,71
82,117,21,58,174,585,83,67
86,120,22,57,189,590,80,64
99,123,22,63,185,566,68,65
96,121,24,65,184,537,83,66
86,107,25,60,169,494,78,53
84,99,25,55,153,471,84,56
84,95,34,52,137,423,85,53
69,89,33,52,132,406,87,55
60,88,33,54,141,390,81,54
62,94,33,52,141,375,83,51
62,92,34,53,154,379,79,49
74,92,27,58,154,444,85,53
71,93,27,51,168,539,88,52
78,95,27,49,163,585,83,52
74,99,24,54,177,635,79,57
76,103,22,52,173,657,79,61
66,106,21,54,169,657,85,65
62,107,21,53,166,637,84,65
55,107,20,52,176,628,89,67
63,109,24,53,180,609,96,67
67,108,24,54,186,584,97,62
61,105,23,54,193,541,88,59
65,105,22,55,177,481,88,59
77,108,23,56,178,452,85,65
72,98,21,57,166,420,94,76
68,95,22,56,156,415,98,78
65,89,22,50,157,426,94,76
64,88,22,51,165,417,92,73
55,85,22,50,161,413,94,62
55,85,21,43,154,438,81,44
57,90,19,45,155,442,72,39
64,96,18,48,153,458,97,47
64,95,18,46,150,509,96,50
62,93,20,41,142,525,93,52
63,115,19,42,154,550,99,56
69,125,20,39,157,596,98,56
67,128,20,36,146,610,77,57
67,127,19,36,153,587,87,58
67,130,18,38,158,594,90,60
67,115,20,38,151,549,87,59
61,100,20,39,158,489,93,58
57,90,20,41,164,459,96,51
56,85,20,43,157,428,93,47
60,78,20,45,154,407,90,47
61,78,20,44,157,439,99,44
62,77,19,41,144,442,95,44
64,82,21,51,159,437,91,54
68,91,21,51,152,467,89,59
67,91,22,49,146,449,86,58
62,92,20,48,146,438,74,61
74,96,22,56,159,463,79,65
78,99,19,46,139,482,93,68
75,95,21,44,135,484,91,69
83,106,21,57,146,515,93,74
92,110,24,71,148,514,92,70
80,109,27,79,156,509,91,69
82,106,39,104,166,496,81,67
86,105,53,130,181,486,91,65
82,103,56,134,175,461,96,60
74,115,59,133,193,439,100,60
74,142,59,126,172,418,99,58
63,169,57,110,170,416,102,50
60,189,49,83,170,399,103,49
62,196,45,66,173,397,104,49
61,199,46,61,166,473,98,47
65,179,46,66,171,507,95,58
66,157,42,62,164,523,85,60
61,131,36,56,150,541,71,62
51,109,36,57,157,539,65,60
59,101,34,64,173,554,67,62
62,123,32,64,202,571,72,51
70,119,30,69,206,554,74,52
78,136,30,68,225,564,73,55
81,139,31,78,225,557,80,57
74,130,26,67,203,484,83,57
69,109,29,72,172,425,79,56
65,110,28,67,172,415,83,55
58,95,30,75,159,410,83,51
53,103,34,67,176,454,106,49
61,115,36,70,183,464,106,53
61,115,33,65,195,471,112,56
58,119,43,89,206,479,112,53
58,116,43,88,199,442,112,51
57,108,41,91,178,396,84,57
53,96,42,92,173,380,80,58
54,100,42,87,155,379,77,55
52,92,38,63,139,375,75,54
54,97,39,60,141,370,73,53
55,94,38,58,151,375,72,59
52,87,38,55,153,393,74,58
49,94,40,59,154,421,71,58
55,97,37,58,152,451,77,60
67,96,34,59,147,501,76,63
78,100,37,61,148,534,79,58
79,107,42,66,136,536,87,59
78,96,38,73,146,517,88,68
74,88,43,94,151,476,81,68
66,94,43,99,150,446,87,64
53,98,42,100,146,414,84,60
49,99,39,97,161,436,76,61
61,109,38,93,171,445,80,65
65,117,31,71,179,437,88,66
64,113,30,62,177,416,82,69
63,108,26,58,176,419,92,70
71,110,24,64,158,390,95,69
65,101,27,60,132,353,93,55
65,96,28,65,112,401,86,55
60,92,29,63,139,423,92,51
64,110,30,58,129,421,82,49
59,109,30,49,147,440,88,44
56,118,27,48,155,456,81,45
56,115,26,40,152,433,86,46
67,124,28,38,139,446,82,47
67,122,28,46,176,448,91,48
67,113,27,44,165,437,78,47
69,110,26,47,167,457,83,52
70,114,28,60,170,459,80,56
59,107,28,60,164,487,81,55
54,92,27,55,124,481,66,53
56,97,27,57,131,464,79,54
64,91,26,61,136,427,81,53
64,92,25,56,136,443,82,45
65,85,22,58,140,371,78,51
67,83,22,57,148,361,81,55
67,79,21,56,152,375,75,56
53,75,22,46,142,386,68,56
56,83,21,41,141,426,69,54
59,89,22,43,140,484,74,52
64,90,23,42,128,510,73,54
66,102,24,42,137,608,74,57
67,106,26,44,156,659,79,56
63,104,30,58,176,633,93,56
65,108,32,56,187,606,89,55
57,106,31,63,194,597,94,55
51,93,32,64,176,479,95,49
50,90,31,63,156,431,93,45
46,81,28,49,133,457,75,48
43,76,28,49,109,450,76,45
51,77,28,45,124,463,74,39
54,76,29,44,130,498,67,39
55,79,28,43,131,503,66,45
64,83,29,43,136,503,72,57
62,80,33,52,136,525,72,60
56,78,32,48,119,528,74,61
54,79,32,55,129,521,71,64
52,82,32,55,133,530,68,63
41,77,30,55,136,534,65,52
61,81,24,45,142,569,93,55
69,84,25,45,137,581,91,55
77,83,23,38,128,626,98,55
81,89,22,35,137,658,107,55
83,91,24,39,139,663,112,58
70,85,25,42,139,655,95,50
63,83,24,46,150,657,95,49
57,85,24,45,145,620,91,46
56,83,25,47,137,593,88,45
58,76,23,45,125,576,80,43
59,80,23,47,125,548,81,47
58,79,23,42,105,534,83,49
79,81,23,45,105,535,83,63
78,72,24,48,120,515,80,65
77,78,25,47,124,552,85,66
75,71,24,47,120,568,79,64
86,83,27,47,131,580,76,64
67,82,27,44,150,628,85,58
67,90,25,41,147,669,81,52
66,90,26,39,157,692,77,55
80,98,25,36,156,729,79,53
71,96,23,41,151,731,81,55
68,96,24,40,131,702,70,47
68,91,23,40,119,667,85,51
82,102,21,42,107,598,86,50
76,103,23,44,104,541,96,54
72,96,23,43,109,544,101,53
73,97,22,41,106,520,106,52
77,95,23,45,98,513,96,52
62,81,23,42,104,547,94,48
57,69,21,37,104,559,84,48
68,74,25,37,94,559,77,51
70,67,26,43,99,566,70,55
61,67,25,42,107,578,78,61
66,69,26,46,109,624,81,62
63,73,25,47,118,613,75,64
52,75,21,44,131,604,72,58
60,82,18,41,130,630,76,58
74,90,18,41,129,647,66,51
74,92,20,41,125,597,63,51
86,98,21,43,137,619,64,53
92,106,22,42,139,630,63,64
86,108,24,43,148,622,60,63
73,108,26,42,155,620,62,64
71,106,25,42,153,618,61,63
62,99,25,43,144,611,65,56
59,92,23,44,141,594,77,44
60,87,23,42,144,557,72,39
61,79,23,39,138,526,69,36
59,79,22,37,137,502,70,37
69,93,21,36,126,489,64,44
64,97,22,35,120,489,51,47
64,97,21,36,107,518,53,53
68,97,20,35,107,560,61,51
82,102,19,34,106,599,63,53
69,93,20,34,117,625,72,59
69,87,19,34,125,644,73,58
67,86,19,35,125,665,74,54
70,98,19,35,129,656,67,58
63,95,20,41,127,633,71,55
64,97,19,42,128,612,77,49
67,94,19,42,117,594,75,49
66,103,19,42,117,553,77,46
56,93,19,43,111,552,84,42
65,97,20,41,123,556,81,42
67,96,18,40,116,554,66,35
66,95,20,40,131,553,74,34
67,86,22,37,132,564,73,40
70,95,22,39,146,556,66,40
53,86,22,39,142,561,72,50
51,86,29,40,144,546,79,56
55,84,29,39,130,540,74,65
77,101,28,41,130,550,73,63
78,94,29,38,119,535,75,64
80,98,28,38,112,540,70,60
80,96,22,36,112,577,74,54
76,102,22,38,124,605,73,47
56,97,22,35,140,624,74,49
57,100,22,36,134,646,80,53
55,101,24,33,140,642,88,49
80,115,25,41,146,619,85,53
81,116,26,40,156,606,89,56
82,111,27,44,152,578,95,57
85,107,26,45,154,528,89,53
93,107,25,49,159,508,87,59
75,93,22,41,151,494,84,58
73,86,20,41,132,494,84,55
81,90,19,43,118,472,79,54
76,86,19,45,126,502,84,60
65,82,19,39,121,514,83,56
62,79,19,40,123,523,85,54
62,80,19,42,130,525,82,53
54,77,19,37,145,553,79,52
57,89,21,31,135,554,74,54
58,88,19,35,133,562,72,51
61,96,20,35,144,557,78,52
65,101,22,35,141,539,80,53
66,97,21,36,133,530,83,51
62,90,20,39,134,541,90,45
67,98,22,44,133,519,91,46
63,87,21,42,125,521,85,58
63,87,20,39,145,516,93,64
57,86,21,41,145,502,98,67
65,96,22,37,145,481,95,68
59,90,23,32,147,479,90,71
65,96,22,35,144,470,91,62
68,88,24,37,126,525,84,54
69,93,23,40,127,537,81,50
62,82,23,40,129,547,82,48
61,81,20,39,126,565,90,50
61,77,20,39,132,565,90,61
62,79,17,36,136,535,87,62
57,74,17,33,130,554,82,63
58,76,18,40,136,547,88,64
57,82,19,40,146,552,77,62
62,94,23,44,143,586,83,55
63,94,23,44,136,566,97,57
65,93,23,46,144,542,99,57
66,100,22,43,135,556,97,57
65,94,22,44,134,537,103,53
58,88,20,49,140,503,101,58
68,92,19,49,144,518,82,59
72,90,20,47,134,520,85,57
75,82,20,44,147,510,88,66
80,91,20,47,138,538,90,69
79,92,19,39,137,554,97,65
64,91,19,39,139,552,101,61
66,96,19,39,142,566,97,62
61,97,21,40,137,576,91,57
56,90,20,37,138,563,88,50
52,86,19,36,139,566,80,54
77,86,21,41,131,579,94,59
77,82,20,42,149,577,98,61
78,84,18,42,146,605,94,58
79,91,19,41,154,594,92,62
82,90,19,42,156,586,97,56
55,91,18,38,168,584,88,51
62,93,19,37,157,560,90,49
60,100,20,38,152,510,90,49
58,93,20,39,151,530,89,47
71,95,21,42,145,502,88,48
77,95,21,45,142,486,82,58
70,96,21,46,136,490,76,58
73,88,21,45,140,492,78,56
75,88,21,43,140,467,81,59
71,96,21,43,139,492,71,59
72,96,22,50,142,491,85,54
69,96,23,49,144,503,102,60
71,95,22,53,145,511,106,61
76,103,24,54,137,538,108,63
75,102,23,58,144,531,110,64
72,101,22,51,151,550,104,62
70,101,22,52,150,569,95,59
68,106,23,50,164,591,97,58
67,101,23,52,174,584,99,54
62,99,23,44,164,586,99,53
64,100,24,45,142,565,95,49
77,100,24,44,144,535,87,47
78,96,23,47,127,501,79,52
73,91,21,49,113,473,69,48
69,88,22,48,125,461,72,50
75,82,21,46,136,451,76,54
66,77,20,51,149,456,89,56
61,72,20,46,150,455,95,53
64,92,21,43,179,544,103,56
61,111,20,48,206,594,112,55
57,132,20,53,219,608,123,55
59,138,21,51,216,601,116,52
61,142,20,51,219,607,124,53
59,130,18,50,194,528,118,53
61,120,18,49,162,496,111,53
58,103,22,48,147,483,102,49
51,98,24,48,134,496,99,48
59,99,27,52,145,501,83,50
63,100,28,50,152,520,91,52
78,97,29,54,159,499,87,57
77,96,26,52,175,488,75,58
88,96,25,53,176,468,81,61
114,94,27,55,170,429,98,58
117,102,28,61,187,420,98,56
108,100,28,59,181,419,97,50
116,103,30,59,153,410,103,61
115,109,29,63,158,419,105,62
87,111,30,63,143,421,89,71
82,105,31,70,135,399,84,72
92,103,29,70,141,392,90,79
86,94,28,72,157,405,86,77
82,87,29,71,188,436,86,89
77,91,26,67,193,477,97,85
72,96,24,65,192,534,95,89
76,109,25,65,197,560,96,84
71,112,26,64,199,546,104,83
69,110,30,66,167,516,119,71
70,111,31,70,182,486,119,75
74,109,31,58,170,420,118,71
53,92,31,59,166,384,117,74
53,90,33,63,150,390,114,71
55,88,30,61,146,394,98,75
64,78,26,57,133,419,97,74
61,75,26,59,137,426,102,73
59,75,27,53,127,449,104,73
64,81,24,51,135,473,101,73
64,90,22,50,143,474,105,66
64,92,22,50,136,448,97,70
62,89,23,54,150,465,91,69
64,89,21,56,147,437,89,67
62,85,20,54,147,437,102,69
104,88,20,53,152,480,92,70
103,90,19,52,149,493,93,59
105,87,20,47,132,499,91,67
105,88,22,46,135,520,94,70
120,101,21,44,131,495,83,67
87,96,21,45,126,462,88,69
84,96,21,44,126,479,95,69
82,101,23,49,128,456,112,63
83,101,20,51,126,423,110,55
73,100,21,50,124,451,113,55
70,98,20,45,118,436,110,48
70,94,20,48,115,413,107,51
70,89,18,43,113,425,104,53
75,91,19,40,110,443,103,56
67,86,21,44,121,470,101,56
64,84,21,46,121,537,116,61
70,85,21,49,132,539,117,59
71,85,21,50,135,577,107,56
70,83,21,54,149,617,114,60
71,81,20,53,144,633,108,65
84,80,21,54,166,603,86,66
84,81,21,53,183,624,92,66
88,83,21,52,179,584,89,71
91,84,25,50,170,536,80,70
89,74,25,49,194,491,88,66
81,79,25,48,209,478,92,78
77,79,24,43,195,464,109,80
80,79,24,46,209,475,112,77
76,81,21,44,209,507,122,77
79,82,21,47,189,534,125,79
84,87,22,42,155,525,128,64
88,85,22,45,169,521,103,58
81,85,23,44,180,527,105,54
75,82,23,43,184,520,104,56
71,83,23,40,189,511,96,50
61,78,22,43,181,547,106,55
52,78,21,39,168,583,126,58
49,83,20,42,143,625,122,58
60,89,20,46,136,654,111,53
61,90,21,44,131,679,109,56
61,92,19,48,159,700,98,52
61,92,21,50,157,696,83,53
78,92,21,49,152,668,83,57
72,86,21,45,152,662,89,62
76,88,22,46,143,637,95,61
78,86,23,42,118,600,93,60
83,84,22,41,113,578,90,60
75,80,23,40,110,549,100,59
81,83,22,44,112,527,98,62
79,83,22,47,123,538,101,61
75,78,22,49,137,538,108,65
76,87,22,48,134,553,105,64
70,88,20,49,140,614,93,67
60,87,21,45,148,643,91,59
54,81,19,45,141,663,84,57
61,88,19,45,132,703,76,54
57,80,20,45,144,702,78,60
62,81,20,46,143,694,81,61
65,79,19,46,142,677,87,69
73,89,21,47,146,635,88,70
69,83,23,43,147,595,87,67
75,85,22,48,146,592,88,67
69,84,23,46,152,547,89,59
71,85,25,50,143,536,85,52
64,83,23,50,150,570,82,59
64,83,21,51,142,571,79,58
52,83,21,45,132,571,77,57
52,81,22,44,134,588,95,57
51,77,21,38,148,577,95,55
50,72,21,34,147,564,102,45
54,66,21,29,145,548,106,50
56,63,21,30,147,533,104,47
64,65,20,34,140,547,92,49
60,72,21,38,138,573,101,50
59,73,22,40,131,578,108,51
74,82,22,53,165,620,103,53
74,88,22,54,168,657,106,53
70,88,21,51,164,664,97,50
70,85,20,51,152,656,90,52
74,94,19,52,151,652,77,51
71,97,19,45,127,618,83,51
76,91,19,47,120,577,91,54
76,90,19,46,116,533,91,59
82,87,19,43,135,577,89,56
90,78,20,44,146,572,97,65
79,76,21,41,144,587,95,66
75,75,21,38,147,586,91,63
87,96,22,41,155,620,101,64
85,98,21,48,146,613,99,73
73,99,22,45,137,633,95,69
70,99,20,43,131,661,93,66
80,111,20,54,137,695,91,71
66,102,19,52,137,696,82,69
72,103,19,49,134,667,82,64
74,102,17,50,132,641,79,64
77,101,19,50,140,611,83,65
67,96,18,40,131,597,90,65
73,98,20,42,124,583,108,64
63,98,21,43,134,569,108,68
58,95,23,42,133,578,105,67
61,94,22,43,124,586,103,64
64,128,22,44,124,573,109,59
64,670,23,64,129,592,91,66
65,1058,23,67,145,621,92,65
71,1273,24,66,143,620,93,69
65,1281,25,65,141,597,90,69
67,1453,25,66,149,583,71,66
58,1331,23,49,150,557,78,59
62,1121,22,46,125,530,76,56
58,981,20,46,129,543,76,55
58,991,19,47,125,579,75,58
70,712,21,55,143,625,77,65
71,647,22,54,152,654,76,67
69,517,20,49,155,686,82,66
68,252,21,48,150,704,81,65
74,154,21,49,161,689,84,65
63,134,22,41,142,658,81,60
63,114,22,38,125,626,75,60
60,101,23,38,117,581,77,61
59,102,23,42,122,530,76,57
51,94,22,38,110,502,75,56
47,89,20,35,119,473,75,59
48,81,20,35,123,443,79,62
47,75,20,35,123,446,80,58
59,73,22,37,135,466,92,62
60,72,23,37,140,491,96,62
61,73,23,38,131,540,98,66
63,72,23,42,146,561,101,61
64,67,21,42,147,564,101,59
59,67,21,42,137,573,92,55
66,77,20,44,139,546,97,57
64,79,20,45,138,535,97,55
65,82,21,41,130,557,95,61
65,86,21,44,133,577,85,67
62,86,21,40,149,562,86,74
64,81,22,42,174,572,75,75
77,89,21,44,192,560,79,73
77,90,22,42,189,540,77,71
76,102,24,43,197,530,82,68
75,105,23,46,191,517,95,69
66,108,21,44,177,514,94,66
49,102,22,42,158,557,93,64
70,107,22,48,162,554,95,74
70,92,19,44,154,548,104,71
70,88,20,43,142,567,91,65
71,80,20,42,128,558,92,65
74,86,19,41,136,526,95,69
64,87,18,37,147,565,90,52
64,101,18,39,148,556,83,54
79,108,19,39,149,557,94,62
88,116,19,45,162,600,100,71
91,116,19,46,159,603,102,68
83,116,19,45,141,575,101,70
88,113,20,50,157,587,100,71
76,106,17,49,165,560,97,64
75,100,20,48,160,513,99,53
69,93,21,49,164,494,99,55
78,82,19,49,167,468,108,53
74,74,19,44,154,439,111,59
77,79,20,45,152,468,111,55
70,84,19,48,148,477,104,54
71,83,19,45,144,456,98,52
62,89,21,45,137,473,94,57
59,93,22,44,131,485,92,50
61,90,22,46,128,482,85,58
62,94,21,43,144,508,77,61
61,106,21,44,148,533,99,71
60,103,20,42,155,545,96,66
69,106,20,45,173,586,92,72
64,108,20,41,177,588,108,76
60,99,19,37,157,594,119,75
59,96,20,37,151,593,103,67
61,99,20,42,147,587,103,67
56,93,19,41,127,559,103,64
56,91,19,42,131,563,87,60
58,91,20,41,134,546,78,62
65,88,20,42,158,541,86,60
64,88,19,39,155,535,91,61
61,84,19,38,153,525,92,57
61,85,20,42,150,512,93,48
64,86,21,42,162,509,101,51
53,85,22,40,137,516,99,50
51,82,23,40,151,515,98,49
53,87,24,38,154,537,108,57
63,91,22,34,157,536,103,62
62,90,22,35,140,544,103,62
68,85,21,36,147,555,102,69
68,84,20,36,135,580,100,69
67,83,20,35,128,565,90,66
56,85,22,36,125,586,100,64
66,89,22,36,137,568,92,62
68,97,22,41,132,532,85,62
76,103,23,49,148,505,84,65
74,100,23,49,154,509,78,65
75,93,22,51,159,462,73,64
68,95,22,51,164,457,69,60
65,86,21,51,161,462,80,59
55,79,21,41,146,439,86,61
69,84,19,42,150,406,87,68
80,86,18,41,156,450,81,67
76,102,18,40,199,500,85,71
74,113,17,37,228,509,94,68
93,128,18,43,236,512,103,66
85,125,18,46,229,515,112,59
90,125,20,43,218,472,131,64
92,112,18,43,169,431,143,71
92,105,21,42,129,435,137,71
78,89,22,38,121,478,147,69
77,97,23,36,137,515,140,65
87,126,23,45,151,542,129,63
90,124,25,44,156,535,123,57
92,132,23,43,160,517,121,54
88,133,23,43,164,481,97,54
91,131,22,47,153,433,105,54
69,102,21,38,145,392,109,55
65,100,21,43,154,381,105,60
60,88,21,42,147,363,102,61
74,88,21,43,136,341,103,59
73,84,20,41,135,346,96,58
69,81,21,41,127,352,86,57
66,77,22,36,110,349,79,49
66,77,22,37,117,389,75,52
57,76,21,39,126,431,72,52
56,78,20,39,130,457,78,61
64,81,19,42,141,518,78,61
64,85,18,44,144,545,92,57
66,86,19,46,143,535,103,69
62,84,22,45,148,538,108,67
66,84,24,42,145,525,105,60
69,81,24,41,133,462,107,69
72,87,25,43,141,457,100,72
81,91,23,46,148,448,89,68
79,87,23,48,143,423,90,76
82,93,21,54,140,438,99,85
78,101,20,56,147,459,97,80
81,95,21,54,143,460,98,82
70,95,21,53,143,497,99,77
70,93,19,49,140,495,91,70
70,84,20,46,148,479,93,68
65,75,21,45,152,481,94,65
58,75,19,43,156,449,90,61
59,65,20,41,142,416,88,58
78,86,22,49,145,462,97,63
80,87,21,50,157,459,87,56
81,89,20,48,146,482,82,56
81,90,22,50,145,537,80,60
93,98,23,58,160,532,84,61
85,83,21,52,150,521,89,54
77,82,24,54,146,546,90,51
74,82,24,55,149,517,93,54
79,82,24,55,138,457,91,56
88,91,24,47,127,472,105,54
85,94,24,49,126,435,92,59
89,93,22,43,112,401,90,61
90,90,22,43,126,396,90,57
92,89,21,43,135,404,92,53
71,73,20,41,140,407,81,57
81,78,19,40,157,444,98,52
77,78,17,40,154,463,101,52
76,82,18,38,149,512,96,55
71,79,19,38,139,560,95,56
77,86,22,38,136,579,86,53
67,82,22,32,119,590,71,52
66,83,22,32,128,625,74,49
71,85,22,35,116,613,75,47
70,87,21,36,115,569,86,46
64,86,21,37,127,533,96,56
61,88,21,42,126,523,93,62
61,88,22,43,125,485,83,61
56,87,20,41,131,460,85,63
56,88,19,38,134,490,78,64
59,92,20,38,135,506,72,60
60,83,19,33,137,498,71,55
59,86,20,34,130,512,81,57
59,82,20,34,131,517,82,56
67,83,22,39,153,562,83,54
63,75,21,39,137,564,84,53
60,77,21,41,133,571,90,58
65,70,20,41,137,585,82,57
68,74,21,42,138,639,97,59
65,70,20,46,120,617,97,58
72,75,21,46,131,653,105,58
76,80,22,49,134,714,106,62
76,85,23,48,136,729,114,65
73,85,22,48,128,693,99,67
68,87,23,41,119,693,99,67
68,83,22,41,116,662,84,65
60,80,20,36,120,606,89,56
63,80,20,34,120,557,76,52
68,82,20,35,127,551,77,49
76,93,19,38,143,531,76,53
71,93,20,38,136,546,77,60
74,93,21,34,130,535,75,61
68,90,21,38,128,579,80,62
87,105,21,37,124,614,77,62
79,94,21,33,113,625,76,58
77,95,19,31,111,646,80,58
75,96,18,35,114,675,87,59
100,103,18,47,127,656,91,65
79,88,19,50,131,651,108,61
81,91,21,52,130,663,110,64
80,91,21,53,138,639,108,56
95,106,21,60,154,613,99,60
74,103,20,53,152,599,100,56
75,110,19,52,150,572,93,59
74,107,17,51,150,546,99,59
74,102,17,52,147,555,105,59
78,91,18,46,137,566,102,52
75,87,19,41,127,570,93,54
74,79,20,36,122,583,97,56
72,80,21,38,125,576,87,57
73,88,22,38,135,563,86,60
48,81,22,34,126,518,97,62
53,83,21,35,124,505,102,57
53,80,21,35,125,499,107,56
53,83,22,33,119,516,110,51
50,76,21,28,105,522,105,49
59,79,20,34,113,579,96,55
50,79,21,36,134,610,102,58
52,79,18,35,137,643,95,59
51,75,18,35,139,664,91,59
56,80,18,42,134,670,91,58
53,76,18,39,131,654,114,49
65,83,18,47,123,639,104,46
66,82,20,49,131,583,97,47
78,87,18,49,135,534,110,45
78,85,18,47,152,510,109,44
73,87,17,50,155,493,82,47
63,75,18,39,143,479,87,45
59,73,18,41,137,504,88,37
51,74,21,42,132,526,69,37
54,72,21,41,128,546,82,39
62,71,22,37,124,571,83,36
72,80,21,40,133,597,76,38
72,80,22,38,132,610,73,41
73,82,20,37,139,614,78,43
71,82,20,36,132,606,64,41
63,81,18,39,138,606,60,40
52,79,17,38,126,608,60,42
52,87,19,37,139,664,73,44
52,81,20,37,137,651,70,45
52,84,21,35,136,657,73,43
57,89,22,35,135,650,87,49
