185,570,107,523,777,481,164,163
164,560,113,571,754,514,171,129
139,550,115,573,811,525,178,122
183,462,125,625,813,487,186,129
176,439,120,611,829,505,180,129
216,416,125,604,891,494,161,141
215,378,120,616,900,464,155,139
219,387,122,670,899,434,149,144
193,444,103,574,784,400,135,131
203,469,102,582,823,396,127,133
148,454,92,540,777,410,116,109
142,471,92,468,721,415,129,123
143,417,93,449,670,426,133,122
177,366,98,444,700,421,141,155
199,377,110,470,647,451,174,181
203,358,108,464,648,480,176,184
210,356,108,470,645,471,177,196
212,362,100,371,667,468,183,199
177,329,102,418,793,476,208,182
223,401,121,405,817,458,205,190
219,408,122,426,814,426,212,180
234,452,129,438,796,425,222,186
250,454,135,485,774,399,218,191
251,466,132,454,672,397,189,186
187,398,108,479,735,389,184,157
189,410,109,463,708,404,178,174
159,345,131,669,837,416,171,150
199,385,146,686,813,464,187,161
201,378,144,701,796,473,193,163
224,345,148,725,729,472,177,173
288,420,162,734,745,484,183,182
302,407,144,600,707,464,169,176
285,424,126,573,717,446,158,201
294,437,128,561,706,447,172,211
316,444,119,484,683,465,182,230
262,378,110,545,753,465,174,214
302,482,133,578,724,503,189,246
292,422,129,543,696,494,174,214
283,408,131,544,710,482,173,205
257,420,139,565,791,489,177,176
281,406,129,494,729,490,176,178
235,376,96,364,740,468,156,145
225,390,93,359,795,481,150,139
222,404,98,374,837,474,145,145
240,425,101,401,754,443,125,187
204,436,112,487,811,431,130,180
210,594,126,545,856,663,155,204
231,688,134,549,878,793,175,223
229,724,132,569,957,863,169,217
214,759,130,541,976,897,170,186
216,770,121,447,941,908,169,186
209,615,106,395,918,753,162,176
230,535,102,405,862,631,162,203
235,477,92,333,695,564,151,206
204,412,79,326,745,552,146,192
211,436,110,380,761,531,147,212
233,464,111,357,693,535,133,221
198,422,109,330,701,518,112,178
187,438,113,369,752,504,153,188
189,437,114,366,653,475,174,205
180,377,93,295,539,467,179,190
126,353,85,364,581,464,180,150
110,374,86,397,557,465,186,158
138,364,84,418,595,463,164,161
224,360,85,455,620,471,158,237
238,371,80,487,712,469,152,244
245,371,80,488,717,473,170,259
248,364,77,472,724,468,169,265
256,368,76,428,674,466,163,262
195,344,78,421,695,454,158,209
178,348,75,402,622,474,167,200
190,363,74,378,573,480,158,207
197,363,85,477,612,475,154,209
170,365,83,484,618,490,175,203
170,399,77,451,581,507,174,179
170,405,82,453,628,502,178,178
159,426,109,540,730,540,189,195
213,432,106,479,706,564,187,222
214,427,114,549,747,549,169,222
208,420,116,564,788,535,160,224
206,424,119,557,746,532,171,239
207,389,95,448,642,489,153,214
135,392,89,467,647,464,163,181
149,398,79,368,587,470,188,178
155,418,104,497,624,480,212,174
169,404,108,601,624,498,209,159
180,412,108,615,587,499,212,142
253,406,125,685,744,515,227,145
264,391,126,706,728,536,204,142
274,376,103,675,723,546,212,204
331,432,102,688,764,539,235,270
332,414,120,829,883,547,233,288
287,448,105,785,791,553,234,304
295,451,104,772,853,529,244,312
287,428,104,713,800,515,222,281
332,431,108,619,824,535,210,250
332,426,87,395,722,521,211,243
325,386,96,461,648,505,186,210
317,417,100,458,587,513,189,212
370,445,106,461,575,522,217,236
293,375,95,497,475,489,196,222
291,399,96,500,529,501,214,211
303,403,90,414,564,500,218,227
318,387,90,443,525,498,218,248
254,382,85,441,528,487,187,223
245,454,89,423,637,508,184,218
246,442,87,441,592,502,165,227
256,454,78,431,585,516,177,224
231,438,70,398,609,516,159,191
242,444,82,463,677,534,156,191
240,413,73,437,670,542,150,188
230,437,73,447,737,536,157,175
252,431,76,450,748,527,141,180
251,465,78,456,779,532,160,192
280,446,70,397,739,512,180,199
287,447,81,426,698,480,189,191
290,435,96,455,672,474,178,197
257,436,94,428,652,454,185,186
254,410,107,494,616,423,178,175
224,404,105,518,582,398,164,175
202,382,99,507,628,401,170,168
268,396,120,547,593,417,168,181
273,393,125,547,568,448,180,181
293,391,148,635,607,480,210,207
337,414,159,686,593,512,215,223
340,406,158,667,568,543,207,219
416,405,155,787,698,540,231,278
417,403,152,792,708,566,217,279
399,400,116,667,691,581,177,259
450,391,111,754,775,578,217,294
452,383,114,807,747,565,217,298
375,356,90,615,679,555,212,292
372,359,116,707,747,517,228,293
374,347,120,747,739,479,241,304
254,363,115,603,646,461,212,253
240,374,122,588,694,461,213,250
184,361,122,584,649,460,192,176
242,343,98,468,587,444,203,175
242,359,94,441,666,447,196,167
233,314,91,456,723,438,185,167
227,312,78,392,669,407,196,179
232,317,67,395,711,430,209,178
180,342,64,371,713,448,184,175
211,325,65,351,612,454,179,163
222,391,72,290,559,491,233,179
234,389,70,276,529,512,212,174
220,389,79,346,512,495,211,192
215,391,82,365,480,520,211,193
192,420,83,392,516,531,250,210
194,362,82,393,564,517,200,199
182,373,88,410,609,530,208,187
222,390,95,412,522,533,205,255
209,376,98,452,604,503,201,260
231,407,114,441,612,527,158,261
264,451,129,485,574,730,173,285
260,439,125,466,635,750,163,288
294,441,126,463,764,772,177,315
316,427,124,412,803,818,183,309
311,367,113,406,800,847,178,300
307,336,110,403,823,726,186,325
320,336,111,419,823,712,188,326
273,341,115,476,833,696,172,246
270,365,119,600,740,663,179,266
253,363,112,589,697,633,173,261
222,417,126,594,823,622,146,217
257,441,135,663,845,649,150,241
256,415,123,632,738,686,133,229
242,407,118,523,888,681,123,217
282,446,126,537,936,658,138,277
299,367,92,514,796,620,126,262
344,360,105,449,777,582,167,304
349,364,107,420,773,553,175,300
341,362,107,412,589,534,174,295
328,318,102,378,609,554,185,267
350,355,130,512,793,576,284,305
282,319,112,510,737,564,283,259
268,318,109,476,754,554,289,258
283,312,110,481,801,547,311,271
305,299,113,502,765,551,309,267
258,257,78,338,581,559,230,220
242,302,76,279,637,603,204,199
255,304,72,269,623,619,198,216
236,309,71,231,572,661,183,192
169,331,72,194,623,657,170,181
209,329,79,215,648,640,164,186
222,322,75,242,562,605,163,188
205,312,73,245,637,578,168,160
204,318,73,248,653,553,142,158
219,308,57,255,597,539,134,148
197,344,63,258,611,519,168,189
186,329,63,282,665,517,183,186
186,340,71,330,602,519,179,195
181,315,73,363,599,507,184,201
165,312,80,364,618,495,195,192
165,279,76,363,619,515,194,186
172,273,73,324,584,505,192,185
182,255,74,380,613,522,190,206
197,389,83,389,612,582,196,204
196,416,84,409,562,612,186,210
172,437,84,408,509,597,172,185
169,437,87,420,506,587,182,205
184,446,84,360,490,572,191,187
180,346,73,335,462,498,185,193
212,322,72,349,554,435,186,212
236,291,68,365,603,410,175,211
236,320,74,366,625,416,150,202
228,306,73,356,618,422,137,195
233,320,90,399,637,430,144,192
252,311,84,372,607,462,153,173
268,307,88,402,568,475,151,189
277,266,81,422,558,467,158,196
276,292,83,408,573,461,158,195
270,285,66,371,559,464,187,208
240,306,78,389,505,449,184,202
208,330,73,325,492,442,193,180
192,339,76,289,441,437,195,179
188,310,89,524,552,408,197,182
239,339,148,567,603,426,196,233
235,315,153,560,604,429,198,233
234,290,182,704,929,465,211,242
296,308,212,779,968,529,246,269
294,317,208,716,927,564,242,268
277,314,181,720,949,575,221,231
281,306,172,710,946,575,226,230
286,308,141,576,665,580,223,224
254,291,107,509,663,532,187,231
252,279,120,458,644,496,193,227
226,283,108,419,567,484,193,214
206,296,118,437,606,466,181,209
204,315,117,440,608,422,152,200
172,320,101,401,544,433,153,145
168,328,85,349,573,448,152,150
177,300,84,327,587,444,153,158
220,305,74,315,566,493,171,183
224,283,76,312,577,510,182,181
244,278,80,328,648,507,182,211
244,303,77,312,566,550,188,234
253,293,89,377,575,539,195,222
295,343,115,399,581,528,211,310
295,348,123,481,613,563,216,318
336,370,142,595,666,574,244,386
346,352,147,637,659,569,247,391
332,368,143,628,824,595,245,391
317,403,144,723,933,596,274,361
318,400,147,710,938,564,272,355
264,378,129,611,867,586,259,274
245,383,127,576,885,555,259,262
244,361,127,546,733,540,248,259
187,267,113,453,677,545,215,211
201,276,113,397,656,538,229,227
184,264,112,389,734,493,209,200
238,280,112,380,744,522,199,218
254,284,104,351,735,508,212,257
271,274,90,261,736,499,200,251
260,291,80,246,729,516,194,252
266,304,82,235,618,529,193,260
239,286,77,237,628,546,201,250
227,305,81,282,677,591,187,224
191,311,82,298,583,644,170,209
172,290,72,285,544,694,156,189
156,302,61,304,647,715,155,168
137,318,56,322,652,693,152,133
132,308,53,305,577,668,165,111
128,315,50,264,560,627,160,100
187,345,97,482,716,600,306,166
203,329,103,560,649,594,306,180
194,319,103,570,604,621,310,178
244,391,114,605,643,668,321,210
249,378,113,623,671,684,327,214
233,353,79,500,618,666,239,185
252,368,73,482,658,679,245,190
256,378,76,476,703,697,231,190
243,321,71,528,807,666,211,182
247,334,74,548,821,675,205,191
227,355,76,546,748,683,165,178
184,367,85,490,842,682,157,174
182,369,85,497,878,675,169,198
141,367,76,403,796,679,169,176
146,378,75,374,795,686,172,174
150,414,83,367,813,705,157,178
166,402,76,360,714,724,180,175
184,404,81,332,624,731,170,159
191,416,78,313,567,768,186,173
184,399,87,279,541,770,197,178
194,346,77,246,466,767,202,169
180,356,75,233,438,752,189,163
192,337,71,242,489,722,202,163
188,308,72,237,534,678,194,147
189,343,65,250,682,683,188,138
172,336,66,283,735,660,202,136
191,318,74,290,719,663,197,164
167,339,70,283,780,703,189,158
181,360,70,341,890,711,188,164
173,327,62,336,761,702,213,164
242,342,67,440,841,755,218,210
234,375,59,540,895,776,211,194
236,359,62,570,865,779,208,191
246,371,69,619,762,781,205,215
257,375,71,624,793,764,170,224
238,395,71,657,681,714,176,271
236,377,71,596,598,676,191,270
227,381,86,686,605,630,198,278
211,395,93,648,580,629,208,263
203,382,94,669,627,616,226,251
154,349,90,588,650,619,195,163
153,340,90,576,685,639,186,158
161,352,83,435,663,668,187,153
148,329,76,403,671,662,172,151
155,339,88,505,688,684,170,149
158,348,94,533,887,679,176,151
163,392,115,699,904,664,167,160
189,402,114,705,931,650,159,156
195,399,111,713,963,650,167,143
205,422,113,708,908,632,156,147
235,419,109,716,723,662,164,132
241,411,91,567,724,678,169,137
252,412,88,614,685,688,166,141
279,395,112,778,700,699,179,171
289,388,110,741,711,718,185,174
280,405,114,721,731,720,189,175
294,387,113,742,679,715,202,193
278,381,116,741,673,687,252,207
246,415,110,684,604,684,245,186
235,416,113,736,603,688,242,198
255,412,120,802,656,675,241,205
240,429,134,854,718,649,244,203
246,442,146,962,853,753,205,207
263,407,131,873,876,752,190,204
262,403,122,813,945,715,192,208
236,408,117,792,941,754,179,202
245,395,132,830,942,790,173,194
243,397,140,839,941,701,169,199
246,423,142,845,910,672,173,214
243,436,144,848,851,688,159,215
241,461,142,800,796,632,169,260
236,462,116,688,745,595,183,259
215,443,84,460,590,578,177,243
203,454,85,520,649,589,176,235
202,450,81,511,638,608,207,240
180,416,78,516,617,633,208,189
164,416,89,597,697,647,182,175
183,433,90,614,661,709,203,185
177,417,90,573,654,716,205,202
168,418,89,540,677,699,185,191
178,413,140,733,799,657,178,199
173,397,138,722,749,683,189,206
165,380,145,825,775,659,177,209
169,420,148,863,767,674,176,194
176,433,157,903,729,706,168,186
219,438,125,813,578,734,176,212
230,459,153,941,690,711,188,204
237,461,152,857,697,691,183,186
226,429,153,864,704,698,202,198
263,418,145,852,760,696,218,201
233,420,135,826,800,696,215,168
246,467,101,626,715,703,199,187
261,469,88,635,731,701,195,193
302,461,81,596,709,686,196,190
273,461,85,623,679,652,171,210
289,465,82,569,659,609,182,232
277,413,80,609,708,570,175,218
281,423,97,666,721,547,183,230
250,434,108,760,760,557,171,222
253,452,109,799,796,545,181,210
245,447,114,826,802,563,171,206
261,432,123,815,820,584,179,214
249,419,116,769,782,590,169,209
248,419,116,671,716,583,170,209
232,393,122,598,663,627,162,198
230,405,136,557,651,639,168,198
203,416,127,525,672,648,179,182
210,427,132,532,738,668,184,185
206,422,128,497,754,671,179,201
225,428,117,459,780,651,184,207
229,420,99,474,789,640,213,190
250,404,97,537,777,627,199,211
229,384,101,498,837,606,195,196
217,382,92,533,827,586,198,185
204,361,100,583,855,564,195,172
223,369,115,592,846,555,192,197
220,371,118,616,763,554,193,182
262,361,111,612,633,548,208,245
303,336,119,616,714,538,203,256
305,343,121,607,636,549,209,267
322,324,120,597,704,547,203,296
333,314,123,529,814,530,207,316
339,332,118,499,907,575,218,294
318,346,109,462,851,591,215,296
317,341,110,405,884,608,220,295
284,348,101,414,895,647,226,259
286,366,98,438,787,664,225,248
247,368,97,498,719,658,200,239
240,357,102,528,762,676,224,234
261,356,100,614,749,655,219,227
268,343,94,603,676,615,206,222
266,333,88,548,654,618,198,221
270,335,92,511,591,581,216,209
269,353,92,489,559,539,189,195
284,384,90,387,598,544,196,224
276,386,95,459,679,547,181,226
284,387,110,512,682,539,200,270
269,369,115,576,689,571,197,267
394,355,125,571,704,584,213,346
387,323,123,557,666,582,193,329
380,327,112,497,660,623,187,324
370,316,96,477,728,621,193,292
374,338,80,383,807,619,177,308
254,337,60,376,791,641,187,233
236,336,56,397,755,654,187,263
244,354,70,369,678,630,196,309
235,388,74,363,686,672,191,294
231,401,76,356,642,659,190,289
201,396,74,356,685,631,168,275
189,412,81,402,776,632,208,245
178,402,76,423,784,635,205,200
161,366,80,396,807,590,192,209
172,349,81,417,788,594,186,208
232,399,86,420,733,623,192,269
250,389,85,363,678,600,158,288
264,396,87,380,676,592,156,280
266,412,82,342,621,591,150,295
269,398,86,396,686,561,168,290
222,392,85,389,778,527,158,234
196,369,98,389,753,557,238,214
188,350,112,550,797,555,252,211
196,358,109,554,844,569,270,204
190,359,107,506,765,595,266,208
196,323,105,513,711,611,281,210
215,327,89,546,736,596,211,206
213,347,67,399,695,606,188,217
196,327,69,435,606,598,166,192
216,331,81,517,601,591,167,179
215,322,78,535,608,586,139,224
226,328,81,500,658,573,169,256
223,297,76,457,639,548,173,240
317,291,89,471,824,534,168,263
308,281,75,395,850,516,161,259
315,285,91,385,879,497,158,234
311,280,92,406,831,518,144,205
360,360,124,567,1000,535,213,324
288,384,125,562,894,532,222,312
326,414,150,667,939,577,236,342
434,501,158,701,943,618,255,394
443,529,166,779,1082,608,258,408
426,519,177,807,932,602,243,354
430,515,181,808,905,588,240,351
448,500,163,738,854,614,225,361
350,434,154,708,824,631,208,305
341,415,157,666,712,628,204,287
330,392,122,537,790,602,170,248
319,375,108,527,900,652,163,291
266,368,113,553,927,618,181,323
275,330,103,517,916,563,203,347
258,326,78,438,832,567,194,345
223,308,84,470,751,610,179,341
298,326,114,460,675,573,252,392
281,316,110,424,651,537,243,323
261,322,114,511,609,541,233,289
415,320,117,520,695,520,238,375
430,298,111,449,681,489,241,383
383,284,89,491,581,472,170,294
386,288,99,485,554,467,173,300
376,274,103,458,538,466,175,304
203,281,101,485,566,517,180,208
195,292,102,524,640,518,198,233
221,291,95,486,701,569,228,241
224,303,79,482,724,602,230,249
234,309,78,468,761,602,243,246
229,278,89,520,749,549,253,225
222,273,94,503,688,565,250,202
208,254,93,491,672,518,216,199
180,279,97,464,726,481,209,193
187,305,89,453,850,463,204,205
219,331,76,348,840,473,192,220
218,323,78,330,846,523,183,218
246,354,77,321,819,521,242,221
260,349,77,395,752,588,253,222
260,339,90,361,590,631,234,202
244,328,90,349,545,700,223,197
247,331,79,325,533,677,239,194
213,315,79,331,613,682,189,222
226,295,78,309,734,659,177,236
255,282,69,330,767,621,178,259
251,277,78,350,778,562,188,257
240,315,78,353,837,580,167,258
248,306,76,358,785,586,184,247
251,331,80,381,736,581,205,251
220,356,85,454,753,606,218,231
207,361,84,448,823,581,221,224
219,357,88,459,792,600,216,222
215,361,93,463,822,618,218,231
194,326,90,439,763,590,193,234
186,323,77,367,792,562,179,259
218,331,68,357,815,602,168,264
220,307,65,336,833,529,169,260
204,292,51,304,896,486,152,234
193,319,43,244,1038,501,163,219
225,306,74,307,1026,540,198,190
202,297,81,347,958,568,206,194
212,329,100,411,931,662,219,195
239,342,101,429,841,697,218,211
240,320,109,447,675,739,214,193
281,352,100,401,576,793,173,218
288,359,97,370,542,810,159,219
282,368,76,303,560,763,155,247
308,389,97,452,568,788,137,252
308,388,91,441,550,783,130,252
324,416,82,444,682,709,136,264
318,417,81,442,668,673,141,252
309,394,81,450,693,694,142,219
288,378,71,406,807,653,164,253
289,392,73,448,813,627,190,258
264,321,75,440,758,674,203,243
298,319,81,506,770,707,210,249
303,307,81,501,706,706,199,254
306,309,80,434,565,728,209,203
316,295,83,421,666,725,197,206
293,344,97,448,705,712,237,197
291,349,89,386,698,695,240,198
289,357,96,427,710,683,258,210
265,369,90,406,700,737,242,204
316,407,93,445,667,787,249,215
290,380,92,604,595,814,211,194
277,376,93,618,605,858,198,192
298,398,100,733,733,866,189,200
308,389,100,753,733,837,184,191
309,395,122,834,675,809,198,225
374,424,112,738,678,870,187,238
361,445,115,741,718,837,235,251
377,445,107,670,696,828,250,256
367,447,104,679,803,816,250,256
319,429,93,590,814,802,227,219
263,405,99,577,866,711,225,218
251,412,105,660,918,702,190,191
187,389,108,688,846,723,153,166
217,390,127,750,777,742,176,195
239,389,130,750,875,793,183,188
211,375,129,768,923,814,187,173
273,347,125,688,977,849,206,272
283,367,121,616,997,854,207,270
286,376,104,505,990,851,199,268
355,443,79,440,869,839,193,290
353,529,71,376,812,820,193,289
347,608,79,360,688,764,168,258
345,601,83,360,648,730,177,255
343,604,81,368,648,715,177,252
279,564,83,338,696,679,174,244
292,502,90,354,651,666,176,257
256,405,81,342,595,704,166,218
255,386,72,277,673,721,171,216
234,381,70,326,660,730,168,207
199,379,71,374,687,761,168,176
220,381,67,373,672,769,178,181
229,378,69,425,679,751,180,186
227,382,76,458,711,724,185,193
242,377,75,410,771,699,177,211
245,354,89,541,802,664,189,213
245,346,91,564,845,688,190,239
281,358,101,619,889,681,213,232
287,372,100,630,882,700,201,242
291,383,106,643,840,731,216,251
290,415,100,582,787,757,211,253
350,451,109,579,725,747,234,308
323,435,102,499,639,766,209,303
374,451,106,472,543,777,223,386
424,464,114,467,523,764,234,418
427,443,113,402,474,734,238,422
376,433,108,354,452,712,220,371
376,438,108,327,466,683,232,386
343,434,102,341,414,665,211,324
268,435,95,320,416,658,207,272
259,445,90,286,535,684,200,285
239,425,82,293,691,696,192,268
236,459,93,339,730,715,191,260
202,483,96,328,757,732,210,254
188,464,100,401,763,753,198,240
219,458,109,434,778,747,200,227
235,462,106,420,644,757,188,236
214,430,95,408,621,735,182,216
230,414,95,438,610,720,199,194
235,406,84,367,595,696,189,184
207,401,71,325,488,691,193,178
203,419,96,505,529,673,199,180
204,451,94,491,502,686,192,187
195,466,88,451,582,701,186,200
189,470,88,471,665,712,225,218
200,476,90,494,673,721,232,238
189,480,65,331,752,734,225,229
190,454,70,349,827,750,254,230
184,428,82,424,837,750,246,206
200,452,87,436,872,721,218,199
180,443,90,436,851,707,206,180
194,417,89,429,814,696,204,171
222,437,89,404,867,671,183,164
264,469,84,371,864,664,165,186
253,442,85,388,806,692,159,177
253,462,83,371,794,728,174,171
243,462,88,369,743,754,195,177
237,473,85,376,634,774,197,176
220,469,83,493,614,764,205,177
245,482,80,600,610,758,206,191
251,483,76,604,635,728,195,186
428,493,103,804,663,681,192,352
445,463,101,808,600,653,177,360
463,428,115,729,572,666,172,409
472,408,116,641,502,642,173,413
489,382,122,673,540,634,182,420
368,390,113,543,611,641,181,304
351,390,115,572,637,620,179,294
375,413,124,572,586,600,177,233
352,421,123,549,681,624,170,210
354,421,123,556,673,621,206,230
336,393,113,449,556,621,211,220
326,422,112,419,538,657,223,228
238,404,86,414,541,647,220,192
275,419,85,422,446,636,253,206
236,412,78,330,430,647,212,164
212,425,97,375,458,642,200,169
223,401,107,370,442,606,210,185
229,397,106,354,434,610,205,183
182,372,105,400,507,595,223,210
259,409,128,511,477,564,256,294
271,401,111,473,441,558,252,295
257,393,102,464,528,561,233,281
275,471,143,531,545,548,247,332
282,488,153,515,469,552,225,323
223,459,148,540,491,568,195,246
227,466,151,538,516,563,205,262
230,479,152,542,460,579,216,262
197,396,114,479,479,591,209,204
175,391,97,458,496,581,181,200
166,385,78,313,490,594,171,203
146,363,74,332,491,598,172,177
137,349,72,319,486,588,159,176
136,357,74,411,641,615,177,166
262,358,91,537,639,627,184,218
291,360,89,542,610,606,180,227
304,381,86,535,606,607,185,247
360,381,105,550,598,601,189,321
368,369,104,484,393,569,162,326
303,353,97,356,377,568,153,300
288,375,110,373,434,580,156,309
271,357,111,352,423,610,126,290
190,361,91,323,422,625,115,199
190,351,92,340,423,643,125,190
192,361,85,321,421,651,122,179
192,373,74,324,451,675,141,152
197,378,68,331,437,671,166,153
215,380,74,339,423,669,165,176
207,394,74,333,460,686,167,183
195,390,77,325,478,694,174,171
177,367,70,274,443,668,172,204
173,366,71,250,470,673,171,218
160,355,66,233,485,691,174,200
156,355,63,209,460,661,166,194
163,372,62,187,425,644,176,205
180,400,68,193,487,661,202,177
173,391,65,181,485,634,198,158
185,412,75,347,552,616,211,183
209,463,80,363,539,639,216,184
194,452,74,362,546,638,198,164
237,473,82,481,538,616,207,207
248,466,81,517,527,629,199,209
230,448,71,440,453,630,220,199
229,401,73,463,456,607,222,209
233,399,82,544,518,604,225,210
239,337,89,479,497,604,243,262
254,341,92,449,506,591,249,279
262,326,102,458,506,592,229,298
266,336,120,431,510,599,239,302
260,327,120,333,436,615,241,303
222,367,111,283,390,636,215,242
209,433,136,351,395,637,208,225
210,445,133,361,401,629,206,192
194,436,115,373,506,635,200,190
192,420,109,378,665,611,194,192
174,387,102,386,682,583,163,188
151,321,65,328,674,576,169,186
137,300,58,308,661,562,156,183
139,311,60,329,592,535,170,189
161,317,63,317,409,529,166,187
149,316,68,348,374,530,170,183
152,327,83,366,408,523,185,201
150,325,91,403,476,533,189,200
135,360,89,368,485,601,174,184
128,430,111,456,545,674,184,186
211,472,121,437,529,655,198,184
212,463,115,492,536,653,185,159
235,510,135,529,499,654,206,201
242,470,140,548,482,580,207,198
265,448,129,556,449,480,224,248
246,397,122,557,467,504,224,251
251,390,119,514,450,489,217,251
276,348,102,450,485,497,198,263
274,334,96,457,519,506,188,270
248,280,90,401,493,494,169,229
226,311,98,390,492,517,147,226
222,314,103,395,467,516,150,228
166,299,88,394,421,503,143,193
155,317,88,359,386,523,139,178
169,332,96,317,385,527,133,175
137,296,80,309,378,478,146,168
131,317,71,269,400,480,153,169
138,325,82,321,411,473,151,147
141,315,83,331,401,434,158,153
140,320,74,324,393,467,169,145
143,321,77,317,477,495,163,181
146,309,74,326,493,534,149,200
130,295,61,284,502,551,147,207
150,328,94,341,509,587,161,213
183,388,113,353,505,585,170,248
194,395,121,503,516,607,170,220
222,395,151,599,491,589,203,227
225,394,154,582,459,586,203,214
213,370,138,577,478,566,204,209
170,314,127,575,491,551,190,188
156,297,118,471,437,515,183,175
212,324,92,445,442,524,285,196
241,336,100,452,455,520,302,217
239,336,111,470,413,534,300,216
261,364,125,555,397,573,330,236
260,368,125,537,317,574,334,235
200,367,119,446,435,566,241,209
176,378,111,465,480,551,227,199
174,423,102,428,492,560,231,198
157,383,90,315,495,533,187,161
171,390,93,316,517,547,198,166
164,354,90,343,422,553,204,148
186,410,102,333,391,583,197,157
185,373,98,308,377,578,180,153
181,364,86,319,369,582,192,150
173,372,83,319,385,600,179,143
173,408,87,293,395,624,153,153
161,336,68,261,354,620,161,131
177,327,71,284,356,615,171,145
172,360,69,273,375,631,182,144
168,342,69,272,340,604,175,142
159,310,63,280,292,563,180,130
163,327,72,346,283,543,178,131
158,329,68,331,278,553,181,136
158,299,66,311,265,527,144,133
161,325,69,312,295,575,144,147
164,375,65,316,385,628,160,182
144,361,49,250,419,675,161,182
141,412,54,236,457,729,187,185
145,423,57,228,460,774,202,194
153,408,51,212,480,781,219,199
150,383,61,201,453,795,220,169
151,393,76,205,451,793,218,173
152,350,74,195,494,738,195,175
137,344,73,205,527,707,189,203
133,354,78,217,525,705,177,203
139,336,74,230,519,677,158,207
124,345,72,290,519,677,160,203
121,358,83,354,472,727,185,195
126,353,88,376,441,746,190,149
117,360,84,399,423,754,185,142
121,374,83,399,419,777,194,125
129,365,77,385,444,785,199,125
136,356,64,358,440,784,170,140
135,387,59,339,473,803,157,138
141,375,62,307,542,781,165,137
156,368,60,299,697,775,157,150
167,386,60,259,762,791,167,165
172,381,58,239,956,798,155,157
184,397,54,241,963,809,171,181
192,414,52,236,915,846,163,179
178,414,60,258,803,858,157,192
189,432,63,251,807,827,140,197
184,436,64,255,613,842,162,194
178,405,65,245,570,834,150,189
188,399,67,260,607,822,158,213
193,405,63,217,647,800,164,203
176,383,58,210,546,790,163,186
177,361,56,208,491,757,180,178
183,366,63,257,548,730,195,172
158,353,63,276,529,701,189,133
174,347,69,298,455,723,202,138
176,333,76,347,436,738,202,149
169,372,79,339,461,739,193,153
157,366,80,320,494,753,187,160
161,388,80,327,637,811,191,170
132,398,78,318,664,823,176,155
133,392,76,291,674,844,182,182
177,405,78,325,661,863,172,209
181,400,72,317,619,843,174,199
195,438,73,313,488,803,197,212
220,435,67,326,463,772,190,229
218,442,74,326,458,733,193,208
186,404,77,347,469,682,202,195
193,446,77,350,522,696,205,212
188,388,85,342,489,686,182,201
172,385,85,326,513,685,198,219
169,390,73,301,572,693,192,214
169,416,85,240,616,713,203,228
167,363,87,241,600,699,195,223
199,392,82,253,623,682,212,232
219,395,81,270,607,659,208,199
213,387,84,283,549,655,210,206
233,363,74,357,539,643,196,193
238,396,74,364,489,647,210,203
210,382,69,363,451,674,209,195
176,384,71,363,421,704,219,190
202,403,71,368,429,738,226,192
183,421,66,425,405,768,225,175
212,446,74,434,477,789,215,166
226,454,76,445,561,791,206,157
308,468,93,480,606,774,210,219
300,453,93,476,603,743,197,215
293,454,89,357,594,714,190,217
313,455,115,374,558,691,204,329
302,432,113,352,500,666,185,333
227,413,100,297,512,665,202,309
247,426,109,304,505,667,223,326
257,427,105,297,466,671,217,325
211,397,73,245,429,682,211,222
226,417,95,237,424,719,231,226
215,413,96,245,405,747,203,212
209,435,102,239,427,770,210,236
204,439,108,272,445,788,209,240
194,446,103,266,471,779,193,258
192,453,85,259,498,758,187,249
210,471,84,240,483,751,180,262
191,435,66,283,479,736,143,223
187,454,61,255,478,719,155,230
184,458,64,243,476,724,150,184
172,438,69,441,507,722,150,190
159,454,74,470,505,721,160,177
146,469,69,450,578,740,167,163
203,440,90,495,591,738,178,163
220,421,95,503,560,744,198,174
220,443,91,361,521,753,182,199
222,466,87,327,570,760,182,214
233,478,99,357,582,744,179,227
181,486,81,397,569,738,162,219
158,495,74,407,601,721,154,210
159,491,76,395,613,706,160,181
182,471,95,427,734,703,186,166
242,453,87,422,998,710,186,158
268,439,83,365,1095,727,193,164
276,447,90,365,1110,749,187,162
269,433,89,413,1103,746,186,159
274,454,81,372,993,739,170,239
211,454,81,340,637,744,169,233
175,452,83,332,415,719,157,224
223,471,98,345,306,697,203,312
229,466,102,305,219,692,202,314
237,413,100,321,155,673,196,296
261,394,107,324,121,653,214,304
270,412,107,289,94,653,215,307
269,386,90,270,71,647,178,271
291,403,83,260,51,643,186,293
266,406,74,238,37,646,173,275
252,404,56,227,30,629,152,267
242,420,61,223,24,615,156,266
181,442,58,199,21,616,174,209
157,445,62,150,18,611,172,209
167,436,68,159,16,603,180,207
166,429,71,191,94,611,187,214
177,395,65,185,402,625,187,223
190,354,65,190,566,612,159,232
171,377,60,206,698,612,154,202
165,373,58,204,763,610,151,174
159,390,65,176,800,594,162,172
154,393,66,192,706,589,165,160
163,391,74,194,695,599,163,148
181,355,76,220,646,607,176,148
171,364,72,233,621,595,177,143
184,359,71,225,596,596,176,160
189,337,69,219,592,576,168,158
176,335,71,235,463,582,173,171
176,331,75,261,389,587,173,197
193,315,77,262,335,592,179,214
178,332,72,290,364,605,162,193
184,351,73,303,416,631,174,229
174,353,67,297,426,625,174,221
158,361,64,266,398,625,156,209
134,371,59,248,385,633,180,197
148,351,57,252,344,648,183,201
127,368,55,311,332,646,174,160
129,369,60,301,329,636,163,165
144,357,54,299,345,622,202,175
137,366,56,332,389,628,179,192
148,397,65,341,399,597,177,191
164,392,78,326,405,596,189,197
162,409,74,337,419,598,210,188
160,422,72,323,429,607,198,177
179,415,81,288,472,578,190,170
175,408,72,247,515,577,200,181
175,411,60,162,512,575,185,172
189,376,60,138,513,569,172,178
181,375,62,138,537,563,168,180
172,383,60,216,479,591,176,182
155,360,62,250,414,591,168,170
168,347,73,332,376,595,173,195
161,370,77,356,383,637,172,189
178,360,82,388,351,648,149,173
178,354,80,367,368,654,140,148
179,390,84,351,411,688,132,161
172,384,80,289,422,689,128,136
185,380,80,280,424,656,138,154
173,375,80,264,414,657,144,159
182,372,99,259,401,642,157,191
199,352,98,254,377,604,168,187
184,348,92,248,370,601,172,176
201,328,91,226,348,591,159,168
214,321,93,213,320,552,221,169
211,305,69,207,304,561,222,141
190,283,66,201,378,548,217,148
194,280,69,212,421,524,225,176
164,292,68,246,425,541,240,183
147,294,66,233,452,545,207,202
138,305,63,223,466,546,214,206
178,314,60,268,412,578,209,205
209,330,62,276,409,596,216,189
227,323,62,267,428,591,211,185
227,357,68,278,416,626,213,212
257,353,75,291,406,603,235,257
304,347,80,267,402,570,244,266
305,339,86,308,352,546,241,267
294,329,84,290,322,546,264,274
290,299,76,274,334,505,247,241
298,315,76,327,340,508,218,184
250,320,78,369,366,508,226,174
224,317,74,352,392,534,212,178
227,337,75,365,412,527,191,193
237,333,79,428,446,539,200,224
193,440,73,395,457,631,211,225
177,463,72,373,569,670,207,219
196,469,75,377,619,657,207,234
196,471,82,403,616,644,200,210
195,481,79,367,586,636,191,173
193,369,85,384,610,514,174,172
195,337,78,360,501,446,160,179
208,323,72,336,445,410,181,187
209,298,64,290,449,439,201,206
218,278,60,277,477,405,197,225
222,286,56,252,412,433,212,236
215,295,58,269,438,502,213,225
203,282,66,269,468,505,193,197
221,304,70,285,464,488,165,196
212,343,76,279,453,523,179,196
214,333,79,256,480,512,160,186
220,334,86,312,469,462,172,198
229,364,77,295,429,484,178,256
213,360,72,296,419,487,207,251
228,325,71,281,399,474,204,244
236,327,66,301,367,499,203,248
229,313,57,284,306,510,202,242
204,296,73,347,300,526,207,199
211,317,85,347,276,555,182,199
196,323,91,366,344,559,172,201
188,323,89,377,428,547,179,191
214,359,92,342,424,565,193,215
210,359,82,285,449,558,202,196
194,343,72,291,472,512,198,187
186,365,63,291,476,518,218,173
182,371,72,277,417,515,226,176
145,332,66,291,434,470,250,158
138,322,64,286,409,459,235,152
167,329,65,292,420,480,238,155
163,303,71,267,348,485,245,167
158,309,66,304,353,509,258,196
185,317,67,347,350,557,216,185
190,351,72,398,361,579,226,199
175,347,70,384,334,599,227,211
173,338,60,394,409,597,235,202
189,338,74,423,396,581,229,189
179,332,78,382,393,550,225,177
185,291,87,332,363,528,229,200
175,272,89,345,392,512,220,176
191,321,99,374,325,514,223,210
208,312,90,309,342,522,226,233
191,328,91,320,344,553,236,238
219,365,89,338,367,586,240,234
225,367,90,324,332,603,240,239
237,322,90,314,342,630,223,236
217,308,88,307,334,650,200,219
230,319,87,279,318,647,201,277
202,286,77,255,317,610,193,256
193,288,77,279,362,617,201,259
195,319,75,267,376,606,193,243
198,329,75,261,365,574,197,235
198,309,78,315,376,580,214,183
196,299,77,311,377,627,196,204
207,318,79,283,410,628,202,200
174,280,72,280,375,642,188,186
235,300,78,293,412,717,223,226
235,324,76,233,431,768,195,211
230,355,77,238,468,774,204,203
223,346,72,228,432,784,203,219
235,359,72,208,427,759,205,225
171,345,69,220,422,735,163,168
170,334,69,243,437,698,173,174
184,310,68,268,374,667,192,180
199,324,72,313,330,679,197,192
200,341,73,350,340,813,206,197
189,336,70,348,315,797,207,224
177,327,69,353,309,784,216,233
168,330,68,339,389,771,215,216
180,315,68,305,411,747,243,225
186,323,66,304,439,685,240,219
196,385,86,398,442,703,258,206
190,394,93,408,405,727,253,191
209,408,100,416,430,773,254,224
187,441,102,454,489,853,225,194
188,415,103,424,464,846,228,219
225,353,89,409,488,855,232,224
230,365,90,386,550,916,235,224
235,365,82,395,514,930,245,228
247,352,86,434,504,891,278,259
245,395,83,444,559,887,284,249
354,414,170,539,605,1101,334,243
386,433,181,661,571,1334,365,255
396,444,184,660,560,1494,366,243
393,440,189,626,538,1504,339,203
416,423,190,652,512,1468,327,202
307,431,125,560,452,1274,255,196
270,412,114,415,529,917,214,181
247,398,117,492,691,597,186,197
243,398,101,498,684,730,185,200
189,415,103,463,699,823,203,197
178,406,106,546,753,890,213,216
185,393,98,608,731,1038,220,232
177,383,103,584,574,1124,217,206
172,375,110,608,732,1063,216,203
164,361,108,622,750,990,206,216
160,382,99,525,683,998,223,200
135,380,97,480,682,916,211,205
131,380,94,480,695,865,231,221
147,374,97,448,513,1051,235,218
148,376,95,434,469,1129,249,193
176,364,95,499,473,1123,243,220
178,375,97,542,468,1115,241,194
185,374,86,488,436,1137,232,191
170,397,79,484,504,956,230,211
179,393,88,497,577,937,244,235
153,384,83,442,594,962,222,207
181,366,80,394,557,988,237,225
164,375,91,479,570,911,243,217
201,360,94,472,519,882,237,227
210,341,104,466,395,845,218,215
218,339,110,504,422,787,226,211
199,353,112,502,436,746,208,208
210,354,107,433,437,773,193,198
172,364,103,429,478,789,200,187
150,391,87,419,508,808,174,182
155,416,75,359,514,854,170,188
142,418,68,307,579,887,192,196
132,434,63,293,659,889,202,192
160,437,64,311,627,891,188,173
165,436,61,380,645,907,225,178
155,435,66,385,599,934,241,192
228,463,143,584,694,1235,322,174
263,444,172,687,770,1310,353,172
300,445,186,716,826,1288,408,300
304,416,190,684,826,1237,401,296
309,399,190,670,903,1157,392,285
271,378,143,525,792,728,337,308
245,379,108,389,621,439,293,318
179,386,87,301,535,298,222,216
189,422,77,268,513,220,229,246
187,427,74,272,356,551,234,253
190,440,71,218,293,714,203,221
193,446,65,190,322,843,208,222
196,429,68,270,339,966,198,209
244,435,73,310,366,1053,187,200
244,451,74,317,363,990,184,192
246,455,72,319,431,959,174,190
246,506,74,329,461,922,213,190
253,518,60,252,463,879,215,200
190,505,53,214,433,873,193,169
189,494,48,200,437,859,195,199
178,490,50,205,402,860,200,205
166,434,51,193,361,848,155,209
164,432,58,194,356,837,154,206
158,441,55,183,325,829,174,210
146,448,55,169,338,814,166,190
150,433,55,225,326,790,179,189
151,456,58,256,348,813,193,177
136,446,51,266,342,790,193,160
170,439,49,275,365,774,186,160
170,448,55,293,346,825,176,149
166,437,77,393,369,819,186,177
166,423,78,466,460,798,189,175
174,434,84,487,500,834,196,175
147,426,86,499,555,820,206,172
151,398,82,488,609,757,217,169
165,415,70,385,617,769,188,136
160,407,68,307,574,750,165,135
158,404,69,275,552,725,149,145
160,424,70,277,502,730,123,129
182,444,92,326,446,739,146,148
175,428,89,331,402,720,146,141
195,419,119,560,656,734,196,163
194,400,133,630,680,709,203,180
193,397,132,630,733,688,201,185
229,462,132,662,779,689,193,270
239,468,137,670,779,676,199,277
221,470,110,468,578,654,152,266
214,503,94,378,571,672,168,264
223,501,108,385,484,673,226,270
163,406,99,404,430,648,209,174
150,441,93,432,444,663,226,179
169,440,94,448,449,659,257,180
183,434,90,497,422,639,262,161
189,420,72,483,409,640,219,150
190,435,78,415,377,651,235,159
182,399,78,388,365,628,237,148
165,408,74,367,303,636,208,141
173,359,77,386,315,626,183,183
163,339,80,382,359,612,185,194
185,324,59,346,402,611,171,184
194,325,81,426,502,617,157,189
202,318,84,454,512,621,152,189
197,354,85,416,514,632,227,166
199,364,88,481,488,621,225,157
179,359,88,482,463,625,221,169
169,370,70,407,406,631,222,160
159,366,69,380,397,631,230,153
154,371,64,326,424,648,197,178
148,385,87,358,456,670,227,180
144,411,90,376,451,689,233,174
146,394,86,357,425,688,226,191
148,403,86,354,431,668,227,194
141,400,89,357,360,663,214,160
152,384,74,214,331,671,206,175
160,391,72,189,316,659,199,172
174,404,72,191,282,686,247,161
180,383,71,201,298,697,244,175
179,372,60,215,323,686,225,169
191,381,46,197,388,694,219,159
192,343,53,286,416,706,245,186
198,332,61,282,424,682,194,181
201,346,63,273,397,703,201,199
191,328,66,254,388,724,210,204
234,335,84,352,329,701,201,239
241,367,83,325,337,715,184,229
231,362,83,348,325,720,191,236
242,372,84,347,354,699,188,231
251,378,86,366,385,711,185,248
187,376,66,281,384,728,179,208
168,357,64,240,521,694,163,195
176,364,60,216,608,705,145,196
159,365,63,233,595,699,143,204
153,349,61,209,565,661,138,178
175,389,76,202,562,650,178,185
186,390,73,175,404,634,191,194
172,388,75,182,263,608,221,188
171,377,79,205,274,616,222,157
165,377,78,217,291,602,232,154
162,331,72,299,350,582,203,149
155,342,71,312,367,612,206,138
149,346,86,350,444,591,191,129
143,361,84,373,456,613,175,122
144,378,85,364,485,645,199,135
226,377,97,374,482,646,218,178
229,355,103,425,472,636,205,184
248,361,90,417,435,682,196,201
281,360,87,390,424,651,231,223
279,348,87,396,419,640,198,216
266,375,69,366,468,646,180,213
268,390,66,333,460,625,173,209
249,365,63,293,427,609,177,195
228,382,68,276,446,602,171,178
247,389,75,270,437,587,174,186
184,347,73,223,373,608,167,145
212,385,84,186,388,635,181,216
219,387,87,193,379,631,170,211
210,351,81,210,396,644,136,209
224,365,86,214,373,644,168,234
225,415,84,203,373,669,171,237
195,439,74,197,411,666,155,172
200,446,72,195,435,667,200,184
198,477,89,248,405,652,209,199
190,468,86,250,404,646,180,174
182,426,87,244,373,572,178,168
241,379,95,336,370,582,264,221
250,370,101,337,343,548,235,220
242,330,84,287,330,541,222,202
229,311,93,363,340,551,247,229
247,313,100,374,977,555,256,237
188,281,88,286,1036,506,179,198
192,335,105,305,1390,529,191,220
199,318,108,301,1513,520,193,217
191,330,104,230,1536,502,166,189
195,388,110,232,1233,517,167,215
193,375,111,225,1169,507,155,207
231,325,100,277,708,478,162,230
261,363,120,294,378,476,183,248
262,350,116,262,360,457,176,236
265,321,113,274,515,441,171,251
296,384,116,276,549,464,178,257
253,375,108,194,584,480,182,213
224,353,107,216,639,512,167,201
219,366,105,232,613,576,168,199
208,332,95,206,494,618,164,172
190,315,94,208,467,639,180,217
196,339,94,204,433,633,156,225
245,345,66,150,344,634,152,243
248,336,69,174,294,580,169,257
235,341,74,195,370,557,177,235
213,292,74,214,358,526,166,187
214,272,73,245,373,520,181,176
153,288,77,266,361,518,199,155
173,294,69,239,367,554,192,161
176,309,66,226,302,570,189,163
172,307,58,218,348,591,190,169
172,313,58,270,437,621,189,176
176,293,63,369,485,612,171,176
153,313,71,397,512,633,182,170
148,299,70,397,507,618,180,189
156,294,70,391,490,581,183,214
146,344,70,348,421,586,171,216
158,336,66,240,400,600,174,216
180,328,58,216,392,581,152,215
213,339,55,238,388,616,164,213
210,355,56,248,386,696,153,189
213,312,60,242,420,692,156,197
209,318,57,231,428,723,144,194
194,304,61,214,422,755,162,194
157,317,67,213,415,726,140,179
153,327,70,229,410,686,180,171
161,351,73,237,390,702,188,206
139,343,75,238,348,672,189,201
156,356,72,246,361,648,202,211
157,334,66,214,371,675,202,210
229,351,82,240,426,675,176,272
267,311,78,289,436,687,173,245
273,319,85,300,459,717,183,245
313,321,95,310,442,711,225,281
325,320,97,321,543,767,230,290
296,309,84,290,615,804,230,267
277,324,81,262,590,787,228,266
279,323,78,300,576,802,254,263
234,356,75,322,630,837,205,234
226,341,73,324,555,770,198,229
216,346,80,322,465,761,198,195
207,362,90,319,471,817,203,198
209,353,84,264,508,795,169,197
207,331,81,219,442,808,155,164
226,361,82,231,425,860,167,165
213,353,74,238,404,897,167,160
188,367,59,206,428,908,174,142
187,400,59,222,419,922,165,145
173,387,49,209,419,917,180,142
136,416,64,214,422,928,194,130
130,419,66,206,409,886,189,119
137,433,83,213,356,836,172,153
144,422,85,191,316,831,179,167
141,427,89,210,317,824,178,181
166,401,83,178,309,800,157,186
170,411,82,163,290,831,154,188
166,419,61,143,338,877,153,166
179,406,58,162,358,915,185,170
199,416,62,158,378,950,176,171
185,408,63,168,367,967,187,191
196,417,63,176,384,962,187,198
202,391,69,241,358,941,214,215
183,390,69,244,340,915,190,206
170,380,69,293,376,865,205,200
164,379,67,317,383,835,199,206
161,369,69,367,379,815,202,227
150,355,73,381,374,798,177,208
158,373,73,379,370,770,167,205
185,410,83,433,395,772,169,219
181,402,81,420,420,800,157,186
252,398,77,388,425,821,196,226
284,406,77,411,443,850,199,237
280,401,75,416,442,870,202,240
281,388,64,329,351,873,195,238
283,381,63,333,342,849,194,238
218,391,65,353,324,824,156,186
204,392,61,275,300,787,145,180
196,394,60,263,358,768,140,169
259,400,72,275,423,753,211,184
304,432,78,252,409,741,231,222
306,408,79,208,406,720,228,212
285,392,77,201,430,717,243,204
290,406,89,224,396,727,249,217
222,363,79,190,362,718,176,191
163,391,78,197,430,738,188,166
158,418,79,203,439,756,191,162
167,415,77,202,405,736,185,160
180,400,63,173,388,708,180,162
173,433,70,181,375,717,203,167
166,386,68,177,292,698,174,178
170,374,75,269,306,696,173,173
172,399,74,268,319,752,175,184
154,400,76,282,347,790,191,205
174,398,74,272,380,827,179,241
175,412,75,320,411,866,175,221
185,444,70,257,400,889,171,232
183,441,70,248,400,879,156,220
195,458,71,229,407,873,146,214
175,435,67,284,410,831,158,172
174,439,62,228,391,774,167,180
170,399,56,201,373,737,184,181
180,382,63,206,370,690,191,191
166,372,64,213,355,688,198,191
192,385,68,217,342,691,190,215
190,383,72,239,341,714,190,226
180,391,75,279,375,742,199,217
193,416,74,303,411,769,199,221
186,406,76,322,452,795,178,202
165,443,67,292,520,826,185,186
167,440,63,277,543,848,186,167
190,449,64,249,534,849,166,198
177,458,64,220,511,864,157,186
180,485,60,189,495,850,174,185
161,446,58,154,392,837,154,170
170,437,67,171,338,808,176,181
142,438,63,154,337,790,194,157
132,412,57,144,382,774,196,172
147,393,64,162,353,760,186,177
186,411,69,221,393,771,187,177
174,426,59,210,397,772,163,156
178,424,60,212,411,778,136,142
185,437,67,234,422,787,208,153
181,443,58,220,460,771,216,134
158,462,63,182,441,742,244,153
190,477,72,195,458,777,245,171
195,454,80,254,466,769,249,179
212,453,81,243,434,757,192,193
206,443,80,246,400,786,180,193
238,423,80,265,432,809,163,215
229,412,73,263,416,783,195,217
222,446,70,225,463,821,186,211
206,447,74,233,515,825,212,201
213,452,79,287,544,809,226,217
179,457,80,295,506,798,222,193
165,448,79,286,517,782,211,196
182,433,79,308,521,730,222,214
185,418,77,336,506,700,210,215
208,406,73,287,467,677,201,223
210,382,70,265,476,661,194,213
213,388,72,276,451,646,181,200
202,372,74,247,368,655,201,191
213,377,75,245,383,661,192,164
189,383,77,302,396,669,195,138
173,393,76,378,401,673,211,148
204,381,74,365,435,669,212,179
223,393,68,362,474,671,193,179
202,390,59,330,423,672,191,188
206,373,59,287,518,656,186,189
213,377,48,165,519,653,162,184
183,372,52,203,508,671,179,179
175,380,53,264,523,660,189,203
168,401,52,285,528,660,187,202
160,410,51,290,437,672,193,201
167,386,61,302,421,647,192,206
196,388,64,297,427,637,205,221
175,364,61,238,356,630,193,197
197,339,60,245,374,658,219,202
195,340,57,239,368,652,223,205
183,355,57,250,369,665,243,199
142,362,61,267,361,672,226,159
161,357,66,301,385,677,233,169
147,368,68,278,395,652,224,151
148,371,78,283,423,646,238,148
158,355,73,306,436,629,228,152
154,336,71,292,735,640,216,160
145,347,68,266,862,639,199,146
150,325,93,298,859,620,207,169
157,339,91,293,854,652,200,173
142,363,91,259,876,669,190,178
149,378,92,294,659,672,203,175
192,410,96,352,572,699,208,201
194,416,83,399,569,727,203,187
194,394,78,399,583,696,180,177
197,380,78,405,558,710,178,164
189,369,74,406,545,694,187,206
157,334,72,361,445,672,186,182
144,352,65,288,436,672,159,190
162,351,67,300,396,702,168,197
169,364,70,311,441,675,186,199
179,400,71,297,447,691,162,147
172,414,76,353,443,692,154,152
167,396,72,356,412,658,157,149
159,407,73,350,413,660,178,163
172,398,74,341,387,661,156,175
176,362,89,376,432,653,169,185
176,366,91,388,449,662,194,195
171,358,99,407,467,673,207,200
189,339,102,457,483,655,189,203
174,366,102,536,537,709,198,197
166,369,101,591,554,682,183,210
193,349,115,634,564,664,173,208
200,363,120,660,569,685,165,201
180,372,119,629,567,659,160,188
213,363,119,576,512,608,153,204
235,364,109,518,463,640,173,189
220,361,92,450,437,634,163,179
229,341,84,452,454,595,180,189
239,365,95,603,466,609,178,187
226,368,117,712,474,606,188,181
216,361,121,769,456,596,168,203
233,364,130,814,523,603,169,205
240,392,130,796,535,623,164,255
221,374,126,722,516,658,177,252
207,358,102,612,483,679,171,268
213,357,95,517,482,658,180,285
215,351,83,444,422,674,186,303
272,334,76,464,409,688,196,277
289,320,69,458,422,670,205,310
299,327,75,464,450,665,209,299
297,328,83,577,485,688,213,282
281,330,86,623,507,659,259,271
210,326,85,586,469,635,253,251
198,346,89,552,466,611,245,206
196,320,87,551,431,608,248,189
177,313,82,449,412,619,256,156
176,297,80,414,382,614,206,159
209,300,97,543,472,625,196,224
204,383,100,641,582,691,192,231
205,404,108,698,667,695,224,254
209,425,106,690,653,656,210,253
211,442,107,703,660,676,220,268
176,443,94,620,629,641,216,224
172,369,88,556,568,552,220,225
159,341,74,494,592,508,189,196
164,322,75,506,615,522,227,196
170,300,76,458,648,521,229,156
172,276,77,479,635,532,226,160
164,253,78,447,589,544,237,153
190,265,82,506,499,559,239,162
195,291,90,551,487,567,205,175
208,312,90,584,459,538,200,191
225,328,90,565,500,563,218,201
242,329,97,628,596,545,216,222
251,328,99,565,582,529,228,237
253,296,107,598,594,500,236,249
252,265,105,580,648,476,230,250
250,279,104,585,617,438,215,249
245,310,100,586,622,463,204,235
215,327,104,608,672,472,182,215
213,350,97,519,682,499,182,229
205,363,97,512,664,545,205,249
185,335,113,680,699,534,209,240
213,303,110,710,691,534,205,243
217,296,102,717,642,559,234,248
211,290,99,774,675,586,232,237
210,284,104,832,711,555,204,234
235,326,102,786,714,598,207,220
198,336,123,815,659,574,220,226
196,320,127,825,655,538,211,222
203,310,130,876,642,480,204,207
191,315,153,934,652,477,237,184
167,285,162,950,632,457,269,209
181,339,162,951,696,586,282,213
236,386,162,950,720,677,263,271
231,398,157,843,693,749,269,264
230,421,127,686,720,788,248,250
245,434,148,673,929,802,265,296
252,404,144,627,927,724,247,312
214,379,141,581,893,654,242,267
264,369,164,787,953,646,236,279
271,356,190,944,933,625,267,284
260,342,184,978,740,642,243,221
302,338,184,969,669,696,237,225
307,357,188,1003,708,711,268,227
271,341,173,920,688,707,284,219
277,333,150,823,754,732,258,235
280,341,115,677,732,720,230,255
235,333,99,672,764,695,255,233
231,319,118,724,785,722,238,234
259,335,125,737,718,699,221,245
253,342,122,694,537,681,225,262
244,497,133,736,607,723,230,238
225,726,133,685,622,945,210,219
232,750,143,673,605,933,257,241
225,772,163,595,611,912,272,247
236,774,166,569,606,893,278,220
244,677,165,593,493,823,275,232
246,409,178,721,391,484,302,246
236,520,162,682,467,587,258,216
212,475,168,699,438,613,236,200
191,601,186,701,582,800,247,188
184,726,188,669,738,944,247,171
195,770,171,518,765,1041,202,155
187,681,166,482,730,984,211,176
187,716,128,484,751,1005,225,176
207,649,103,600,712,931,202,196
204,613,101,627,670,908,215,210
211,608,101,628,656,868,218,214
208,620,95,595,649,950,232,224
210,603,97,538,650,937,226,216
186,577,84,497,744,933,231,208
196,498,71,409,686,935,220,204
178,484,72,385,700,992,264,210
222,499,76,375,684,954,269,215
209,504,73,373,683,1005,270,206
220,543,70,210,580,1052,302,225
246,545,74,262,549,985,314,227
273,579,75,318,572,949,288,228
250,566,76,350,584,912,284,212
281,553,76,398,592,883,314,261
298,684,80,421,568,833,285,253
279,717,79,391,620,914,276,277
287,743,81,412,640,910,266,291
278,782,80,400,611,961,247,281
250,826,75,348,610,977,234,252
239,711,73,354,581,934,226,248
269,673,82,369,524,935,231,251
245,619,87,386,578,911,258,236
242,554,93,423,590,832,274,241
260,518,97,438,642,930,264,245
261,486,99,416,669,985,263,248
233,493,95,450,672,919,274,235
250,470,89,393,575,920,249,225
276,512,80,396,602,994,234,247
274,602,114,588,692,948,227,242
267,637,123,705,764,911,267,242
276,637,123,675,756,944,258,232
263,647,120,662,764,955,255,244
247,617,120,662,817,1005,255,220
241,550,88,504,740,965,239,216
256,507,76,374,628,1004,196,240
242,513,68,377,632,967,189,235
269,537,67,396,646,1046,188,237
274,560,65,336,545,974,229,264
278,506,59,304,458,977,232,271
261,523,57,225,466,949,221,234
275,531,56,195,488,973,221,238
245,488,62,166,462,923,227,237
244,491,67,154,460,932,202,227
254,500,72,200,519,899,219,224
263,502,87,225,579,926,239,268
253,496,95,244,588,963,233,259
272,518,92,245,601,982,219,256
258,491,93,244,626,979,211,240
239,483,91,215,597,993,213,271
238,484,69,190,572,983,211,288
236,461,58,186,553,911,211,311
254,460,61,183,527,836,221,313
284,517,62,189,506,860,212,318
308,551,60,172,521,950,195,287
302,539,67,165,464,953,177,237
302,606,76,158,473,1050,161,205
326,651,79,153,541,1111,160,224
330,654,82,144,572,1154,155,226
352,620,84,151,541,1056,155,236
394,645,106,176,552,1018,154,235
418,563,147,188,521,914,184,256
373,468,152,190,430,781,206,244
366,357,175,224,325,568,215,253
347,336,199,234,286,481,221,242
316,209,195,221,215,367,242,235
290,184,170,216,174,257,220,209
325,155,168,226,138,209,203,192
328,113,142,193,111,161,198,171
331,88,126,177,88,125,187,170
346,66,143,179,80,81,177,162
396,41,166,191,71,159,200,209
407,87,185,197,109,254,204,211
401,311,199,229,337,563,210,206
448,524,200,264,394,818,214,229
452,581,196,322,475,943,210,257
426,705,175,316,568,1036,211,241
392,814,151,312,661,1146,221,236
388,827,138,334,715,1117,216,243
323,801,120,329,728,1030,234,225
289,791,98,276,717,966,234,208
302,771,92,263,696,906,224,232
317,689,98,270,669,788,207,241
340,733,87,231,539,718,217,259
333,756,83,213,524,646,206,255
337,794,88,210,481,620,208,281
286,737,88,221,446,598,196,248
292,779,90,234,428,573,201,237
263,734,87,209,451,594,214,217
243,645,95,218,427,662,202,223
225,599,86,231,451,711,197,172
261,604,89,279,450,760,204,167
228,536,94,261,398,788,218,178
215,465,101,393,472,786,196,176
223,444,98,409,479,730,200,175
270,434,105,431,474,672,205,213
263,414,103,414,471,610,207,211
280,418,95,445,494,555,201,220
279,398,97,344,427,498,262,215
281,390,96,359,442,499,263,220
278,369,103,375,425,510,291,219
252,356,101,368,441,512,292,216
230,353,98,334,427,547,283,203
224,357,92,368,448,567,237,205
214,383,95,342,422,589,251,220
190,384,84,287,451,597,208,201
213,418,83,283,452,621,216,214
223,404,79,294,475,664,248,214
251,424,105,488,501,680,249,232
246,462,101,492,545,701,235,200
237,464,102,504,548,708,253,210
239,460,102,516,550,711,266,205
253,489,117,541,551,702,238,231
233,484,113,419,542,711,244,207
259,444,126,482,570,685,265,212
258,474,122,477,595,700,273,222
272,463,134,525,650,687,257,228
254,443,126,562,643,654,259,214
261,419,137,663,685,648,250,234
273,394,126,632,641,639,221,252
289,393,136,686,669,613,233,252
277,408,128,664,626,619,267,246
300,379,132,638,612,612,291,262
312,401,109,523,606,621,282,264
364,409,121,614,666,662,287,251
349,373,116,579,699,712,294,235
348,349,126,669,759,708,262,259
366,396,161,814,788,750,278,272
349,410,169,892,735,734,318,260
288,430,169,883,752,702,326,268
301,466,181,943,701,668,312,321
323,472,174,904,670,689,339,334
294,454,149,822,630,675,332,301
307,454,151,829,738,751,311,298
298,433,149,802,693,753,306,326
307,398,141,764,713,732,294,287
301,400,160,828,679,715,286,286
283,391,175,863,729,717,261,294
309,372,179,789,685,666,239,329
341,406,220,889,741,679,275,373
322,399,260,980,758,676,301,366
323,375,269,997,779,676,278,343
331,401,285,1073,881,710,298,355
308,383,277,1060,859,678,308,325
273,351,254,1030,912,671,292,230
257,386,222,958,905,731,281,275
237,409,212,951,901,703,292,278
258,368,183,831,879,659,281,261
269,407,196,856,866,643,279,267
250,399,186,782,746,637,302,277
281,357,180,741,748,590,292,241
304,353,163,647,765,656,276,245
304,375,151,598,673,663,256,261
324,381,140,653,743,709,259,274
331,427,201,827,836,713,271,262
304,436,206,877,841,700,280,247
315,449,212,880,881,688,320,252
283,453,209,851,858,691,323,227
316,462,207,766,785,639,327,196
314,445,142,555,697,658,285,200
366,465,139,502,636,671,277,229
401,447,137,473,507,647,303,254
409,442,138,494,565,627,298,258
508,436,160,526,564,653,336,375
521,411,160,494,532,616,335,385
484,380,179,529,650,596,319,362
527,399,213,600,663,599,324,410
527,377,213,578,585,600,322,410
376,335,202,577,706,605,268,304
439,334,218,653,726,600,283,349
458,330,201,608,609,615,299,364
354,353,158,525,599,644,277,285
381,367,163,562,633,638,281,314
409,354,155,538,522,634,302,375
422,354,136,464,509,646,289,433
412,447,119,450,588,715,272,438
417,418,132,474,597,702,256,461
401,460,123,447,568,685,271,451
417,484,128,452,554,645,266,428
322,479,127,446,555,606,249,316
362,405,142,519,534,485,283,329
363,393,129,483,537,429,250,289
359,343,141,530,553,450,235,295
305,315,130,541,551,471,248,266
309,320,130,609,677,511,259,258
244,336,112,501,652,527,225,227
217,318,105,492,651,536,235,243
198,322,89,479,667,520,266,218
229,355,100,464,657,521,238,224
241,358,96,379,502,511,225,237
248,343,101,394,461,496,246,224
239,370,108,396,433,469,250,222
248,360,104,321,379,454,211,226
264,319,142,537,527,426,220,225
240,317,141,534,541,415,223,207
276,361,162,581,640,463,215,270
326,355,172,653,684,491,192,249
349,389,178,664,751,528,239,271
346,392,161,585,762,588,234,273
345,390,163,595,774,625,246,279
313,370,141,561,746,637,247,241
271,387,136,546,794,672,276,270
257,394,139,569,736,675,262,246
226,397,120,461,601,643,250,235
241,406,117,456,585,625,247,241
243,372,113,442,582,578,234,223
332,361,116,497,515,522,222,300
315,318,112,515,510,484,197,305
327,318,106,517,526,463,196,304
367,341,111,535,569,469,224,368
376,342,106,538,488,492,230,372
317,398,94,400,538,502,216,306
317,435,88,345,595,531,209,316
310,440,95,371,580,594,244,341
252,411,92,326,548,587,243,287
255,439,105,365,574,562,251,289
233,397,101,384,478,591,248,268
246,372,112,425,513,604,256,244
260,367,117,493,531,558,233,224
254,394,114,492,559,592,198,199
329,502,138,520,647,665,220,251
332,491,147,551,674,689,213,261
314,479,139,534,622,700,233,255
373,471,145,454,677,696,247,292
384,469,142,446,722,694,246,291
307,322,112,413,663,652,211,232
341,311,146,417,676,596,265,313
377,318,150,389,672,560,245,336
289,331,144,428,695,592,220,284
307,344,171,492,611,561,238,291
322,339,180,464,572,559,249,304
354,453,148,469,607,598,191,227
378,452,139,538,593,606,195,227
381,454,132,509,513,606,200,226
431,472,100,524,694,640,225,276
448,470,78,536,708,691,217,304
382,367,87,553,729,733,229,289
471,442,196,631,773,781,289,392
483,449,213,664,762,797,291,406
424,396,218,632,701,813,282,362
450,457,226,672,685,784,318,370
454,443,220,615,632,756,307,370
368,439,192,652,708,717,303,309
411,467,192,651,704,713,313,318
415,481,186,658,677,710,311,322
366,484,184,705,703,771,297,307
377,495,187,717,664,782,299,305
316,443,131,572,596,807,261,251
278,449,119,548,618,826,247,241
275,436,112,499,539,841,218,236
326,383,125,374,588,803,227,287
421,421,140,373,572,795,293,370
428,403,141,340,653,800,272,361
453,355,159,456,654,788,308,429
449,383,172,491,640,760,321,431
409,381,156,452,585,762,299,376
366,406,147,473,616,787,260,347
362,419,150,481,429,791,255,348
293,421,122,444,516,799,208,242
320,487,136,495,589,873,222,277
323,483,136,496,660,890,202,281
250,460,139,473,725,891,188,244
235,468,141,474,757,904,200,381
250,484,137,381,699,891,272,481
232,380,109,246,680,833,262,497
221,391,115,253,642,805,267,498
296,407,125,260,569,770,285,525
303,375,116,224,548,747,281,437
296,358,112,242,545,766,229,324
292,387,117,258,505,756,219,282
288,364,109,267,442,781,212,317
209,395,98,266,486,820,190,289
221,405,101,257,473,829,188,291
229,438,97,250,448,831,188,291
206,454,90,252,511,871,180,293
206,476,91,231,528,856,185,255
211,411,70,203,467,840,176,209
181,429,62,209,482,820,201,189
188,419,66,204,546,797,181,185
192,426,69,236,483,755,191,212
236,420,73,256,517,751,208,243
230,425,75,245,511,735,202,277
259,403,102,281,522,727,197,283
340,396,104,279,479,741,206,299
339,378,100,234,480,752,205,262
336,419,105,389,547,749,225,270
352,423,104,407,580,759,225,238
348,463,128,528,660,784,247,238
357,537,164,582,654,777,294,327
380,533,173,606,721,755,302,336
367,494,176,579,654,750,286,330
384,498,192,605,631,749,312,362
383,469,165,494,548,726,292,370
347,383,147,447,591,716,256,380
344,347,162,539,583,742,253,385
395,410,167,524,584,785,266,408
368,404,156,508,589,788,235,383
383,469,173,532,582,825,267,387
344,456,156,528,589,833,257,288
344,487,149,439,547,817,266,355
306,451,151,429,562,773,256,330
291,437,152,442,555,741,251,321
325,407,142,407,554,713,266,385
322,418,145,387,531,704,259,388
312,408,131,350,569,677,246,336
369,443,130,266,579,679,260,375
376,471,123,212,598,693,259,376
378,447,117,218,592,708,211,322
433,450,137,304,573,723,221,353
423,469,138,318,520,753,228,327
380,460,126,318,478,780,202,276
376,431,125,323,462,799,209,280
342,475,121,319,501,773,195,252
264,449,95,259,603,765,186,209
270,465,114,261,638,773,194,231
234,449,108,273,629,756,204,199
256,464,106,246,664,743,201,214
220,436,106,264,644,776,218,207
220,462,111,278,556,773,234,198
226,446,82,264,509,763,208,178
271,471,85,257,529,771,197,204
262,479,97,262,471,762,193,177
318,490,98,243,456,731,215,281
344,494,98,200,449,727,199,336
340,480,100,259,536,698,206,350
384,478,112,329,541,666,243,414
392,459,102,326,539,674,238,430
346,421,113,355,534,641,209,371
382,418,134,363,527,645,230,359
383,421,134,317,453,666,224,349
297,388,154,366,458,688,204,249
325,434,166,382,462,703,249,262
342,440,158,353,502,752,248,266
318,468,143,363,515,777,241,230
321,480,140,356,512,785,246,231
324,506,133,312,497,791,247,242
341,486,127,302,501,771,223,263
325,482,130,308,532,734,271,261
347,450,137,329,500,695,283,297
360,442,145,342,492,666,284,314
367,391,119,281,511,627,281,310
358,402,126,309,519,613,281,269
403,389,137,510,613,607,298,323
381,405,170,555,630,620,282,309
390,392,179,594,622,626,280,302
401,413,186,652,702,636,298,348
365,374,213,717,731,661,289,372
328,404,237,718,724,666,252,338
282,394,214,781,808,677,266,308
249,411,210,766,809,681,289,331
225,388,203,712,751,674,255,285
267,448,177,669,793,693,284,268
263,429,129,537,711,689,265,251
278,444,143,416,616,681,285,300
273,436,131,394,617,689,268,259
270,438,139,398,581,690,266,251
299,394,132,331,455,650,287,257
298,389,130,356,387,663,273,256
317,418,115,298,383,645,250,391
334,417,123,303,471,622,248,395
349,430,121,365,478,625,278,413
327,411,119,364,483,605,256,416
333,411,118,328,585,599,263,426
343,352,146,395,589,619,255,292
344,382,158,406,503,613,271,299
324,373,153,358,552,592,241,267
313,437,168,389,557,614,237,276
340,458,176,397,468,633,242,285
307,456,145,337,474,607,225,253
317,471,153,358,485,644,242,307
315,471,158,354,426,664,242,309
295,428,135,344,510,662,235,288
290,441,134,342,527,657,251,293
285,439,150,386,539,647,265,292
284,408,139,417,520,610,245,242
283,402,132,412,504,604,240,244
285,401,129,392,421,587,249,253
271,365,126,390,440,571,251,246
269,378,103,331,495,605,241,250
246,362,113,292,521,607,230,252
253,364,120,312,534,609,232,257
232,353,123,325,538,640,218,240
222,350,126,323,497,639,186,216
243,323,141,384,410,623,221,230
242,343,122,355,505,659,219,207
229,344,114,336,523,660,220,194
241,354,119,333,507,644,217,182
215,388,110,329,513,662,229,177
175,394,95,255,504,651,190,141
180,382,89,220,421,615,186,141
197,410,101,237,454,632,234,175
175,394,89,209,498,621,235,195
196,363,91,254,511,635,230,235
204,382,87,249,496,670,230,246
192,358,80,242,470,676,226,244
179,329,68,225,476,667,180,229
193,354,76,284,512,700,176,230
178,355,72,254,504,663,185,203
175,323,86,273,525,630,199,220
175,350,89,276,523,645,209,218
221,357,100,297,496,644,211,251
282,351,97,248,469,616,193,258
282,355,98,246,499,641,167,246
435,488,107,306,550,665,198,294
438,489,109,318,559,661,187,299
423,484,116,356,544,645,183,277
445,490,146,406,504,643,280,329
452,478,146,397,485,626,282,335
336,394,137,351,469,640,270,309
346,387,140,341,465,641,269,308
338,388,123,283,493,656,275,302
357,386,92,205,503,663,240,340
353,389,87,217,477,665,238,332
354,384,82,240,450,640,224,312
363,390,76,266,456,623,224,323
387,404,78,269,436,631,243,352
334,435,106,402,500,676,221,290
372,430,117,494,551,675,227,317
370,459,117,496,645,728,337,359
346,476,126,528,695,766,349,347
338,463,140,621,712,757,334,318
297,451,156,752,804,704,323,293
291,466,154,719,815,669,322,279
276,410,155,761,755,589,209,239
285,369,149,768,714,514,200,262
307,368,138,717,692,456,198,291
317,328,92,508,533,415,183,266
279,316,89,482,502,461,188,274
267,299,92,383,459,475,221,264
268,307,84,334,438,485,220,238
225,340,85,327,412,508,242,209
224,343,86,297,425,528,264,247
267,356,81,284,403,500,263,232
285,361,92,385,449,468,236,241
289,351,112,429,466,484,232,259
292,333,117,421,489,504,205,260
286,366,114,424,494,505,177,234
247,353,117,455,494,499,178,239
326,351,107,378,502,507,188,274
336,372,90,313,535,500,191,280
346,358,94,318,542,512,212,290
355,317,100,337,525,550,201,287
372,358,112,326,519,592,205,293
353,397,122,327,485,621,277,324
367,376,131,377,512,653,277,316
360,431,150,523,623,643,292,314
351,445,165,712,719,641,325,308
372,481,201,855,840,635,371,324
376,450,217,937,893,619,327,293
347,454,269,1142,982,574,355,287
363,414,269,1139,1017,550,355,319
371,445,284,1171,1058,533,335,329
357,365,259,1122,1009,536,299,348
307,391,243,1128,980,528,300,321
314,413,191,987,862,555,297,336
305,417,176,963,806,611,273,304
315,353,150,922,772,595,288,335
289,375,156,913,730,571,269,298
275,348,160,892,771,609,256,288
315,302,154,865,826,597,240,298
304,266,160,914,846,548,244,301
301,332,138,779,773,592,239,282
319,326,134,791,774,601,238,286
317,340,133,753,745,589,235,285
288,393,125,680,705,630,212,263
319,408,113,595,604,658,211,270
301,373,120,619,635,701,194,264
327,384,115,541,653,736,206,283
332,375,105,517,639,719,210,304
333,322,112,619,693,694,231,305
318,332,110,570,715,702,223,291
306,316,105,542,655,617,221,266
255,281,102,541,655,561,203,231
246,281,98,540,664,584,193,191
284,343,120,471,637,568,283,200
273,330,126,485,603,540,290,215
314,350,133,519,589,560,299,233
356,407,138,497,548,589,331,283
398,394,143,487,515,604,338,304
365,375,117,426,545,654,247,290
352,380,125,471,527,714,237,275
432,444,128,465,561,774,261,334
450,413,120,452,599,815,224,302
436,469,130,509,581,808,209,305
476,475,134,526,513,808,251,352
492,479,122,468,596,812,251,364
426,421,132,538,613,769,260,323
374,403,134,579,572,728,263,307
342,411,135,550,688,769,277,300
271,385,139,597,683,763,235,258
253,369,138,611,636,732,248,233
290,431,131,515,611,750,259,270
305,442,128,470,641,788,263,295
318,419,115,432,530,772,275,298
325,432,110,324,514,773,288,286
334,435,108,300,470,782,289,306
302,353,96,325,490,764,232,270
292,367,96,311,526,743,252,279
313,340,97,313,583,747,236,301
328,374,99,398,641,749,233,299
330,383,106,421,661,779,234,286
312,411,98,398,724,849,227,278
348,414,105,443,722,880,209,302
331,416,101,439,682,916,190,277
354,403,103,409,680,961,200,278
333,409,101,414,693,956,180,279
328,400,109,439,611,923,199,266
274,377,107,433,571,899,201,205
252,380,108,407,542,829,214,194
179,347,97,362,474,774,201,196
185,352,100,340,493,785,194,186
160,333,97,306,511,766,178,198
202,363,97,240,513,758,177,191
211,354,92,241,598,804,159,202
221,386,91,252,599,818,176,221
234,365,95,233,578,812,203,215
239,387,85,248,569,873,217,203
205,377,76,278,585,895,223,214
197,382,79,310,610,872,235,200
183,382,82,338,681,847,217,173
176,440,73,320,669,814,244,223
242,419,82,314,664,746,274,262
248,412,80,299,631,703,259,256
272,430,87,308,528,685,256,276
293,406,92,288,426,711,288,295
295,371,86,287,458,728,283,274
241,389,92,322,465,740,255,259
232,397,91,320,466,763,257,255
201,387,88,280,471,801,257,246
179,396,83,253,500,792,252,223
198,376,82,232,499,789,221,220
220,394,71,178,485,779,209,247
248,429,77,239,504,776,239,262
280,449,85,336,560,758,240,278
306,451,109,476,540,752,223,283
288,477,117,545,574,755,222,286
298,476,124,592,586,758,260,255
307,435,129,569,609,748,228,251
298,408,126,538,635,764,231,244
298,394,109,451,696,777,227,239
339,388,106,402,687,796,229,255
315,375,96,355,718,818,185,243
301,387,90,376,709,813,185,249
298,398,92,435,667,803,200,227
275,405,82,439,580,790,195,224
221,404,82,416,525,745,196,190
261,411,90,432,460,699,210,215
260,412,93,450,396,693,235,201
256,408,82,376,402,671,238,225
268,446,95,335,417,675,229,239
287,459,89,338,423,690,227,264
255,458,85,288,471,714,217,252
238,470,79,279,477,730,191,257
245,460,79,286,495,765,162,237
252,430,66,324,511,774,177,229
240,404,70,320,533,782,186,196
266,426,63,323,512,784,232,226
270,402,68,288,548,776,239,217
277,448,99,273,570,753,256,220
262,438,98,232,621,738,256,205
252,430,97,251,610,728,253,212
237,441,107,295,597,721,208,202
289,470,106,305,576,731,203,198
321,455,80,306,547,740,185,237
321,462,81,300,457,759,214,264
326,484,83,291,438,751,216,262
309,479,81,318,452,746,218,232
303,459,96,310,453,745,256,248
251,447,94,302,407,742,255,196
282,457,106,328,415,729,248,174
289,438,109,322,449,723,254,186
305,399,112,272,476,714,258,209
327,418,107,299,458,702,220,244
340,405,117,303,452,707,237,261
304,397,106,293,481,710,221,256
287,417,102,287,510,737,197,243
274,436,103,337,551,757,192,226
216,432,93,303,576,783,197,169
185,462,84,294,568,797,186,181
195,468,86,330,555,828,179,187
212,468,83,334,616,807,216,188
252,446,71,256,657,806,213,201
230,452,77,267,701,790,212,213
230,439,70,265,766,755,190,182
362,493,143,362,804,730,337,350
381,493,148,363,723,742,333,379
354,507,148,367,671,717,341,379
376,493,164,404,636,694,391,426
416,479,183,445,571,682,416,458
319,424,134,330,563,646,314,353
317,483,135,330,597,637,298,329
324,486,136,323,546,644,289,331
314,479,110,260,497,665,231,257
252,488,79,192,493,696,224,197
230,477,80,217,416,717,214,195
189,390,74,232,367,715,226,195
225,383,77,243,383,744,231,230
207,387,79,246,403,724,208,232
220,388,76,259,418,699,196,236
220,401,70,230,456,698,200,217
227,435,84,200,469,683,190,221
180,437,84,189,444,624,199,162
201,433,91,233,490,630,248,262
229,399,92,217,481,630,230,268
230,375,90,202,498,586,220,266
382,384,73,251,532,586,294,369
395,366,66,265,550,593,285,369
375,352,54,227,521,583,247,300
448,369,107,241,508,573,292,370
455,373,117,253,452,596,310,381
340,321,120,223,409,577,245,280
356,352,126,206,498,589,252,328
359,355,126,203,484,578,256,331
280,373,93,190,516,580,224,333
291,392,89,197,529,606,238,332
283,407,86,182,507,628,233,325
257,391,80,194,439,619,233,299
275,421,84,220,490,639,240,315
237,406,79,254,478,637,217,229
252,394,77,243,478,615,193,238
278,396,85,244,484,639,187,263
269,420,86,244,446,655,198,240
277,401,84,220,393,650,211,248
287,402,78,164,379,671,211,259
256,402,75,173,375,680,208,241
270,388,60,159,370,646,223,236
280,375,58,143,370,649,205,240
252,384,54,135,389,640,183,217
252,399,71,212,396,648,186,193
262,412,75,218,397,663,204,210
228,413,76,237,405,679,196,196
210,400,73,251,437,694,224,221
213,400,84,269,426,762,238,223
204,399,72,213,406,774,249,220
197,381,69,250,444,753,256,211
183,386,89,277,548,775,257,200
189,387,99,311,550,767,236,165
196,377,91,322,554,713,247,167
171,368,97,344,553,696,241,179
205,353,97,330,537,705,228,185
208,336,90,367,451,667,226,187
215,353,83,353,440,654,243,210
210,344,86,348,483,657,223,216
216,331,81,334,501,629,245,225
180,340,77,314,542,617,232,229
211,340,67,234,541,618,251,255
239,323,82,201,533,612,236,254
235,322,82,220,490,589,230,240
258,341,88,252,467,605,217,241
259,334,94,265,400,587,226,243
253,343,93,292,407,611,199,230
219,346,83,288,401,614,206,253
230,353,79,255,421,651,199,265
230,337,80,225,425,655,193,262
252,346,80,211,473,678,186,270
238,340,89,284,562,652,216,262
237,326,85,334,623,643,216,238
239,332,98,441,621,616,219,243
211,337,112,547,689,578,241,242
187,333,116,597,658,575,240,222
186,331,121,633,583,577,232,221
204,335,123,615,524,574,238,210
209,390,112,565,562,629,253,218
227,392,94,502,536,662,231,241
223,419,85,450,603,636,237,234
242,449,83,416,643,627,224,233
249,450,78,424,648,601,209,226
238,389,83,407,620,554,232,258
234,376,87,392,617,538,236,217
245,331,88,408,564,533,223,229
252,317,76,352,534,570,234,229
233,312,84,376,585,597,234,230
247,391,92,391,557,599,187,169
235,394,86,373,509,611,198,168
227,410,89,370,547,630,251,173
218,403,95,411,516,594,257,175
230,407,94,424,487,595,259,204
217,339,86,404,496,578,267,208
234,400,97,450,563,549,258,238
219,408,97,465,547,531,212,238
205,427,90,400,551,528,187,233
191,418,83,354,512,499,196,231
186,418,79,345,532,487,195,234
171,348,67,293,509,506,184,206
212,366,67,260,459,527,205,226
218,325,72,299,468,536,218,227
223,328,75,280,455,551,204,208
227,340,79,301,477,596,207,215
236,369,77,281,504,622,229,251
229,351,74,298,500,637,210,229
219,343,73,269,484,638,209,236
226,364,78,293,495,648,214,252
235,391,80,268,433,623,201,253
223,375,83,276,332,589,187,233
229,358,85,245,434,561,208,248
247,403,79,272,486,544,202,247
232,402,72,252,485,581,208,233
222,378,65,252,493,606,236,207
220,369,61,229,498,611,247,215
200,358,64,220,438,632,226,210
201,347,71,166,384,657,217,202
220,345,81,177,387,619,238,206
211,336,85,254,407,592,242,212
214,341,85,262,416,595,231,189
206,381,79,264,430,562,230,155
189,374,70,266,426,542,231,177
184,383,59,255,411,572,219,194
184,369,50,184,381,591,197,208
180,372,57,157,409,613,184,208
189,385,58,142,464,697,198,215
180,380,65,131,456,712,213,201
187,377,66,155,451,711,201,256
201,381,68,194,499,725,217,254
194,392,85,250,476,709,225,254
184,355,91,279,486,637,211,272
186,359,92,300,521,627,218,272
175,328,94,301,535,601,230,212
206,321,106,280,511,581,215,215
227,296,93,260,545,567,210,242
234,325,93,244,481,577,214,230
230,310,95,225,438,601,206,240
219,319,90,206,480,622,230,246
172,323,77,208,511,667,221,230
171,350,73,197,447,736,227,204
167,334,63,177,441,796,221,185
177,398,59,169,468,809,237,178
170,406,58,172,414,819,210,155
172,472,59,169,353,836,225,155
154,844,56,148,368,825,234,165
168,844,58,186,400,795,245,183
210,833,65,297,481,779,230,186
266,975,74,358,635,795,257,231
282,1003,80,444,738,793,249,229
309,723,107,576,730,763,239,227
304,721,113,616,706,784,238,219
273,698,111,582,644,830,221,214
252,562,111,563,479,830,172,192
289,608,111,504,361,825,203,201
289,756,87,378,389,823,227,201
309,846,85,375,396,812,232,211
305,913,88,377,401,796,257,209
295,930,90,358,424,779,277,191
290,860,103,478,452,746,252,193
261,766,105,475,503,808,223,183
235,682,99,415,509,789,222,188
268,624,93,396,515,795,262,195
286,536,97,402,535,853,296,204
247,506,78,240,476,848,312,209
265,488,80,202,419,824,319,259
279,454,85,210,408,852,323,256
297,388,84,244,402,827,289,259
299,383,73,241,410,771,246,254
353,366,82,272,468,785,255,255
368,283,97,370,455,740,277,244
397,319,91,392,484,702,292,242
382,350,94,377,481,693,300,248
366,310,91,373,439,675,307,255
317,333,81,365,447,699,292,263
289,403,67,313,517,768,286,228
238,441,81,399,555,856,255,222
207,471,86,437,585,911,229,200
232,521,93,454,620,934,204,204
254,537,98,500,610,902,193,193
251,509,91,486,569,875,191,215
246,463,82,396,548,807,224,224
290,438,74,347,510,739,257,258
271,388,70,314,484,711,266,246
252,350,66,196,418,696,269,237
282,324,69,163,398,655,259,221
306,386,73,138,352,654,254,208
315,426,70,139,374,676,226,216
342,438,76,161,369,695,237,227
342,442,86,172,427,725,244,223
360,587,109,266,539,759,252,246
352,640,104,303,552,737,243,270
338,795,104,306,527,726,235,246
318,845,99,301,520,692,220,229
348,850,99,333,493,657,263,251
326,766,85,320,374,614,263,253
355,688,97,308,333,597,252,235
367,441,109,304,376,573,252,243
396,315,111,305,466,625,278,262
379,360,110,275,483,635,248,273
436,370,103,211,534,640,258,292
414,398,93,234,569,639,293,316
407,472,87,293,567,679,308,323
438,515,85,294,498,687,294,339
431,489,82,282,497,706,286,327
370,532,78,275,518,799,265,308
393,764,84,232,775,1121,234,307
407,776,81,196,791,1187,215,286
362,778,82,188,839,1234,208,270
402,772,78,187,833,1232,207,305
405,780,83,262,886,1227,200,288
433,532,83,264,646,977,219,283
455,518,81,249,629,878,238,292
449,495,79,251,571,778,238,292
461,600,77,252,592,932,241,299
473,623,79,201,515,963,252,313
421,667,72,205,549,968,230,296
367,683,69,189,535,982,204,325
434,717,75,208,624,1073,205,320
414,721,84,209,619,1036,189,286
444,695,92,213,563,959,249,312
450,684,102,254,565,936,249,311
473,634,101,283,638,969,278,314
431,622,98,268,590,913,294,333
404,552,94,285,623,820,324,336
332,539,92,297,633,831,276,351
342,545,80,263,647,850,285,349
340,596,80,259,653,921,269,336
320,596,83,266,657,930,276,317
341,561,98,274,631,912,263,328
366,538,88,239,598,922,269,296
369,571,92,249,614,958,335,343
369,538,103,252,590,883,338,331
360,520,105,246,556,852,337,346
382,545,89,249,558,845,333,327
394,567,98,262,663,1032,343,335
382,525,103,242,653,1069,296,296
401,541,103,206,588,1039,300,301
391,533,98,252,592,1033,267,269
414,536,112,229,604,1132,308,274
401,532,111,241,517,1036,316,237
402,574,116,300,530,953,295,253
367,549,109,310,570,922,312,231
385,591,113,273,588,949,332,269
303,605,100,278,650,908,290,255
318,616,102,283,644,817,262,274
372,623,89,224,635,925,252,277
374,622,84,211,613,1003,226,301
356,569,79,210,589,1027,207,278
399,582,78,192,504,969,181,284
395,561,65,177,540,981,189,268
332,526,62,194,563,988,280,264
314,574,73,253,645,960,284,256
314,571,69,255,681,936,286,263
289,503,66,283,706,976,319,276
281,492,65,270,710,961,314,291
317,488,81,279,688,879,258,305
320,478,77,245,652,933,258,289
333,573,91,247,644,938,282,280
315,665,94,230,698,936,260,284
308,722,95,263,745,931,268,338
327,697,86,255,761,948,257,314
372,677,87,252,737,874,256,338
376,621,75,257,722,816,236,338
405,551,81,286,632,738,232,331
393,436,86,278,537,687,310,265
358,421,82,262,443,577,316,256
321,380,77,251,444,553,313,278
369,355,82,277,447,517,325,348
335,327,73,256,425,503,336,330
347,325,67,263,427,536,281,325
336,332,71,304,470,540,277,320
353,329,78,301,436,516,289,298
287,305,71,265,425,535,273,202
291,354,72,241,444,605,283,221
315,380,67,189,445,634,261,244
331,421,62,140,487,681,259,246
345,428,56,214,530,722,240,280
347,440,64,236,527,729,254,284
355,414,71,241,539,716,222,307
331,385,71,280,604,691,217,298
341,406,79,339,562,659,255,299
302,401,79,313,552,644,276,251
280,376,74,308,522,623,258,244
268,353,69,312,490,582,264,198
240,379,73,278,423,571,259,168
188,283,71,185,396,544,222,162
206,283,71,166,340,530,194,207
242,327,72,149,360,529,207,250
232,328,75,127,354,527,211,253
266,322,76,136,290,515,217,257
275,319,69,157,288,516,223,259
258,306,66,156,306,520,214,214
270,271,63,167,299,543,191,169
331,289,59,187,336,558,184,173
310,297,65,188,355,591,233,186
300,315,68,177,374,612,236,176
289,313,68,167,379,592,233,179
268,326,82,159,372,589,230,186
202,316,94,175,353,587,233,220
207,297,93,186,360,544,196,210
214,294,91,185,337,533,177,222
217,362,98,191,310,528,185,221
200,386,89,189,305,485,215,226
205,389,78,163,308,464,208,193
252,393,77,146,300,477,194,202
275,391,84,154,319,482,187,203
286,382,91,238,412,518,190,206
298,358,94,293,421,532,197,202
304,366,94,411,546,552,219,218
277,354,94,467,597,571,219,219
265,369,98,490,609,565,239,226
259,318,94,476,578,609,239,212
273,309,88,447,616,636,236,213
249,285,90,359,516,604,216,188
245,321,95,332,514,587,207,187
233,301,91,306,502,575,242,214
258,313,93,286,485,474,257,242
239,302,93,288,439,414,239,228
297,328,115,291,445,421,267,293
315,292,112,242,375,389,267,302
325,309,114,246,390,413,240,286
320,380,114,267,417,516,244,280
321,419,122,270,439,649,262,290
273,477,100,252,472,705,238,230
235,484,98,267,493,723,254,205
242,526,104,250,495,733,296,203
237,483,102,211,470,699,275,195
217,458,92,202,462,584,268,169
253,417,100,203,430,529,271,185
258,423,98,174,401,521,277,196
253,362,84,172,367,522,251,193
235,374,87,346,459,537,272,193
250,384,89,375,500,584,263,201
215,398,85,405,514,609,276,199
234,394,90,440,544,632,262,189
228,401,96,476,605,620,225,170
232,366,95,420,555,589,233,178
240,367,93,402,512,577,232,195
248,333,90,367,481,549,221,184
278,361,94,340,426,514,218,223
279,369,87,312,394,520,224,223
324,445,91,277,372,526,211,264
359,511,110,269,374,528,213,277
352,504,109,305,375,558,227,271
332,475,102,286,405,580,254,254
326,456,101,270,337,574,249,255
273,398,90,241,349,603,233,195
200,309,71,235,345,609,246,142
190,308,64,174,361,591,238,139
173,301,65,171,354,607,216,140
163,314,65,139,361,599,220,137
170,331,67,122,347,564,238,128
170,313,60,123,350,537,219,129
184,297,65,123,315,504,217,146
172,305,60,155,345,453,219,146
184,284,68,187,349,445,223,150
201,291,69,187,328,435,215,166
233,277,72,225,386,469,217,191
234,332,74,271,383,517,209,188
226,353,77,275,380,548,207,171
244,422,76,264,379,558,231,195
235,418,75,265,382,575,218,191
238,445,84,273,347,538,224,176
267,427,102,241,407,529,239,200
276,419,102,231,388,526,236,200
343,473,109,232,396,549,221,215
357,469,114,240,418,583,222,226
351,448,106,192,392,633,225,232
338,431,88,184,331,660,254,241
340,433,95,183,317,701,266,258
395,385,106,193,364,745,266,318
391,370,101,199,346,728,261,322
387,400,117,210,395,698,270,320
411,411,124,231,415,672,228,310
414,389,119,246,434,628,221,316
274,313,106,228,383,549,226,227
279,329,105,212,408,560,243,228
292,298,85,198,370,556,220,228
261,346,75,171,366,545,215,212
261,396,72,152,388,535,206,184
264,402,67,189,389,589,211,198
251,436,77,197,351,595,199,188
251,532,82,215,383,705,263,201
251,486,77,231,388,751,282,242
246,462,78,235,355,783,280,244
270,491,78,237,409,808,257,248
287,446,78,243,414,832,253,257
288,330,78,263,397,763,220,248
279,359,80,270,403,774,246,218
299,413,84,266,413,800,272,229
294,368,77,290,374,768,314,250
285,360,66,290,393,764,347,260
267,364,64,268,377,780,329,275
308,407,75,263,363,761,283,268
308,345,76,253,341,752,269,251
320,373,79,202,346,769,287,241
310,384,79,204,341,753,252,210
310,387,90,206,328,759,270,196
256,319,80,185,337,759,294,199
289,373,84,204,382,736,300,250
297,342,88,219,387,723,245,224
334,376,113,249,428,750,259,242
393,394,105,262,440,752,247,261
423,391,105,260,472,765,256,274
450,402,118,307,469,810,325,318
459,406,115,293,497,859,330,334
451,368,107,271,473,859,318,352
538,429,132,288,493,899,346,411
538,425,135,297,454,910,322,400
488,383,120,238,433,889,234,346
474,400,121,241,432,847,215,333
453,413,109,235,422,821,242,299
301,298,76,194,386,774,216,204
263,330,76,208,386,769,233,202
262,323,80,217,432,751,243,182
281,311,76,231,407,792,253,197
273,326,78,215,390,799,244,207
251,329,77,219,403,808,246,180
245,298,75,216,400,801,242,186
245,335,73,238,399,846,261,197
211,331,71,222,406,822,256,184
232,348,78,243,444,837,264,185
289,354,80,237,431,815,244,199
308,354,81,225,451,800,229,202
359,388,100,198,428,775,278,283
352,373,99,193,403,788,270,275
398,344,94,199,381,775,254,287
453,391,126,233,374,769,255,293
455,402,126,229,380,786,253,287
421,335,110,210,349,783,154,209
420,341,112,241,354,747,157,209
381,383,111,226,343,760,163,198
251,354,75,186,351,782,157,169
219,356,74,187,343,755,193,176
264,350,80,232,424,723,210,247
278,350,79,235,411,700,212,272
253,291,76,234,412,654,210,261
276,279,77,254,443,620,233,269
272,270,77,294,438,608,222,262
272,324,87,291,397,622,277,261
267,324,84,278,438,654,290,235
260,318,86,305,444,685,275,229
299,362,91,311,475,716,410,335
330,367,98,300,505,770,410,342
279,302,89,282,487,797,368,293
341,355,103,290,522,806,363,340
347,363,104,304,546,782,384,343
304,316,97,307,497,759,254,242
294,339,92,391,504,727,276,253
298,346,86,422,523,688,275,248
237,313,69,414,475,664,280,183
238,300,62,383,447,675,251,183
231,325,58,376,505,703,225,166
205,288,56,323,478,717,186,132
202,298,56,297,547,754,239,132
170,310,56,291,562,784,248,165
169,314,61,324,578,804,258,166
195,291,63,331,531,803,238,186
234,323,63,267,520,779,258,205
240,316,65,237,425,749,241,209
237,321,71,285,415,727,235,175
230,330,66,252,450,705,242,167
215,336,71,240,481,690,253,156
172,313,67,264,484,701,242,133
178,358,75,292,484,726,215,140
182,340,67,246,479,750,194,146
190,354,68,236,430,766,195,151
195,352,73,262,395,784,208,178
210,400,75,242,423,790,218,196
208,362,74,254,443,780,232,203
220,412,90,289,506,770,275,211
218,414,89,306,511,760,266,219
200,443,85,273,519,754,267,198
197,403,83,268,492,741,252,183
199,425,79,229,490,732,244,171
199,412,69,190,417,720,207,165
216,393,68,168,409,729,197,157
285,369,77,240,450,756,260,179
306,426,79,245,474,784,282,231
304,414,77,247,474,791,279,229
347,415,82,245,493,796,293,255
349,424,82,237,503,807,290,261
297,428,73,168,489,778,224,245
274,357,70,162,463,751,185,211
273,358,75,165,447,753,191,215
207,314,65,164,424,736,163,175
205,307,65,165,416,701,189,174
200,308,61,152,360,698,198,164
193,330,56,178,377,679,235,148
206,345,59,193,365,650,227,163
205,331,58,188,363,641,227,167
197,330,61,207,377,639,240,157
220,320,65,238,405,620,235,159
227,323,67,224,412,640,207,155
202,313,57,197,454,660,203,125
211,315,54,209,450,651,221,147
238,363,54,186,458,677,246,174
230,362,60,158,453,672,235,182
228,367,73,199,471,659,237,208
231,339,75,214,428,647,251,217
239,346,76,217,441,658,289,238
211,287,81,232,434,637,276,227
205,302,79,258,461,628,294,224
199,299,70,219,418,611,294,207
210,320,65,256,438,580,302,220
183,326,71,288,494,589,256,177
198,330,66,301,515,578,227,179
205,335,79,415,600,586,226,208
207,333,81,466,619,583,245,211
241,340,83,448,602,590,225,211
249,352,80,422,540,543,217,210
266,378,89,483,546,535,267,210
303,378,79,391,433,528,261,190
331,376,75,340,441,555,268,230
304,374,75,342,504,578,282,216
306,401,77,351,538,625,311,217
291,383,69,257,503,662,262,209
258,377,68,234,486,674,263,234
226,391,74,235,497,685,240,188
252,403,80,250,482,673,238,195
242,376,77,253,464,678,209,204
227,375,73,283,479,660,227,209
209,342,76,299,514,674,229,166
215,341,73,323,489,658,225,183
193,305,66,304,440,677,206,170
208,295,68,313,431,659,191,172
207,281,69,288,452,657,182,163
226,296,61,279,434,648,158,182
256,316,73,257,421,663,156,183
263,328,78,307,463,661,157,201
250,318,96,311,458,673,183,187
275,342,94,318,440,691,249,209
288,345,94,303,415,692,251,198
265,318,82,284,419,700,268,184
270,328,90,271,398,702,274,181
280,337,75,323,455,708,275,204
252,332,79,341,434,713,205,188
240,356,84,390,450,722,210,202
266,363,92,421,545,709,195,199
260,350,81,401,554,714,242,246
249,368,83,371,520,711,236,238
249,367,79,341,524,674,238,239
238,359,79,352,520,662,239,225
206,345,79,331,411,634,247,228
189,347,80,330,383,606,225,190
187,312,73,329,353,584,218,182
187,291,78,363,397,589,231,182
214,305,76,326,449,578,236,204
205,302,68,330,447,588,225,200
217,300,71,349,446,567,197,181
230,312,76,324,478,577,218,184
237,313,71,290,435,602,231,179
228,265,65,276,372,582,218,163
279,268,64,253,397,587,218,213
270,288,73,250,445,623,228,211
295,327,76,283,422,606,245,219
292,326,79,282,428,610,218,216
318,354,91,328,482,641,246,226
281,359,91,335,476,640,246,181
287,333,86,318,435,625,243,170
273,303,85,306,460,635,234,166
286,299,89,319,441,594,235,178
241,297,78,298,433,608,203,153
227,272,76,295,429,604,215,148
226,279,78,311,445,603,211,166
194,343,74,288,473,703,177,175
192,356,69,261,511,729,187,164
187,343,68,210,483,683,195,170
193,351,68,212,501,680,182,215
182,344,59,194,479,664,209,203
193,254,57,220,417,509,238,202
187,240,65,237,363,441,241,220
194,220,68,247,328,425,238,219
193,211,70,274,288,445,262,170
181,230,84,391,353,426,242,173
190,255,82,409,414,459,251,176
185,275,78,453,484,527,258,159
188,284,89,541,523,528,257,188
202,294,92,552,562,504,234,200
218,292,83,490,539,541,231,201
212,297,98,511,543,546,197,183
212,311,103,503,487,498,195,191
203,305,96,422,502,521,192,157
181,328,100,414,474,514,231,139
182,313,97,385,450,491,234,138
162,305,83,345,447,490,241,132
186,319,85,355,461,485,227,102
188,323,80,353,426,496,240,102
217,327,71,364,451,522,204,143
214,337,75,399,450,531,208,145
224,324,70,380,412,546,228,161
196,290,57,349,396,581,217,168
190,295,58,353,397,586,205,168
170,290,65,357,383,564,215,147
163,299,83,465,498,560,218,148
190,322,93,525,516,538,222,153
219,311,93,503,530,503,222,167
251,334,99,500,554,509,222,190
264,311,96,498,574,523,215,195
291,307,81,390,503,536,207,223
267,285,80,333,487,564,173,220
263,288,90,429,487,603,212,213
239,255,86,423,454,609,216,193
214,244,94,393,411,611,222,189
223,269,93,380,387,618,234,168
227,261,84,348,365,596,222,154
205,260,93,306,435,557,199,165
212,275,106,309,418,524,204,231
220,291,97,299,427,532,186,229
169,269,99,374,466,544,197,228
169,283,99,387,471,574,208,230
167,294,80,358,381,628,222,239
161,281,68,377,390,679,213,176
153,289,63,399,366,685,212,181
178,285,66,347,409,702,175,187
178,282,69,353,411,729,197,187
204,289,71,345,407,717,170,189
210,292,76,377,413,678,185,234
234,275,83,423,454,686,224,242
212,260,79,458,379,670,239,235
219,279,88,464,386,620,218,235
253,311,109,462,398,605,228,249
262,319,102,403,389,638,217,212
295,311,125,417,376,606,219,225
367,337,134,382,375,650,268,296
367,327,128,352,366,710,265,301
347,282,137,440,431,724,273,321
363,302,145,472,481,771,285,392
335,305,127,412,498,826,275,389
261,343,136,452,498,799,233,349
266,333,137,462,507,789,227,343
262,321,111,367,454,810,280,320
218,300,97,340,412,749,270,228
220,319,91,379,390,745,282,217
219,292,63,344,383,775,278,206
215,295,62,343,378,783,281,208
200,322,57,344,397,799,219,183
226,303,57,356,414,837,229,195
211,291,57,318,407,838,185,181
216,272,53,293,426,851,188,181
214,299,51,283,417,850,186,188
223,279,56,276,392,817,185,173
223,290,57,248,384,817,196,164
220,286,66,258,395,804,212,162
243,293,68,235,386,769,207,143
251,275,75,260,396,752,221,143
285,299,73,280,405,783,235,159
271,323,77,316,436,803,249,159
264,329,78,344,383,843,249,155
235,342,74,348,400,897,241,145
238,354,69,340,461,949,243,132
191,326,71,339,467,952,226,126
182,304,64,298,458,940,189,132
240,337,75,331,485,889,183,150
248,296,73,319,471,847,173,155
249,271,74,307,444,813,217,177
304,289,76,290,446,784,228,220
307,283,80,306,462,769,218,210
271,243,63,203,454,787,234,225
278,265,66,195,441,773,234,230
262,259,63,190,436,747,175,222
224,253,68,187,433,759,211,195
255,251,71,160,376,776,235,219
253,243,65,119,423,787,214,198
235,243,60,159,449,807,227,192
237,244,62,164,449,814,228,190
209,253,62,187,481,807,181,182
177,290,60,195,476,778,155,160
169,297,61,197,464,759,149,156
171,296,61,167,484,752,120,152
204,346,77,194,448,748,212,158
196,369,74,170,417,758,221,152
190,351,75,171,425,776,221,137
208,371,82,176,393,783,251,151
220,379,84,179,329,775,263,163
207,331,69,144,356,772,201,151
216,315,62,146,418,755,189,135
216,316,71,168,421,735,226,150
208,292,64,189,424,732,201,142
204,284,63,192,447,698,195,128
187,301,61,195,475,696,200,141
205,276,61,215,411,700,195,160
194,265,43,195,402,699,151,146
185,257,41,169,395,704,162,138
197,265,43,182,368,740,176,157
193,254,44,194,341,775,164,142
152,269,40,158,378,829,168,113
196,296,47,184,404,870,190,145
213,303,43,184,423,890,172,145
205,319,43,177,460,886,179,149
208,325,46,179,435,863,195,149
218,311,50,181,416,806,215,152
224,306,46,145,396,753,199,131
213,308,51,146,374,728,212,135
194,310,49,130,370,714,264,119
196,305,51,111,390,693,273,144
189,332,52,124,394,703,280,157
131,313,50,126,427,718,298,154
177,330,55,155,446,724,295,173
186,303,54,162,421,746,228,166
223,297,56,191,410,769,253,183
288,318,61,186,416,803,239,212
328,326,64,196,426,804,223,248
308,323,61,211,425,797,229,230
332,315,71,216,481,782,266,243
317,335,72,243,519,770,226,223
289,313,73,250,525,763,218,197
284,324,87,245,517,782,220,167
285,321,86,221,513,791,224,167
261,348,80,243,495,822,194,157
258,367,86,206,480,837,216,155
225,371,85,211,483,827,212,142
203,371,77,230,474,811,225,135
206,384,78,226,524,811,219,146
213,385,84,211,502,791,209,162
203,355,77,199,474,761,195,164
204,354,73,189,462,744,205,178
181,349,68,165,454,742,206,168
228,342,71,174,412,703,229,213
225,317,64,197,414,694,230,207
232,334,68,204,443,736,232,214
267,348,73,248,434,743,241,221
268,355,71,251,446,748,217,221
217,351,65,241,435,797,209,174
258,373,77,273,436,801,231,207
280,370,70,283,433,776,221,201
254,357,68,243,434,772,213,181
246,347,71,262,425,762,220,196
270,349,71,264,418,736,219,213
248,359,54,199,397,730,202,197
212,353,56,216,362,721,207,194
213,349,48,216,381,705,215,195
252,357,47,215,371,691,254,208
234,348,46,222,374,667,235,189
211,315,52,218,404,635,243,161
207,328,52,213,412,629,242,164
218,311,58,218,401,616,247,169
213,334,74,245,442,608,255,153
222,333,79,269,497,613,251,157
208,336,74,266,496,629,244,145
290,366,79,249,501,619,282,204
287,371,77,240,536,617,260,201
260,341,63,182,508,625,216,192
266,379,85,210,439,607,238,217
283,376,92,224,444,619,248,227
215,329,86,211,431,622,210,185
193,330,90,228,427,634,212,178
206,339,99,268,409,628,275,203
178,292,83,223,412,644,256,175
160,290,78,210,387,625,257,172
168,309,78,214,445,622,269,161
185,315,72,222,397,622,272,190
165,300,63,189,432,620,206,161
190,331,55,177,428,610,223,153
196,334,54,231,452,610,226,156
179,353,67,235,396,638,206,162
177,353,65,212,426,626,231,147
192,369,61,201,402,633,230,163
173,358,61,222,442,648,213,161
189,375,70,206,432,667,194,191
193,346,68,224,458,660,219,195
205,346,70,230,445,672,209,205
194,330,69,229,462,672,203,188
192,311,102,318,459,672,222,217
213,308,99,318,442,652,233,244
219,305,93,298,438,634,199,243
198,297,94,304,443,632,195,226
212,316,103,305,421,618,207,242
221,305,72,191,392,606,186,224
172,293,83,231,435,626,184,164
149,299,91,247,409,624,182,167
157,283,92,249,383,606,218,165
153,272,87,263,387,630,222,152
136,276,85,258,382,638,225,141
144,290,72,200,359,622,223,154
209,307,67,185,377,646,240,173
212,317,62,177,360,656,194,180
204,314,53,160,360,634,178,179
204,315,56,171,437,641,194,184
196,295,53,174,441,648,209,178
204,309,47,168,439,645,203,162
226,335,50,161,465,678,212,159
229,336,55,162,459,686,216,149
233,365,59,170,396,680,220,156
237,377,58,154,364,686,188,152
180,341,66,157,355,654,194,131
197,339,73,162,332,624,214,143
197,338,73,161,344,631,237,149
189,316,69,137,346,604,225,142
191,294,72,138,361,596,242,138
233,290,69,142,365,613,229,152
194,270,57,134,367,607,213,131
201,247,54,141,365,598,196,133
207,253,54,149,361,627,208,172
233,248,54,145,352,627,198,172
195,288,58,165,363,614,211,166
200,284,58,170,381,629,199,178
233,285,56,152,394,638,203,194
236,272,58,158,388,640,185,158
215,285,56,180,407,651,190,159
224,258,88,225,385,656,175,161
222,269,93,238,400,691,181,151
187,300,96,256,406,686,168,132
184,298,95,258,415,653,158,133
198,323,105,300,422,646,149,130
181,324,73,267,428,653,163,125
169,308,65,247,398,588,148,125
229,282,98,277,406,600,173,228
246,347,101,273,462,680,181,242
228,349,90,212,473,695,180,243
230,360,92,197,512,695,170,241
235,363,93,216,526,691,194,255
175,364,54,141,485,640,167,168
154,312,47,137,410,542,178,152
189,277,55,146,357,472,192,191
187,234,53,146,279,432,191,194
180,223,51,129,248,427,171,183
190,223,58,145,302,467,173,177
183,232,58,148,333,536,190,174
165,244,50,140,337,541,203,148
193,258,50,133,350,561,216,164
202,302,48,125,360,598,220,160
191,311,40,117,340,592,232,159
210,308,39,105,319,545,236,169
210,307,37,97,314,570,228,167
194,311,40,98,305,551,220,144
199,282,45,96,306,506,218,145
212,301,46,101,306,513,216,153
198,291,47,106,299,495,191,142
193,287,49,108,286,481,178,133
212,297,57,115,364,495,188,153
219,289,66,135,360,519,206,182
225,268,66,125,345,514,210,186
231,265,68,138,339,577,210,191
222,265,74,146,357,599,211,187
199,243,70,137,312,593,204,181
179,259,63,141,315,584,184,163
154,258,65,145,339,585,198,154
139,246,64,142,338,523,188,144
132,236,58,158,386,473,188,139
135,248,52,157,365,478,181,133
134,231,45,136,345,483,207,133
130,221,44,128,334,493,175,144
121,222,42,119,354,527,186,143
119,225,38,83,342,575,176,145
124,241,45,88,359,610,176,172
116,237,46,91,367,621,167,162
122,259,49,100,358,612,220,162
141,262,49,101,343,606,212,162
141,259,48,99,295,573,211,159
189,276,54,142,267,520,310,192
195,281,53,147,281,533,306,195
192,257,55,145,292,540,297,210
225,286,59,143,289,539,312,244
230,287,59,142,304,582,317,246
181,274,53,105,323,650,218,198
178,270,52,93,335,663,207,199
205,281,47,90,336,701,183,220
162,262,42,84,340,740,169,188
158,275,44,89,329,714,182,192
166,251,43,85,321,692,192,195
183,264,50,91,335,705,195,200
151,246,48,88,318,664,174,145
169,232,67,116,326,631,214,165
204,238,74,125,348,665,205,167
210,247,77,127,341,648,193,157
253,290,77,137,340,671,241,192
257,316,78,137,365,718,242,195
249,325,67,126,367,723,217,183
226,319,63,126,358,750,219,184
220,327,56,127,381,797,224,195
158,290,51,115,370,765,196,142
158,280,53,115,372,772,192,141
153,277,48,107,399,813,189,126
176,265,43,94,382,764,198,121
183,241,42,85,385,766,202,120
174,236,39,86,403,798,179,135
166,242,40,96,394,774,197,133
163,239,39,90,375,764,182,132
134,250,36,92,387,822,181,127
118,257,37,89,359,824,179,112
118,270,36,92,334,835,197,128
139,264,32,90,400,869,186,141
147,296,33,100,405,879,189,150
146,295,34,100,425,864,184,153
169,306,37,105,428,843,199,175
174,281,41,109,420,808,186,155
159,273,41,107,409,781,191,144
148,261,40,108,433,784,196,136
149,255,42,115,406,783,184,139
126,266,41,113,420,821,208,118
116,270,42,109,425,857,205,126
126,290,41,115,385,902,211,129
142,280,43,116,339,935,202,126
146,305,45,116,448,970,213,142
138,287,43,137,475,960,176,140
166,308,43,146,510,950,175,147
164,292,44,150,515,923,158,149
164,276,43,152,531,869,178,159
152,247,37,145,448,810,158,133
182,267,37,123,407,811,153,136
167,257,38,117,358,801,146,119
171,257,41,110,346,777,162,114
160,268,39,117,373,803,158,108
166,288,40,120,393,846,165,123
141,281,43,163,452,827,162,130
125,289,48,225,468,852,182,136
121,289,53,251,537,891,176,167
121,309,52,251,531,863,178,166
119,299,53,257,530,843,183,164
116,291,53,243,488,837,198,164
145,274,47,183,471,797,195,168
131,279,41,147,398,769,202,139
125,266,48,189,375,779,198,144
144,265,52,214,453,762,209,158
153,262,50,206,475,761,193,148
146,269,49,212,476,779,183,142
147,274,48,220,469,760,173,147
165,249,51,197,475,768,151,148
156,271,56,220,395,793,148,143
150,290,65,278,396,804,188,161
146,277,73,375,443,785,192,167
155,291,79,412,468,776,198,166
161,304,82,455,487,754,226,167
171,297,94,605,545,721,231,171
194,284,95,610,519,689,227,177
201,325,105,634,535,697,236,190
215,343,112,691,643,729,260,188
216,350,129,850,676,742,252,189
223,356,155,861,842,766,276,189
223,388,163,922,922,801,271,179
245,368,154,913,924,818,287,173
237,350,152,939,894,811,269,174
227,344,135,780,889,806,260,168
214,323,93,661,714,754,225,153
232,317,76,605,659,718,218,160
196,308,81,645,641,661,185,138
185,288,72,553,580,610,184,130
185,282,70,544,522,583,199,137
178,293,67,543,482,604,192,141
132,277,75,517,495,629,204,154
153,306,76,476,483,672,199,165
168,306,82,486,521,711,202,186
175,326,84,514,513,729,190,194
189,332,89,574,634,744,238,196
193,328,85,577,654,748,227,182
205,313,75,512,666,724,233,172
190,332,72,523,650,713,224,167
180,330,73,530,683,707,247,151
176,319,61,451,591,681,208,143
175,334,66,399,522,657,194,143
155,330,73,431,496,658,224,154
164,338,74,370,467,663,232,141
165,330,75,355,466,678,216,137
162,328,82,397,496,688,247,149
161,299,74,440,492,702,259,143
165,313,77,432,486,698,247,149
181,302,69,422,506,686,235,156
204,303,64,393,484,660,235,160
231,314,60,431,500,675,202,160
234,318,60,402,482,636,200,162
231,316,51,377,491,621,205,147
217,307,54,377,492,610,200,140
204,305,64,427,477,589,189,144
197,354,85,496,480,593,217,140
186,353,87,530,518,644,216,127
189,389,93,571,510,665,215,137
207,437,101,657,543,694,226,147
201,458,98,654,533,736,233,153
180,419,84,602,574,722,222,155
199,449,85,569,545,711,236,165
193,415,82,529,562,687,233,168
171,358,78,464,571,643,246,158
161,351,82,530,602,596,232,142
158,383,88,501,513,579,223,142
136,341,88,499,501,534,210,131
146,364,86,516,483,577,249,139
170,367,87,528,483,584,228,161
203,345,83,438,457,595,247,181
200,309,71,456,475,594,246,179
216,312,73,472,477,604,245,196
209,273,71,454,475,565,178,180
191,275,65,406,443,574,193,159
187,277,68,460,434,561,178,143
211,270,75,497,480,558,201,150
211,306,77,573,536,577,214,168
237,333,77,610,579,592,214,182
251,337,86,645,545,588,258,216
273,348,122,839,713,599,314,259
274,363,126,829,712,587,315,264
276,335,126,822,698,565,325,259
261,353,128,854,718,587,361,267
257,375,125,875,729,574,334,246
220,366,92,681,604,570,299,208
198,364,82,688,608,605,310,197
193,383,95,727,729,613,288,181
217,363,103,710,751,593,246,182
212,340,112,766,821,613,268,211
209,342,114,781,827,591,255,201
235,332,119,762,836,561,222,208
224,305,123,766,764,555,256,210
211,285,122,786,731,504,265,193
202,291,111,672,646,474,256,156
233,276,105,618,599,506,246,152
215,287,95,598,523,483,256,157
220,302,72,461,448,493,242,177
220,312,61,323,372,539,235,183
230,315,61,351,361,540,210,203
218,328,59,351,370,555,224,227
214,317,58,296,360,600,223,221
219,313,53,276,350,589,209,206
204,295,46,252,362,602,243,210
207,320,52,374,426,601,250,195
211,329,79,574,463,573,261,204
217,329,81,593,480,563,266,231
214,327,93,718,646,564,268,232
251,355,104,786,686,526,258,241
257,315,103,747,643,528,254,263
263,281,88,638,633,528,249,255
264,295,84,640,637,493,263,242
262,286,75,584,543,516,252,235
224,307,61,503,475,515,228,216
206,319,53,449,461,504,236,185
195,345,53,443,449,529,229,172
210,326,55,424,426,516,185,154
196,340,49,292,332,506,198,151
205,308,52,273,351,556,228,146
202,293,50,262,360,552,219,155
181,282,46,167,344,545,208,138
155,329,52,126,345,579,219,131
158,308,53,118,317,536,207,147
146,309,49,136,288,464,214,152
251,332,47,159,267,473,247,233
246,329,43,171,249,414,251,247
260,301,37,176,246,414,274,261
275,317,43,176,277,436,285,288
274,303,42,144,274,429,262,289
217,289,43,107,307,461,239,261
221,294,47,192,387,477,243,250
234,296,49,222,398,465,220,297
224,319,44,221,400,557,212,269
238,324,47,228,403,578,244,265
218,326,47,229,389,563,264,246
224,319,44,155,350,619,280,252
203,318,40,97,339,614,293,181
211,342,39,96,314,543,305,175
231,342,35,77,308,564,288,202
258,370,41,82,311,541,277,202
274,392,41,68,264,496,251,204
266,393,40,63,266,525,227,200
264,347,42,62,266,528,209,222
241,359,42,64,290,517,199,202
215,424,42,65,394,660,214,189
203,544,42,70,539,712,231,184
203,741,49,87,755,1060,265,192
219,804,53,96,813,1179,288,190
214,863,55,100,852,1214,288,204
210,856,54,99,844,1190,266,214
235,813,58,107,817,1200,273,245
251,644,52,120,676,958,239,259
248,584,51,185,617,847,219,247
239,499,65,271,644,807,248,239
253,435,81,397,621,756,257,251
219,389,110,646,851,708,285,238
244,428,124,709,903,663,317,231
268,441,124,699,916,596,332,234
326,440,122,687,873,564,319,244
330,459,120,659,872,594,326,255
371,438,152,753,767,581,317,257
353,407,164,794,694,531,321,255
337,391,174,847,684,522,307,256
283,389,177,875,692,529,303,260
282,418,175,899,719,498,287,239
256,439,136,734,565,483,258,238
255,416,111,632,520,464,210,221
232,380,94,589,542,494,220,215
270,376,99,605,583,495,247,234
251,430,97,559,611,531,253,247
232,667,84,438,765,897,247,229
234,715,138,438,814,915,268,237
253,747,185,411,817,972,281,249
231,778,202,304,814,1181,271,219
249,835,222,273,896,1420,330,210
240,722,221,268,786,1289,333,211
226,726,192,245,763,1304,332,215
235,750,146,203,777,1289,329,245
238,744,105,161,748,1137,356,251
224,649,46,97,587,802,299,248
223,558,41,84,523,743,315,242
243,493,40,68,465,701,317,241
231,418,42,71,371,649,309,215
242,346,44,70,320,598,255,210
285,259,49,66,265,565,285,263
301,287,50,69,306,530,267,269
316,305,48,68,344,560,255,274
319,296,45,58,391,603,247,257
294,314,45,60,393,619,281,256
243,331,43,60,409,717,253,223
240,313,44,58,378,729,249,216
199,294,43,58,366,750,269,208
186,355,44,51,345,799,256,215
194,350,44,49,340,798,234,235
212,341,41,47,349,781,224,193
190,460,46,54,467,805,235,194
188,691,59,72,684,1013,233,188
201,762,57,74,793,1076,249,220
197,807,58,79,832,1122,241,203
181,821,57,79,831,1102,242,202
179,768,53,75,790,1119,227,200
177,592,41,57,617,945,199,198
156,483,40,58,465,826,198,164
155,402,35,51,397,796,206,145
156,378,34,50,390,833,230,163
166,359,33,48,348,777,235,188
161,327,29,55,341,767,240,195
151,437,32,52,457,836,232,197
141,640,42,59,676,1068,231,202
142,690,45,60,743,1191,206,228
126,756,47,65,781,1257,205,203
125,774,48,64,779,1279,209,206
123,739,48,70,777,1296,196,196
144,594,42,64,613,1110,177,206
145,546,39,61,536,978,174,172
157,497,40,61,513,962,213,193
157,477,41,58,530,980,214,185
154,434,42,59,451,911,245,211
134,420,39,57,443,914,243,211
116,418,37,59,447,915,260,208
186,410,39,61,473,898,261,263
186,409,34,57,458,820,251,269
184,408,32,54,466,880,213,246
189,390,40,64,446,868,235,262
193,387,39,65,453,815,211,262
115,359,36,59,415,839,157,197
113,382,38,66,438,867,169,212
149,380,37,63,434,877,193,247
164,405,27,53,452,886,175,265
165,417,27,55,450,898,214,258
182,431,27,56,473,940,260,274
193,432,33,62,472,985,316,280
182,415,36,67,443,916,312,263
177,412,37,67,452,927,310,227
201,432,41,63,462,997,292,237
192,465,42,66,468,993,265,221
185,458,38,53,460,935,211,201
186,463,39,52,485,959,217,200
190,521,43,58,491,997,230,184
186,505,107,121,453,893,259,210
203,444,135,144,384,756,267,211
220,407,153,170,343,707,260,210
219,392,162,235,296,598,265,196
237,264,180,431,201,370,266,212
256,192,157,496,178,335,226,176
268,168,153,536,140,217,262,177
249,154,145,544,104,151,278,188
257,116,162,537,72,110,273,206
250,91,180,444,58,82,275,186
256,106,202,371,125,264,297,204
224,171,199,317,265,464,262,206
242,272,194,307,425,785,250,224
231,620,175,282,738,1028,252,216
231,741,136,210,832,1158,259,222
202,834,93,183,915,1234,235,230
216,852,65,162,919,1253,228,236
229,873,60,133,898,1136,227,222
241,698,51,130,700,982,229,239
223,608,43,113,600,884,211,238
214,492,40,115,486,779,263,229
203,450,39,115,442,723,264,221
169,378,35,123,402,732,246,211
150,342,36,112,378,749,230,179
146,290,35,117,374,772,256,184
155,277,35,110,374,812,237,159
158,285,34,115,368,837,255,153
159,282,33,114,363,837,295,191
151,274,31,118,348,862,311,199
174,270,31,113,367,852,288,206
170,283,28,111,363,841,267,215
185,274,28,94,379,810,256,209
178,261,28,89,358,786,230,158
189,291,28,84,368,741,212,166
187,407,34,91,464,748,222,169
173,635,40,97,677,923,232,192
154,673,42,95,710,924,238,193
163,693,97,134,729,942,292,209
151,866,106,145,888,1080,286,194
168,848,106,145,867,1108,282,188
176,724,105,145,740,1013,286,167
177,698,104,143,705,1009,282,168
171,694,59,98,700,1012,248,146
172,478,42,78,498,858,251,146
160,424,39,66,454,809,248,152
151,379,34,53,409,764,232,155
146,364,30,49,401,772,224,158
158,326,25,44,376,765,176,163
158,299,24,43,417,788,180,169
135,297,22,40,418,805,181,152
165,295,26,45,418,792,189,151
164,284,27,45,424,808,185,142
162,298,30,47,419,800,197,162
167,278,30,45,339,784,190,159
169,286,32,48,335,769,192,162
159,280,31,44,362,757,203,155
157,279,31,43,350,723,204,155
155,261,29,44,381,721,204,156
155,358,31,55,465,702,215,167
153,569,38,98,588,743,208,162
133,615,53,102,635,776,246,176
145,654,72,106,666,773,242,186
134,680,111,118,668,741,241,165
138,699,137,134,677,778,276,187
163,592,137,115,638,768,277,202
167,575,132,111,588,753,228,205
172,592,125,114,596,785,239,213
169,664,94,109,626,896,239,221
157,641,50,87,602,972,185,192
128,660,50,86,586,998,200,177
115,642,50,87,576,969,193,151
105,600,48,85,553,976,194,182
119,529,45,80,513,910,196,184
122,534,42,86,528,900,198,188
156,457,34,75,467,855,184,221
165,447,35,74,473,874,215,234
160,438,37,70,439,842,240,206
152,419,36,68,437,839,247,203
158,405,37,60,431,830,248,213
123,422,38,64,453,890,265,184
118,434,39,68,442,887,255,186
138,432,35,67,445,876,226,203
142,468,33,64,488,1005,202,198
144,479,34,63,488,1012,193,202
146,464,33,59,482,967,179,196
145,443,29,52,471,958,160,192
119,457,32,61,498,987,159,178
127,445,37,73,479,892,174,200
112,414,35,72,435,860,187,194
129,428,37,71,431,865,172,210
128,431,37,76,441,852,200,214
130,417,38,71,420,813,222,212
122,400,38,64,411,894,222,192
126,372,38,61,402,893,229,187
122,360,36,63,398,883,226,167
114,349,36,56,380,888,220,146
125,401,39,91,414,988,200,147
141,366,38,100,376,839,202,158
140,340,54,100,347,741,195,160
123,319,76,102,321,697,235,162
132,318,106,114,317,675,218,174
124,245,139,149,255,521,235,158
110,227,181,232,225,496,247,177
125,257,195,240,315,612,268,165
130,274,208,272,407,924,255,160
133,298,198,283,503,1168,273,164
148,331,177,264,611,1301,256,177
159,421,134,192,671,1303,252,151
170,454,109,184,677,1237,223,168
170,482,67,130,640,996,211,166
162,486,67,97,574,678,186,173
147,492,74,76,476,276,206,196
144,493,81,99,405,219,197,194
119,519,82,147,345,187,210,187
116,614,84,196,506,584,212,198
136,724,76,205,654,764,234,200
138,766,71,225,688,882,208,175
134,753,65,269,716,940,231,170
169,729,62,306,724,996,231,179
177,637,59,332,621,885,247,176
172,522,60,337,497,798,241,155
179,435,58,341,448,748,244,146
186,384,55,308,400,715,267,210
167,351,56,282,434,683,278,224
188,338,57,268,471,682,273,229
178,280,58,297,432,629,267,231
184,291,55,293,462,668,280,233
174,295,54,288,464,706,238,184
179,288,49,272,441,716,219,162
146,381,42,240,476,666,198,166
164,703,53,205,742,986,205,173
149,736,55,206,760,989,189,171
153,805,61,230,790,976,186,165
137,961,67,233,938,1173,211,172
150,972,70,265,918,1247,226,162
157,803,59,259,795,1086,250,168
161,771,55,243,780,1057,247,167
157,715,49,225,763,1057,245,169
170,495,44,201,583,842,221,170
182,394,35,131,554,772,215,218
176,335,35,123,440,697,193,202
173,335,33,130,403,668,194,203
177,296,34,124,380,673,228,220
159,281,29,124,328,646,243,220
161,269,34,122,318,623,273,183
142,267,35,113,318,610,265,189
149,227,35,104,296,608,272,193
176,255,34,95,282,596,247,171
188,312,34,87,373,647,276,202
179,340,32,85,399,679,242,200
189,348,31,87,429,684,254,209
196,370,30,86,443,658,241,217
158,345,31,91,444,623,246,222
145,412,33,99,455,552,225,177
170,642,35,112,660,877,231,159
165,675,82,129,674,883,213,158
167,688,127,167,684,899,259,168
186,743,128,168,730,931,248,175
211,732,127,167,703,948,228,208
180,586,128,175,549,659,231,214
188,567,104,157,543,653,229,226
178,558,36,110,532,638,193,203
169,496,34,106,479,606,192,197
144,523,41,111,522,676,185,171
170,668,48,97,689,935,170,174
161,716,52,113,743,1130,159,146
156,730,55,125,756,1160,161,176
167,756,55,120,778,1225,215,200
175,699,51,113,732,1202,220,199
146,578,42,103,593,1047,231,188
213,536,44,112,519,922,322,252
217,502,40,101,493,941,317,235
212,479,39,106,485,919,291,209
226,485,45,116,492,893,292,215
230,467,46,123,485,891,284,219
180,448,41,105,492,913,231,200
186,455,41,104,498,894,222,199
192,469,40,97,502,877,225,227
203,493,36,93,523,903,232,239
200,450,37,93,494,980,237,245
193,453,39,108,499,923,243,230
214,464,42,118,521,939,257,255
202,446,42,121,522,912,251,231
165,433,42,127,517,920,245,233
168,407,42,125,492,890,234,223
182,422,41,118,533,895,190,201
154,425,39,133,551,874,246,191
157,410,40,135,541,890,245,202
152,429,37,129,567,945,248,172
146,471,39,127,587,951,274,198
123,442,37,121,537,941,272,190
120,444,36,92,517,967,233,168
124,498,69,134,536,1032,238,170
123,449,112,151,485,961,256,172
139,397,145,159,434,820,266,156
147,361,174,178,388,734,293,176
150,319,204,222,355,659,292,179
154,200,215,236,347,715,322,186
163,263,211,267,503,1021,356,205
168,347,191,275,674,1308,343,203
160,472,165,270,783,1391,315,187
148,525,131,237,818,1392,304,203
136,549,101,200,801,1274,288,192
151,534,79,140,703,1011,216,183
139,492,83,113,545,576,193,185
146,379,94,106,375,306,192,225
146,304,91,109,270,180,202,205
169,259,89,111,198,167,175,221
162,245,84,114,193,132,163,223
181,266,77,116,162,105,228,226
175,295,70,121,132,64,233,202
184,293,66,131,80,40,221,211
172,491,66,146,371,476,224,197
155,560,60,150,501,664,230,182
156,614,57,143,655,797,168,184
159,647,49,133,774,937,152,165
163,672,45,121,887,1007,174,185
169,556,32,99,866,980,173,191
177,492,30,84,836,971,165,192
160,402,31,89,749,982,177,175
154,332,29,84,646,939,185,178
190,291,31,84,503,954,195,202
179,255,29,79,435,964,193,188
185,231,33,88,397,939,216,189
180,239,33,80,393,900,207,189
180,219,35,90,415,883,210,182
146,201,37,105,404,865,189,164
134,197,37,102,380,818,177,156
133,216,33,114,368,786,184,190
172,229,36,122,336,804,200,238
183,235,34,112,318,825,186,244
169,236,29,93,342,830,184,214
193,257,31,97,351,870,235,225
189,246,31,70,372,921,222,196
165,413,34,73,459,935,243,148
151,652,42,99,652,1245,246,137
164,797,54,147,961,1485,250,150
159,946,65,171,1157,1568,265,174
149,978,64,176,1163,1550,254,174
129,941,62,174,1148,1552,216,160
141,813,58,166,1047,1331,227,171
138,684,49,130,759,1062,246,184
122,476,35,98,426,929,207,152
138,415,34,90,373,951,239,158
140,351,30,86,399,937,239,161
129,309,28,75,482,918,230,161
120,286,24,73,494,936,207,129
147,268,24,74,476,935,199,135
146,256,26,73,484,921,168,120
147,250,27,73,436,903,180,121
162,242,27,77,385,868,184,146
163,240,26,71,419,820,168,152
129,208,25,72,428,796,171,141
150,223,25,91,437,774,198,171
171,232,26,89,410,759,187,187
160,234,28,89,450,768,192,159
157,245,29,90,426,794,207,172
158,420,30,91,555,836,183,174
131,681,57,98,773,1116,174,158
108,731,97,108,818,1117,191,153
107,798,121,119,806,1092,187,151
143,820,123,124,830,1090,241,176
157,757,124,124,746,1065,260,182
158,548,114,106,605,803,251,174
207,514,82,102,579,812,269,194
205,414,37,88,529,838,264,196
182,373,32,86,535,806,228,164
176,371,31,83,533,829,271,191
173,339,33,81,444,833,291,195
112,289,33,82,411,850,297,181
139,274,32,87,409,873,317,189
134,284,28,77,396,920,308,209
128,259,24,77,425,898,270,201
151,266,24,79,421,867,251,234
145,256,22,85,413,829,217,222
125,266,21,82,434,807,186,240
125,253,21,88,391,760,179,234
126,245,20,85,368,729,171,219
108,363,30,116,438,721,189,214
130,659,79,183,608,844,199,222
130,713,109,197,683,874,219,201
147,754,134,236,737,875,238,185
157,793,136,238,761,907,249,188
147,751,133,231,732,913,233,145
129,554,112,176,641,859,233,134
128,514,84,161,571,830,217,120
114,466,36,96,525,844,188,115
106,422,30,91,497,833,164,103
110,444,36,93,518,866,149,101
113,402,38,102,493,828,124,108
109,370,43,102,499,847,120,111
114,355,45,126,475,854,127,106
116,352,44,147,493,856,126,109
119,395,47,168,498,840,147,125
123,610,65,238,684,1068,155,140
140,713,69,290,849,1174,195,144
133,733,73,290,877,1209,200,144
129,729,78,307,861,1185,206,152
129,722,83,351,900,1201,198,142
142,575,72,321,766,1119,200,125
128,429,65,283,559,997,163,119
148,443,117,373,515,932,170,118
154,447,128,377,502,922,167,105
173,387,133,348,347,829,187,123
183,339,134,347,284,565,178,110
193,325,139,345,235,450,185,122
176,223,111,243,159,328,178,124
169,174,140,259,116,261,188,127
148,409,155,326,352,471,171,108
122,510,156,339,526,701,180,122
113,593,151,338,608,787,197,118
128,663,141,332,698,857,195,134
143,705,99,295,722,906,196,134
138,615,62,191,668,867,221,144
140,552,58,165,594,726,236,138
142,468,60,206,533,681,211,132
148,377,61,230,448,662,214,116
135,331,61,247,449,634,205,126
145,316,58,246,431,598,209,143
140,293,56,258,432,622,185,135
146,304,55,263,465,611,190,142
134,309,60,297,484,602,207,150
159,323,57,311,527,655,221,143
160,412,57,351,638,647,222,145
194,621,64,348,759,796,233,148
194,676,68,342,814,850,243,150
202,695,96,313,796,851,277,162
195,718,161,373,813,898,283,168
192,697,185,349,817,1073,288,151
167,573,199,365,814,1302,297,146
172,588,201,395,949,1518,301,157
174,637,190,405,1078,1573,266,145
161,668,141,346,1079,1550,253,145
167,674,109,337,1049,1477,226,151
176,655,92,522,986,1229,219,177
166,620,99,567,843,919,201,162
159,546,101,595,676,826,192,167
173,446,109,713,685,799,191,169
164,407,115,776,733,748,191,159
159,431,115,699,707,675,181,155
166,636,134,813,941,895,221,179
185,681,157,988,945,903,232,187
193,707,207,1054,903,904,261,211
218,708,326,1194,852,903,305,267
236,744,335,1212,918,933,316,282
234,590,326,1122,712,795,304,280
213,595,318,1025,739,803,290,267
199,592,287,907,754,783,258,248
193,617,138,703,788,773,202,186
195,576,108,699,731,739,180,178
206,678,104,720,843,878,224,164
206,646,104,678,826,870,237,174
203,687,113,754,953,1008,277,189
196,687,123,844,994,1032,281,216
154,677,126,812,986,1135,280,189
135,540,128,791,814,1008,251,198
147,552,117,731,812,1057,247,187
155,502,103,605,651,937,210,165
135,465,88,500,608,931,206,144
145,487,92,551,651,833,213,149
157,492,99,579,689,796,189,128
169,526,107,609,735,819,177,146
157,519,115,697,842,857,194,142
163,578,115,706,825,914,186,128
164,528,108,680,803,910,181,134
148,579,103,677,848,1009,179,148
148,522,102,689,887,932,184,133
153,540,88,591,766,998,156,130
147,515,87,596,733,1010,175,130
139,533,86,569,710,986,166,123
163,478,85,528,640,899,198,126
159,549,124,512,505,905,196,141
173,534,147,534,510,775,191,155
172,499,174,427,436,613,200,156
185,491,181,418,365,576,216,155
182,466,204,497,283,479,205,164
175,497,181,505,487,646,201,151
180,543,164,497,503,826,198,150
195,544,130,467,541,950,178,143
189,640,116,431,640,1038,174,143
187,741,68,341,767,1147,159,133
188,759,64,309,808,1135,198,154
173,764,81,477,798,1074,199,157
175,798,87,565,907,1018,224,173
190,742,93,604,877,969,209,173
188,649,89,592,791,867,205,163
203,527,87,571,635,732,171,183
218,453,67,428,670,645,209,201
212,419,64,328,515,654,190,190
207,365,56,296,486,617,189,199
195,343,54,296,478,602,196,200
182,344,55,309,480,602,214,164
155,386,52,301,540,716,204,124
151,390,47,276,589,737,209,131
148,391,47,232,583,743,211,147
149,408,46,202,584,741,212,142
133,405,43,175,567,737,202,142
137,340,45,166,449,598,186,147
148,270,42,161,330,476,171,161
140,257,39,149,294,439,173,132
136,218,42,134,236,427,178,134
139,217,42,124,234,468,183,141
132,223,39,96,225,475,172,137
111,224,38,96,220,521,160,114
102,217,41,155,262,557,174,125
114,240,41,178,313,558,160,123
120,256,45,188,346,520,149,143
125,254,48,199,405,555,150,142
137,239,52,223,428,534,177,156
151,283,48,195,415,498,161,161
162,281,46,191,409,520,167,168
159,276,45,177,385,540,190,151
164,450,45,168,471,670,195,165
180,673,70,202,636,933,205,156
168,692,91,216,667,960,230,138
202,738,103,222,701,974,249,167
206,789,106,229,723,1013,231,173
213,735,108,233,675,957,231,158
198,586,91,176,533,734,211,156
197,572,75,148,527,735,193,161
158,535,57,123,488,730,182,138
151,471,49,122,476,688,244,143
143,463,42,116,437,641,240,157
138,412,44,117,412,582,237,164
141,378,34,127,355,558,258,169
131,340,32,127,332,568,252,160
131,320,41,144,295,539,213,152
133,441,42,192,515,662,206,141
153,704,44,227,817,1042,236,138
161,776,50,237,881,1194,211,129
173,801,52,236,928,1245,224,132
167,828,49,226,964,1280,216,124
183,793,54,232,887,1266,235,121
167,581,53,216,621,1022,198,118
176,496,49,227,555,840,202,120
170,460,51,235,490,733,208,115
173,403,50,245,469,711,201,118
149,313,51,262,473,638,192,118
209,327,59,315,497,587,201,151
200,299,59,329,493,645,217,149
194,317,60,350,522,706,196,151
204,317,63,393,482,685,208,173
217,315,60,390,465,698,209,182
180,283,58,346,462,735,226,157
174,286,59,325,438,680,223,154
185,260,58,309,385,619,230,171
175,257,60,307,445,623,214,147
158,251,57,321,430,592,213,139
150,431,60,348,584,744,195,141
159,575,70,395,695,1045,212,141
160,618,122,424,742,1053,207,121
169,648,140,395,716,1040,243,113
178,671,153,381,705,1029,259,117
160,567,159,369,562,871,258,104
160,411,155,311,408,418,232,102
168,326,123,258,282,335,224,100
182,249,111,235,226,246,213,113
187,163,124,207,179,179,187,115
197,468,118,174,457,485,230,133
198,610,120,180,596,712,233,146
178,677,115,196,668,838,237,148
153,702,104,212,691,927,210,154
147,738,68,219,734,1036,224,171
139,607,58,242,630,993,179,155
128,476,54,240,517,914,185,146
161,403,59,232,457,891,189,138
168,372,65,288,470,857,213,130
159,317,65,287,451,807,217,95
165,295,67,276,455,803,210,114
178,305,67,328,485,771,217,118
149,288,82,431,474,728,255,125
138,310,160,689,622,741,262,135
160,328,169,744,648,707,267,151
169,359,170,774,685,759,295,159
177,340,173,831,740,841,284,161
177,337,174,876,796,852,259,161
188,309,116,777,689,882,239,155
189,288,117,906,837,923,229,143
182,238,122,940,838,876,197,127
191,258,130,961,817,822,203,163
207,297,140,959,852,841,217,159
195,321,137,927,884,800,213,159
175,313,122,747,740,771,203,160
164,335,117,762,732,790,199,158
136,509,111,750,911,971,199,123
165,679,125,763,886,1094,173,146
166,714,142,717,876,1108,190,140
194,733,180,757,861,1078,200,150
189,744,184,687,817,1022,217,160
218,640,204,599,538,792,227,163
180,422,193,499,417,491,232,141
182,333,177,546,305,338,235,135
170,268,145,533,226,262,221,141
181,323,144,509,280,301,244,137
154,400,108,476,368,618,233,133
152,515,84,415,482,777,224,137
150,577,78,311,605,850,206,145
191,638,76,272,687,951,254,214
196,600,71,339,690,987,233,210
186,568,78,380,697,882,275,221
200,481,77,418,681,828,276,227
207,408,90,500,622,830,278,236
156,331,92,553,594,778,255,190
139,308,94,537,604,776,239,185
136,265,87,518,557,753,175,164
114,269,91,490,502,734,182,174
97,264,80,423,510,698,174,157
97,246,70,342,445,672,149,128
106,239,63,297,413,630,150,128
127,445,67,293,581,715,184,154
135,659,67,314,722,917,168,141
144,774,102,319,799,1011,234,180
149,817,102,312,868,1068,234,181
153,829,100,326,869,1105,243,185
147,753,97,326,774,1081,224,175
138,586,93,285,646,928,241,166
137,436,49,245,520,852,181,159
119,365,54,218,433,809,172,148
161,352,54,195,422,761,163,199
168,312,53,184,402,723,161,204
175,279,56,196,388,693,159,215
169,310,55,201,407,696,155,191
176,346,46,195,447,759,188,200
133,359,47,186,455,827,187,149
113,366,48,173,472,857,183,125
102,359,41,161,478,861,166,106
101,332,44,144,465,851,173,108
102,282,43,132,404,791,146,96
101,250,42,124,375,737,157,91
103,270,43,123,377,723,149,97
129,291,44,114,392,726,185,99
127,307,43,108,394,737,184,93
140,321,42,91,416,753,213,111
145,331,43,118,424,775,216,116
138,323,40,134,444,792,224,115
116,336,41,141,450,818,196,118
113,313,40,154,442,819,189,116
104,325,53,185,571,814,184,142
97,323,52,176,692,807,169,139
96,311,63,173,747,786,170,144
95,308,69,173,791,762,202,153
97,308,70,161,794,758,201,151
84,353,73,123,719,786,207,117
79,351,72,108,611,776,213,121
79,375,63,98,517,770,205,114
84,371,62,106,436,756,184,109
84,362,60,102,397,696,184,108
78,305,46,105,359,628,158,97
86,301,46,105,350,648,153,92
85,279,46,97,342,656,147,89
126,274,45,95,343,674,174,141
140,309,50,102,403,759,215,158
141,354,52,133,446,862,200,160
143,376,58,167,468,878,277,189
172,381,60,169,484,897,287,210
161,373,54,176,498,916,258,173
156,370,51,185,463,889,228,164
169,337,48,162,439,825,234,199
168,314,44,134,422,810,155,173
143,324,44,136,413,770,197,161
124,335,42,133,391,732,202,160
160,336,49,142,386,698,208,180
157,330,58,237,371,681,211,142
151,349,60,251,368,667,235,149
187,337,58,249,355,647,206,159
187,344,59,255,361,649,207,157
156,331,61,258,378,667,197,134
150,316,53,179,358,625,191,150
155,297,51,159,342,586,143,142
130,296,55,190,351,625,124,123
135,310,53,191,381,657,144,143
144,307,45,183,375,682,151,177
138,321,45,193,412,740,168,164
135,334,45,201,427,779,188,163
123,331,44,204,439,756,213,167
130,342,43,221,403,732,206,164
122,344,45,211,393,705,205,129
145,331,47,203,365,660,195,133
143,316,47,216,349,632,170,135
147,318,51,272,316,649,170,137
130,263,53,274,326,625,156,119
141,257,55,285,347,636,169,115
122,248,66,385,479,626,170,110
150,256,67,388,497,617,191,114
153,304,63,348,554,627,160,101
154,325,69,327,552,630,165,107
152,345,69,319,561,621,199,132
150,363,58,192,457,633,192,128
131,363,56,162,428,616,174,141
115,320,55,120,353,571,173,137
121,308,51,135,353,580,214,150
112,281,46,138,315,535,168,127
110,266,44,130,309,499,164,125
120,264,43,151,318,512,171,130
118,263,42,155,312,510,180,131
122,248,38,148,287,474,162,113
121,305,39,139,328,599,168,126
119,320,40,142,348,643,170,131
112,327,39,112,364,656,179,128
112,335,40,109,393,688,171,127
118,338,43,105,414,715,139,125
110,302,43,103,395,691,137,109
113,290,44,112,388,693,145,111
97,280,45,115,383,703,172,81
103,270,43,112,361,708,185,80
102,291,40,105,360,715,209,83
101,276,39,105,347,674,212,77
102,269,39,83,321,658,211,78
112,272,40,88,325,649,191,90
105,268,42,88,319,645,177,93
94,259,52,104,311,641,164,116
101,260,53,106,318,669,156,118
98,259,56,107,342,682,152,120
111,271,58,118,333,673,138,130
118,275,55,117,346,660,160,137
110,261,56,120,333,667,146,125
125,300,55,114,336,679,147,157
131,298,50,107,338,695,146,159
113,279,74,122,343,723,187,147
160,290,81,124,328,723,237,168
170,279,76,107,328,715,242,171
159,268,79,122,322,678,261,143
