237,286,162,89,69,58,92,109
237,326,171,114,85,65,95,113
220,319,175,109,82,66,105,108
219,290,159,114,86,69,108,104
200,286,117,106,80,68,103,93
222,325,111,99,79,65,94,89
223,303,98,77,64,60,90,84
268,352,93,82,67,61,97,101
282,351,97,87,61,58,99,108
308,349,90,115,75,60,94,108
303,363,96,116,81,69,111,122
308,405,110,121,85,76,129,130
332,394,112,137,96,82,123,118
338,438,124,145,104,87,129,116
316,471,143,131,95,83,128,122
303,438,146,133,91,74,111,111
291,431,138,130,85,63,89,101
225,396,134,124,73,57,82,96
219,369,117,105,62,48,62,101
205,339,97,102,70,56,72,88
209,362,120,127,75,58,79,88
206,310,123,127,74,56,83,86
195,323,124,117,73,57,84,95
194,302,135,129,81,61,83,84
218,281,134,129,76,56,80,91
230,231,108,134,81,56,73,93
247,243,119,134,84,63,80,107
269,282,127,158,93,69,83,104
252,282,123,152,88,65,88,110
243,285,115,156,86,65,78,105
251,306,130,141,84,74,101,122
237,305,124,151,89,76,100,110
247,299,126,156,92,73,107,117
250,310,135,153,93,76,111,117
283,337,152,160,103,83,132,136
270,383,154,158,106,78,120,120
292,396,156,167,107,76,125,120
268,403,153,149,97,75,119,121
272,403,146,155,105,80,122,125
241,386,136,147,100,73,101,108
229,346,122,148,101,75,110,113
235,371,128,136,101,73,102,127
242,360,131,129,102,72,106,121
270,358,132,137,95,67,111,141
284,376,137,138,93,70,116,148
302,368,139,130,84,63,107,144
301,361,151,123,77,65,117,159
314,330,154,124,75,63,116,166
294,343,172,124,75,61,105,153
303,355,163,115,71,56,101,150
302,341,162,121,70,55,100,151
270,311,140,128,68,57,95,119
270,356,150,119,66,55,89,132
308,349,126,104,62,53,84,126
291,314,131,121,71,59,85,124
298,322,127,112,67,60,85,134
363,324,179,111,74,60,80,162
358,285,158,112,69,65,84,140
328,297,157,111,68,67,87,145
317,329,153,101,66,63,89,144
304,325,155,104,69,65,89,144
268,314,94,94,63,60,84,121
258,331,96,98,73,58,80,125
257,305,106,102,78,60,84,127
289,275,107,96,75,61,85,129
284,280,112,113,74,58,86,127
245,271,108,133,93,63,91,122
241,253,105,140,98,73,96,124
244,234,90,145,97,70,92,122
203,277,116,149,99,75,98,117
239,307,114,139,104,80,103,116
290,318,118,126,86,73,93,129
282,313,121,132,81,66,93,121
283,323,130,143,88,74,103,130
308,344,102,138,84,66,92,131
283,305,104,145,86,63,86,125
251,305,116,154,92,73,99,113
272,376,125,139,81,67,94,127
261,401,147,128,74,61,82,121
246,347,149,136,83,78,100,126
256,352,141,123,80,80,106,122
259,362,134,128,88,79,108,126
241,287,133,140,93,80,114,115
245,232,102,134,91,83,115,104
243,242,111,137,92,72,100,96
218,249,115,139,89,68,98,103
231,237,111,123,74,57,88,99
222,235,119,116,71,54,82,111
252,248,117,111,68,49,86,135
294,279,108,102,57,44,96,151
303,293,137,107,62,48,97,152
294,294,153,108,69,54,98,148
312,320,153,111,68,57,102,141
278,324,153,126,74,56,102,119
222,290,156,134,80,63,101,105
233,279,161,137,82,65,98,103
222,305,166,149,77,65,105,106
216,285,157,147,85,70,96,106
245,307,158,138,80,71,99,104
278,327,171,137,77,67,104,110
270,346,145,134,71,69,123,118
271,332,119,114,71,66,118,125
257,342,120,113,59,61,125,126
278,335,140,126,70,65,121,124
269,314,126,150,78,67,118,124
286,285,141,169,104,77,98,117
281,304,155,171,102,74,90,107
303,302,158,174,105,75,81,121
262,290,152,168,101,69,85,122
248,291,157,140,97,65,92,129
259,332,145,109,68,45,98,131
263,292,137,128,85,56,113,155
241,297,133,118,85,57,116,139
245,299,116,106,88,61,114,152
260,306,104,114,95,66,110,143
229,281,102,130,103,70,110,145
252,321,97,122,99,71,99,118
266,284,93,127,95,71,129,140
278,283,95,134,95,71,135,136
254,267,94,127,84,69,125,128
259,270,108,132,75,64,123,131
224,220,115,126,79,81,152,150
215,234,114,130,81,78,129,135
197,225,114,135,83,79,120,125
217,239,123,140,84,78,128,144
241,255,112,137,87,84,133,135
259,273,100,138,83,71,102,134
257,279,106,133,82,71,97,128
255,292,123,128,76,75,108,128
256,335,123,130,83,79,116,107
234,342,124,118,86,77,112,116
211,331,136,122,86,73,112,96
230,329,136,148,95,75,115,101
232,382,140,160,99,70,107,106
217,353,139,151,93,70,112,112
259,325,135,154,87,65,122,104
269,321,130,149,78,61,121,104
252,334,122,122,74,65,118,102
253,254,96,107,72,64,122,97
250,254,101,115,79,61,108,93
222,260,111,124,84,63,91,102
216,262,111,123,82,60,87,105
208,261,121,123,86,65,98,107
197,300,139,122,84,66,93,117
294,319,136,125,94,82,127,137
274,327,136,115,95,89,133,125
270,325,137,110,94,91,139,132
270,307,135,108,86,83,131,131
283,295,117,105,93,93,145,120
184,294,139,100,77,79,113,93
179,283,145,98,72,72,111,96
205,296,142,101,77,71,107,80
223,301,144,111,81,78,113,79
231,303,148,115,71,67,94,92
226,274,150,146,81,68,91,97
262,274,140,142,76,64,95,104
248,270,138,155,90,68,100,110
250,290,134,159,91,62,93,112
233,300,134,164,96,65,97,102
250,310,110,136,89,61,98,106
213,324,103,141,94,61,84,96
215,385,131,134,88,60,78,96
211,449,146,127,83,62,90,96
215,436,148,119,78,59,97,111
196,428,146,125,77,57,100,107
229,444,156,147,82,61,101,109
230,386,130,138,76,57,96,102
217,297,111,131,77,55,88,93
216,282,106,131,76,56,86,88
215,271,100,126,75,56,83,85
208,302,107,93,71,58,91,94
197,315,107,84,70,58,99,94
206,312,105,88,70,61,105,113
256,316,101,82,67,58,101,108
294,324,110,89,72,60,107,111
282,307,99,87,67,59,103,110
302,346,117,92,67,66,100,113
330,344,123,98,71,65,91,96
299,337,123,130,98,71,90,109
313,375,122,131,106,77,86,109
328,317,114,137,108,80,85,105
333,358,112,140,113,82,83,114
352,509,130,135,117,89,95,124
375,547,153,105,97,84,96,118
341,551,168,94,87,82,97,117
370,609,182,100,90,80,96,122
350,583,171,95,85,71,90,112
329,476,156,94,72,58,77,113
321,470,154,128,104,67,81,118
328,452,139,139,118,74,77,118
274,419,137,137,114,72,84,115
308,390,143,138,119,81,94,112
279,412,157,153,126,85,101,111
258,374,154,145,104,82,112,96
270,389,177,149,91,73,109,96
278,332,163,150,94,73,105,95
257,337,164,153,87,64,99,99
280,294,155,156,81,59,93,96
273,317,154,146,77,55,70,95
251,279,126,136,77,56,78,101
276,339,137,152,79,59,80,106
313,350,154,151,78,57,79,109
302,349,145,134,76,56,78,110
303,344,150,133,79,61,89,127
341,343,149,135,82,62,83,144
323,303,142,120,94,74,83,142
301,315,130,130,104,79,87,141
292,321,140,136,106,83,86,138
301,348,126,130,105,77,71,127
255,407,127,118,98,75,76,122
310,415,121,108,78,59,74,133
302,438,137,110,78,60,71,142
311,426,132,114,74,59,78,148
312,397,126,129,82,65,86,144
331,386,132,140,99,79,92,139
279,377,136,143,109,84,92,125
274,336,116,133,100,80,97,121
290,375,116,125,102,83,92,118
279,369,126,128,104,82,87,123
283,336,150,134,107,80,79,109
307,363,160,149,107,77,77,116
309,398,159,150,112,80,73,117
306,428,178,149,112,74,71,116
316,432,179,137,113,82,85,116
300,420,165,123,101,80,106,118
283,441,162,103,96,83,110,120
274,408,160,98,92,82,116,116
249,336,148,119,90,85,122,114
237,345,141,121,86,79,119,117
236,379,140,123,79,72,101,117
219,358,159,133,80,70,108,116
260,351,158,139,84,70,106,123
276,377,154,127,85,66,101,122
277,369,148,123,80,60,106,118
296,361,149,120,85,62,109,124
328,410,148,110,85,67,114,126
309,469,153,101,81,67,114,120
315,440,159,106,82,70,118,119
327,458,173,121,81,71,116,129
311,434,167,131,84,71,114,129
277,351,159,136,85,62,106,124
275,279,149,139,95,68,99,118
261,303,144,137,99,72,92,130
251,264,124,131,100,73,91,122
233,263,129,123,96,72,94,124
242,307,133,133,112,80,85,115
210,293,156,152,106,76,91,120
207,282,161,145,101,72,95,114
207,285,178,148,109,80,91,118
223,303,170,152,109,81,96,118
209,253,160,142,95,78,92,124
228,260,148,121,93,79,92,118
232,310,148,119,92,80,105,113
210,340,149,116,87,73,108,111
201,422,240,133,96,77,106,111
211,465,264,140,96,78,123,124
198,498,278,157,107,84,133,152
233,527,279,164,111,85,125,154
273,544,278,172,121,93,127,172
278,539,211,157,116,90,124,170
279,509,185,157,113,85,116,169
339,541,225,151,100,80,106,170
312,541,246,155,103,82,108,173
280,516,252,145,91,72,101,157
275,442,246,145,83,70,96,153
286,457,239,148,91,78,112,153
220,364,186,159,99,80,111,129
217,349,180,161,101,82,133,145
224,378,171,156,96,81,138,147
227,380,174,156,102,87,146,151
229,388,182,147,92,82,128,141
262,468,208,142,97,88,135,155
301,456,183,136,94,88,108,138
312,487,210,152,97,91,119,167
327,516,232,161,98,88,119,171
323,513,237,159,97,85,119,174
304,481,213,138,84,76,116,167
293,504,251,152,93,82,120,168
317,451,219,135,92,81,100,162
290,421,220,122,97,84,102,162
379,555,267,147,117,100,133,205
380,537,266,155,126,101,127,200
389,493,233,138,117,90,125,200
364,484,234,144,115,91,144,187
379,570,245,173,118,90,135,178
294,453,207,157,101,82,118,127
301,461,205,147,86,81,121,125
259,469,223,155,99,90,129,126
278,485,246,153,98,89,109,112
299,422,229,117,83,80,110,112
280,386,206,111,99,83,104,109
319,446,213,122,103,80,104,121
319,454,202,122,99,70,97,124
329,464,190,137,109,70,97,133
307,446,171,142,117,77,94,139
311,449,199,145,104,64,92,144
244,440,222,150,104,69,92,136
256,465,217,139,97,65,89,127
274,535,252,140,96,74,128,133
279,520,270,143,90,74,136,127
277,533,260,138,88,76,136,119
301,555,257,133,90,78,140,135
318,577,266,142,112,95,152,147
270,497,240,142,110,93,132,137
283,606,235,162,114,92,131,149
317,631,238,197,144,110,157,168
327,650,229,191,143,108,152,174
311,608,220,197,135,97,138,171
320,658,218,188,135,94,133,169
330,621,255,174,132,94,126,163
320,612,250,145,111,87,95,159
297,550,242,151,107,86,106,151
296,585,254,143,104,87,125,154
308,581,244,137,100,88,126,163
310,586,216,143,108,93,141,177
305,580,215,127,92,76,135,171
331,631,249,131,99,79,137,172
332,649,271,131,93,76,133,167
322,613,280,139,94,77,141,158
298,562,284,123,79,67,130,136
307,596,296,135,94,88,142,138
310,621,275,134,97,86,140,125
321,614,261,147,106,93,141,141
327,627,254,145,109,94,133,142
316,625,229,142,110,101,133,139
292,608,220,142,103,90,125,125
265,540,227,151,104,91,117,137
240,484,243,176,108,84,98,108
202,440,252,183,128,96,98,99
234,475,260,185,130,89,92,111
232,442,249,177,126,86,85,111
236,468,239,168,131,86,92,113
238,497,213,130,119,86,103,129
293,549,198,116,100,77,110,138
265,498,216,128,102,78,109,133
290,575,242,142,108,77,111,140
282,554,287,163,99,77,113,125
292,559,285,161,99,72,113,137
250,511,295,164,95,71,106,127
260,513,280,153,91,71,108,137
224,464,268,147,88,77,109,144
211,405,201,113,80,72,98,145
199,359,188,113,84,77,89,129
198,368,184,121,91,76,93,145
221,401,197,127,93,81,110,144
266,346,214,145,103,88,138,158
314,399,243,163,116,100,154,185
314,398,238,158,110,97,156,184
343,384,229,156,107,91,151,188
316,349,209,153,106,84,135,180
283,352,184,132,93,68,104,167
231,338,146,117,76,58,93,132
248,353,175,130,86,61,97,136
198,389,188,125,86,59,92,111
205,414,196,120,82,62,101,114
215,402,181,121,86,69,114,109
219,396,217,124,90,64,107,113
196,359,206,120,82,67,105,112
260,447,225,121,79,78,130,160
264,420,222,117,77,77,127,158
254,471,241,116,74,71,113,150
262,470,213,109,76,75,110,149
265,550,236,117,93,82,110,155
209,491,237,140,98,76,87,120
213,529,259,155,108,80,89,134
224,479,259,160,116,95,103,139
214,500,269,169,123,99,122,141
233,421,241,170,124,99,131,137
238,419,220,154,117,94,131,126
236,383,193,148,122,102,143,113
276,498,221,156,125,95,140,122
273,456,209,155,115,87,127,115
260,487,221,141,99,83,120,115
261,486,211,132,104,96,141,123
265,572,233,135,97,84,132,127
210,491,184,114,83,80,130,120
266,568,232,120,79,81,130,138
283,538,213,124,79,74,124,138
290,568,224,127,74,55,96,136
289,547,225,118,70,54,88,137
301,561,242,147,83,60,85,144
247,491,210,138,87,60,96,132
224,509,235,146,90,63,103,144
209,460,235,150,96,72,106,145
228,430,223,153,99,75,106,146
233,469,248,163,97,71,106,144
251,534,243,155,105,82,103,162
251,506,221,142,100,80,92,145
248,509,216,145,94,73,86,140
223,474,205,145,91,69,84,134
198,419,169,111,79,66,82,126
216,348,166,116,74,62,99,131
229,374,175,122,79,67,107,138
237,420,181,112,77,67,108,141
256,475,217,116,85,78,112,154
273,510,212,113,93,80,113,160
244,518,207,116,94,81,98,136
277,613,216,130,104,82,108,144
316,631,248,165,133,91,113,152
329,590,233,164,133,87,112,149
311,539,229,160,129,88,120,142
315,564,233,162,130,82,117,144
288,523,243,163,124,80,102,126
317,549,266,143,99,76,106,137
283,546,261,132,87,76,105,136
288,555,260,137,95,74,94,136
296,538,273,141,98,79,99,148
299,506,249,128,99,80,101,149
218,450,182,109,93,74,93,125
212,473,170,111,97,77,93,112
244,508,179,106,92,76,96,119
247,536,160,84,78,69,84,106
232,509,192,111,85,72,84,122
231,449,182,112,82,78,107,120
259,505,206,119,78,68,103,123
242,504,208,121,80,71,108,120
227,443,206,124,80,70,108,118
228,448,185,104,81,76,131,121
238,458,191,114,84,69,116,127
215,380,165,112,90,72,115,116
241,459,215,136,99,79,114,124
244,485,213,149,106,86,124,122
241,477,210,149,98,78,103,105
244,508,211,143,96,80,109,100
266,567,223,142,95,80,112,116
239,560,205,140,88,75,108,111
225,529,204,129,82,77,107,109
222,525,203,124,78,72,106,114
213,533,206,130,83,72,95,121
194,502,225,135,89,75,95,123
201,426,202,120,85,70,89,119
213,449,194,116,93,73,83,116
235,499,198,118,97,78,87,125
215,458,197,109,94,74,83,118
211,405,153,103,85,67,80,103
203,409,136,94,89,80,107,120
221,405,154,98,77,68,109,125
203,325,147,95,85,64,103,110
221,346,159,102,88,66,104,110
231,430,183,113,107,85,112,129
225,420,187,123,107,78,91,123
198,423,185,123,107,77,82,121
201,431,191,127,99,75,78,126
210,418,177,126,107,84,98,129
209,327,153,117,95,71,94,116
226,320,171,114,96,68,91,105
229,283,169,124,97,69,97,109
237,344,174,119,95,72,105,123
234,341,175,116,85,64,96,135
248,344,173,112,76,58,87,138
248,346,153,112,70,57,89,147
274,354,159,99,70,60,83,151
291,327,154,96,73,59,75,147
301,380,153,94,71,54,70,132
289,399,159,101,75,60,81,130
289,432,177,110,88,69,87,120
278,445,182,125,92,73,107,119
247,440,181,129,88,69,110,108
228,405,177,126,84,67,105,108
232,389,196,122,83,65,99,106
243,396,204,113,69,62,96,107
230,397,195,95,62,60,78,107
222,369,186,90,67,64,80,109
226,368,191,105,77,69,88,112
220,385,189,105,75,72,102,115
186,342,157,98,72,67,97,122
225,346,150,100,80,73,99,131
242,444,174,109,77,71,101,127
259,434,184,108,73,73,112,143
256,447,167,105,73,68,102,139
266,465,186,112,77,70,114,131
242,443,182,113,71,61,107,111
241,399,169,121,74,60,105,117
203,445,151,113,80,66,104,107
202,411,150,121,84,68,108,105
213,433,143,124,90,71,109,107
211,463,152,121,90,71,117,122
226,459,150,108,91,75,127,127
237,420,158,109,84,70,128,119
236,423,152,105,86,70,122,121
233,367,155,102,84,70,112,115
245,381,191,115,86,75,108,105
226,343,205,122,83,74,102,98
226,326,200,119,82,68,91,96
235,362,230,118,74,66,94,99
228,373,222,122,75,62,99,114
234,364,202,121,78,58,100,121
233,361,191,119,79,57,97,119
249,405,204,120,84,64,99,122
268,386,184,120,93,68,107,127
289,390,185,107,90,77,112,123
303,441,225,118,99,85,123,126
300,450,231,113,95,83,115,124
302,445,230,118,89,78,108,119
281,436,224,123,87,77,99,111
253,456,227,126,77,65,85,103
229,438,207,121,78,60,88,93
241,440,198,125,86,67,100,103
245,451,206,123,95,72,104,116
252,490,232,126,91,70,111,120
248,465,237,130,92,71,110,120
236,394,212,114,77,65,95,116
222,392,231,119,75,72,97,114
230,402,222,116,63,69,103,109
221,367,187,104,63,68,96,99
225,347,170,102,64,74,123,102
233,350,164,107,70,78,127,103
237,363,171,136,92,72,119,104
211,339,201,198,141,85,114,100
206,340,213,200,145,97,129,107
203,347,217,199,147,93,108,107
200,400,218,199,145,88,104,111
266,437,196,189,138,91,109,126
257,407,160,132,93,83,113,128
328,475,174,138,94,78,106,151
328,482,171,144,91,76,102,147
367,490,178,144,91,79,103,154
328,441,166,128,78,71,96,146
336,436,163,121,72,64,89,140
270,358,162,119,62,54,73,113
273,349,172,111,68,65,74,121
249,264,161,120,79,68,65,117
245,306,188,120,83,71,68,103
247,317,184,121,80,71,68,108
245,369,170,121,82,69,65,115
249,368,170,121,80,62,84,113
276,434,185,108,67,61,86,101
289,452,163,105,64,57,87,122
302,494,181,100,73,60,88,119
298,446,178,99,78,70,97,114
300,456,175,96,76,76,91,110
269,418,168,104,80,76,90,122
243,377,162,98,76,75,91,98
226,327,137,110,72,73,91,99
260,350,136,108,69,65,83,93
251,355,129,113,77,58,71,93
228,341,125,99,68,58,75,77
278,363,133,113,84,61,72,95
266,369,129,107,96,68,81,105
254,348,118,104,94,70,94,107
259,328,112,111,104,78,96,120
261,365,102,117,115,88,98,120
213,342,106,108,107,86,96,108
214,331,112,107,98,82,89,101
191,337,111,112,98,80,75,100
199,356,119,99,80,67,73,94
180,339,122,100,65,52,64,93
188,349,118,95,63,51,68,92
195,345,118,92,66,47,71,94
205,345,124,86,68,49,72,94
236,335,138,95,75,56,73,103
239,326,150,95,81,62,90,131
256,381,156,100,87,66,95,138
250,374,171,107,82,66,94,133
268,385,169,118,83,67,93,137
229,386,155,117,80,65,91,128
227,372,142,117,83,63,76,102
204,305,148,117,77,55,65,95
207,322,156,118,83,57,63,99
188,349,163,120,97,74,92,113
195,341,158,117,97,74,98,112
195,375,169,116,92,74,101,114
191,351,149,132,101,86,110,123
204,442,171,140,101,85,115,137
201,394,169,134,91,74,96,122
188,409,176,130,88,73,91,124
200,393,179,135,89,69,89,122
212,435,187,127,79,56,79,115
211,344,160,129,83,62,76,105
204,388,157,141,80,60,71,100
210,387,152,150,83,58,66,92
193,392,144,145,78,58,65,90
211,385,144,148,78,61,70,85
211,413,162,132,71,60,67,83
223,382,172,115,66,58,69,83
214,382,191,108,66,65,79,95
220,370,188,102,66,64,77,103
224,350,188,109,80,64,76,110
208,304,158,106,80,60,78,104
255,323,151,104,83,63,87,133
296,348,145,129,94,69,85,138
296,350,162,155,101,73,83,132
297,359,156,145,89,67,78,127
331,362,187,146,86,68,74,129
287,318,185,143,82,68,73,103
276,358,187,122,67,55,69,98
272,365,175,93,58,58,74,101
258,382,196,91,66,65,79,106
232,399,192,96,68,65,79,106
228,404,189,102,85,83,103,120
211,370,181,97,86,88,108,129
209,349,179,99,90,84,103,125
203,370,176,105,89,83,103,122
183,357,159,95,86,83,104,123
177,357,158,95,70,62,73,106
181,325,152,94,66,57,65,88
190,317,157,119,65,57,66,93
186,287,147,111,59,54,68,90
227,332,148,118,66,59,90,95
240,341,147,115,67,61,91,101
226,340,172,150,80,66,95,117
246,412,212,127,79,68,95,133
298,405,215,138,90,80,105,156
282,360,220,131,84,78,90,159
300,392,226,143,92,81,94,165
314,436,208,109,85,79,92,157
299,431,157,108,81,78,98,151
243,419,146,89,65,65,82,126
233,418,122,95,64,59,75,118
199,409,140,110,60,56,69,109
191,382,135,106,58,57,69,108
191,350,137,114,63,61,73,101
190,325,135,125,68,61,81,101
210,327,142,125,70,63,83,109
219,318,131,113,67,62,83,110
213,342,179,144,81,65,91,117
227,305,179,141,77,59,83,128
259,360,227,159,90,65,93,140
241,364,227,158,91,63,95,133
236,375,230,150,93,67,97,134
238,372,239,136,87,60,86,130
229,390,249,161,103,69,91,144
221,415,217,146,101,69,80,149
221,437,223,146,100,69,80,147
230,462,223,156,101,67,77,155
218,428,176,148,95,65,81,151
220,425,166,130,89,72,97,131
213,384,160,121,78,69,98,117
275,417,181,134,80,69,98,146
303,412,208,138,87,75,104,147
320,438,238,146,93,81,102,157
317,443,234,138,83,72,87,153
309,438,240,152,88,70,84,157
288,413,244,143,87,74,93,144
266,373,213,129,78,68,86,133
252,345,182,116,70,64,86,129
277,352,192,113,68,60,78,142
273,358,186,90,58,58,76,132
274,401,184,120,69,56,66,130
269,395,182,118,69,53,63,130
257,411,188,113,67,52,67,124
261,444,185,114,70,52,69,120
279,442,180,127,74,51,71,126
248,416,158,107,70,60,75,114
234,434,153,103,68,59,79,121
256,432,165,107,76,63,85,131
230,401,160,107,73,64,88,125
232,445,186,104,81,72,93,133
223,402,177,89,75,69,92,137
218,379,177,99,73,72,115,128
199,358,153,96,65,66,108,115
198,375,169,109,77,70,109,118
175,320,135,107,65,60,104,111
178,320,135,113,71,55,104,113
172,313,143,105,74,54,75,108
199,315,150,104,75,53,72,106
204,324,145,103,70,51,66,98
203,314,158,96,77,63,78,93
194,322,162,91,70,64,80,78
210,355,171,104,76,69,90,89
201,383,196,114,82,75,94,98
177,341,186,106,81,74,95,98
185,328,172,103,78,70,88,98
216,388,177,122,89,80,105,127
215,367,184,121,84,74,95,128
205,331,151,116,79,67,92,123
213,347,161,117,77,67,92,125
211,375,163,120,76,66,90,125
197,310,165,106,73,61,65,107
197,370,146,97,65,56,63,97
189,389,143,92,63,58,69,99
189,374,127,85,62,60,70,91
219,413,158,98,72,70,91,116
216,431,154,93,71,69,96,111
218,380,153,96,77,72,96,114
218,406,176,109,85,77,99,138
229,439,201,111,83,74,100,138
208,383,178,100,74,64,91,121
204,362,170,106,64,54,87,123
205,428,171,102,63,66,101,129
206,436,172,89,63,66,97,101
209,407,161,92,69,66,93,112
185,410,161,88,68,62,81,109
178,399,158,78,69,62,75,101
185,342,158,86,67,51,61,105
191,289,150,103,61,44,61,107
177,329,156,106,61,49,66,104
206,327,159,106,62,52,66,109
221,334,172,111,67,52,65,118
201,309,165,106,65,50,65,108
278,395,178,115,76,62,81,123
270,345,162,112,75,64,97,121
252,344,167,110,75,66,104,113
243,360,195,110,72,67,107,104
297,433,202,112,74,74,113,118
234,366,183,97,80,85,127,110
262,373,176,93,79,80,116,109
274,389,164,103,76,76,110,112
279,387,117,104,86,82,111,122
237,316,112,104,83,75,104,113
256,290,102,103,69,54,71,119
245,314,109,101,69,58,71,115
236,328,136,103,81,72,90,124
234,363,191,113,73,70,95,123
222,364,192,116,73,71,95,118
176,361,192,107,71,68,97,105
197,344,201,112,69,65,93,113
204,298,201,107,56,53,83,106
200,226,156,92,54,49,83,101
200,265,155,83,52,47,87,101
218,309,165,99,61,57,86,106
183,300,167,101,62,58,87,95
196,338,161,99,67,63,87,102
201,350,160,105,79,74,91,110
202,315,166,112,88,77,88,107
188,297,165,104,82,70,90,111
195,314,158,100,82,71,90,121
183,304,162,102,97,93,94,109
171,324,161,97,90,85,87,101
196,363,182,99,91,89,91,104
219,375,200,111,100,94,88,99
217,367,205,112,101,95,94,96
230,341,195,108,83,69,85,104
241,365,205,108,81,66,82,103
257,377,204,105,73,58,77,109
248,372,194,89,61,56,86,112
243,363,181,88,60,52,82,109
232,394,188,84,61,59,88,109
236,397,177,78,55,59,82,107
209,340,157,83,58,60,84,102
193,304,149,92,63,58,74,97
206,317,154,103,67,62,74,93
193,289,152,123,71,57,79,89
201,213,146,124,75,59,82,94
189,235,140,115,76,61,80,92
190,239,134,109,71,58,79,84
191,299,135,101,67,57,81,90
201,304,135,86,77,65,81,106
172,313,141,116,84,65,81,102
169,311,137,118,81,66,79,106
179,345,135,115,82,70,82,126
183,321,130,116,84,74,84,124
202,398,154,154,86,66,72,112
220,403,153,135,79,69,73,117
234,399,154,136,77,69,79,115
227,384,165,137,77,66,77,101
209,345,159,150,78,63,78,102
224,252,147,113,80,71,86,99
221,259,149,110,78,66,84,94
199,267,153,120,79,64,79,88
209,295,161,126,81,65,82,120
224,308,182,112,77,67,82,123
178,296,170,113,57,55,72,124
168,308,179,119,66,61,72,128
190,328,187,113,65,60,78,136
207,306,185,114,68,62,76,109
189,299,200,123,66,56,67,102
202,322,204,116,65,56,74,100
240,315,204,118,69,58,79,114
226,310,197,123,79,57,72,107
201,303,180,119,75,53,77,102
209,311,145,112,76,60,96,119
212,286,133,115,80,67,103,120
175,250,106,114,76,68,102,105
178,232,130,125,73,74,114,108
193,236,134,125,74,71,106,109
205,236,138,117,72,66,90,100
228,249,146,125,68,63,92,103
222,244,167,123,62,57,96,99
243,358,219,134,76,67,114,120
243,366,234,141,80,70,120,123
225,366,235,141,83,73,121,122
184,355,229,129,82,69,109,116
216,369,219,132,84,70,106,124
213,301,161,127,74,58,82,110
199,280,133,117,68,55,77,106
196,269,119,112,65,52,77,96
193,261,115,118,73,58,79,101
166,296,150,133,73,54,80,101
143,266,129,118,73,51,70,100
156,343,142,125,83,56,77,101
182,348,150,133,102,71,79,119
202,355,159,134,103,69,78,122
184,336,148,131,103,73,81,113
209,345,161,137,101,77,88,110
213,281,164,139,99,79,93,119
203,280,158,133,79,68,94,115
209,276,160,137,75,70,99,112
213,248,145,122,75,64,93,113
224,232,166,133,92,69,98,120
214,219,163,135,92,68,91,109
205,219,167,143,99,72,90,106
193,231,164,135,96,66,88,112
211,254,170,147,107,70,89,117
178,220,141,130,91,65,76,103
197,242,159,132,89,66,70,104
221,256,167,131,86,68,82,101
231,239,166,139,90,78,99,89
214,238,154,124,78,79,102,86
230,253,157,121,73,74,101,89
236,224,127,119,74,70,102,89
222,225,116,120,66,60,87,83
217,264,113,128,67,49,65,87
224,268,127,153,82,60,82,95
204,277,132,159,93,72,90,93
176,288,130,145,89,77,100,92
176,278,134,143,90,78,102,96
156,250,138,139,89,85,109,97
155,287,150,119,76,76,105,89
141,275,141,107,64,70,108,88
153,264,143,115,65,68,99,88
152,246,138,116,67,71,101,85
162,253,129,104,62,63,103,84
194,265,112,100,65,63,93,85
237,291,111,93,64,57,86,103
252,319,115,91,64,60,90,104
245,326,114,93,67,57,91,106
240,327,118,94,69,59,86,119
214,297,123,101,69,61,88,120
171,285,130,111,77,74,107,116
148,251,149,114,76,67,100,117
153,279,165,129,80,68,101,114
176,324,183,136,78,66,99,100
172,311,188,131,77,69,101,93
172,294,179,128,69,58,80,80
206,311,177,135,73,62,82,88
283,331,174,113,70,68,94,99
295,319,160,102,79,71,96,109
302,340,151,99,74,62,90,104
310,346,167,114,82,69,92,112
286,361,168,112,78,70,104,121
228,378,168,118,76,68,97,114
198,387,190,132,66,67,100,112
190,345,189,132,67,68,103,116
174,341,184,114,57,60,100,109
188,360,176,104,56,56,94,96
159,313,172,100,54,48,82,93
176,308,141,89,56,44,72,88
188,317,148,93,71,68,78,95
190,325,140,118,73,65,75,92
199,360,150,121,81,70,73,95
208,349,142,144,80,70,73,95
192,306,151,153,90,78,75,87
168,312,151,155,80,58,70,81
207,360,145,139,82,66,84,88
201,279,133,137,75,60,83,85
189,301,139,114,70,60,85,90
192,299,125,95,61,58,98,108
203,314,117,87,72,78,147,131
179,293,167,103,79,77,142,128
155,284,158,101,80,76,141,123
175,271,156,99,82,77,145,121
165,288,168,115,83,76,140,106
157,287,164,125,85,62,88,71
139,249,120,110,76,57,88,74
181,292,126,107,74,60,92,88
182,294,137,137,82,67,106,87
189,312,151,149,81,67,105,99
215,307,148,143,72,63,103,126
228,316,158,147,71,62,99,122
210,297,169,164,74,59,95,116
226,322,158,138,65,55,81,136
237,304,136,111,58,48,69,144
218,314,137,107,53,53,74,122
236,317,146,99,57,58,81,130
223,309,130,78,58,64,88,132
208,298,125,80,62,63,87,111
191,289,123,82,64,66,92,87
186,276,131,85,61,61,86,90
185,283,141,89,59,57,82,98
202,274,153,79,54,51,73,95
184,235,166,83,50,56,72,104
197,232,163,79,50,57,70,103
215,223,153,75,62,62,76,102
200,199,127,72,63,64,84,86
183,203,120,79,68,70,98,120
188,237,105,71,68,66,100,119
179,255,119,73,68,69,99,127
175,243,133,75,57,65,98,123
154,246,132,89,56,60,89,124
150,247,131,86,56,57,75,99
195,307,153,91,66,61,69,99
209,304,195,109,64,56,63,90
207,307,189,104,70,60,65,103
206,300,186,94,71,66,85,108
218,308,185,93,68,64,91,97
177,270,174,98,60,58,93,102
161,311,140,87,59,55,93,109
195,315,145,88,53,52,94,107
194,313,149,89,49,49,85,103
195,306,147,99,50,46,77,104
216,271,158,113,61,58,79,101
230,218,148,125,73,67,86,101
204,214,140,131,77,67,81,94
220,214,140,128,81,65,78,99
250,218,142,123,79,70,79,108
241,261,149,116,75,64,76,104
221,283,135,101,74,63,73,100
239,298,165,124,75,69,91,127
229,291,165,124,71,70,94,122
194,298,159,121,71,70,94,114
193,254,131,108,70,65,93,129
216,232,151,110,62,59,91,135
211,226,147,85,62,59,78,118
223,241,155,90,66,59,79,125
226,230,171,102,66,61,84,126
229,306,177,107,61,62,83,110
229,291,168,108,69,76,95,108
222,313,154,98,63,69,97,108
212,310,135,94,58,67,91,98
209,300,122,83,60,72,101,99
212,228,119,84,65,74,102,99
208,281,127,79,58,63,95,88
199,302,123,91,69,70,101,104
216,308,131,100,76,74,111,108
227,386,153,117,73,63,100,108
208,386,162,113,71,62,100,107
212,365,157,114,72,64,114,118
224,329,149,105,68,59,109,105
222,325,161,103,63,56,102,104
209,222,134,89,61,55,98,98
216,230,124,94,62,56,101,103
204,239,127,89,55,49,84,94
191,231,139,108,62,52,81,83
170,243,120,104,62,54,79,82
175,275,123,108,82,73,90,95
188,270,136,110,85,73,90,99
192,275,138,111,85,71,88,103
184,282,144,98,84,71,95,106
198,269,151,104,87,72,94,103
237,243,149,107,71,56,90,124
233,248,136,121,77,59,94,115
253,258,129,130,80,67,111,119
261,260,107,145,86,75,113,125
263,257,97,145,87,74,113,130
227,255,103,136,88,74,110,105
232,254,151,124,81,73,117,102
204,240,164,115,77,68,102,92
197,282,181,95,73,62,93,85
177,285,205,85,75,67,92,88
191,317,205,84,72,66,96,89
195,324,173,70,69,63,81,98
204,305,167,71,74,66,88,106
205,244,151,72,67,66,88,101
228,260,124,87,66,66,92,93
223,256,160,97,67,71,96,94
221,248,164,110,76,77,103,91
203,234,153,114,77,77,97,77
282,315,166,118,79,72,91,95
287,298,164,114,77,66,89,96
295,262,127,105,79,59,78,97
286,272,130,104,75,50,64,91
304,327,130,102,72,48,75,107
238,282,133,113,70,51,83,105
227,298,134,110,66,55,86,109
199,299,152,129,71,63,97,104
213,282,141,121,69,67,109,110
213,264,159,133,78,67,100,94
215,257,158,135,85,65,95,82
203,233,163,149,87,63,97,79
207,269,151,137,78,53,84,81
194,266,147,136,76,48,76,85
180,235,131,133,67,47,74,95
174,267,129,116,55,46,81,106
176,270,118,95,47,42,72,107
176,239,111,96,49,46,79,120
186,239,143,108,55,57,88,120
216,270,148,100,58,59,99,118
245,278,141,117,66,61,92,126
250,305,149,119,72,66,93,134
254,309,160,126,72,65,88,126
249,307,137,124,71,58,75,120
219,273,130,117,69,56,60,118
164,215,122,122,69,58,68,101
183,213,124,130,69,56,75,100
214,251,123,132,72,58,89,107
211,263,127,129,70,55,86,106
205,275,131,141,73,57,87,104
212,285,130,127,71,55,90,107
183,261,132,130,69,58,97,99
144,229,116,120,67,62,97,88
140,216,105,113,65,60,100,93
156,203,94,97,57,57,101,99
157,179,96,100,62,58,107,97
166,204,76,89,58,57,104,96
188,206,76,86,62,64,98,94
201,207,105,89,66,64,97,98
186,204,117,90,69,71,105,97
185,200,117,76,61,67,92,93
171,216,124,101,62,64,84,94
139,204,128,109,54,51,74,94
124,198,121,116,57,63,87,88
155,199,141,118,62,59,82,98
175,298,143,123,61,62,82,106
203,317,143,104,61,66,90,105
210,352,148,97,67,76,110,110
212,382,138,90,62,71,103,109
202,396,115,88,59,71,101,99
180,342,125,95,65,71,105,98
154,300,118,93,65,71,103,99
162,274,112,96,60,62,88,96
163,237,111,93,64,59,82,95
178,282,144,100,63,56,88,100
188,270,139,98,63,57,85,97
200,272,145,99,63,51,79,88
190,257,143,95,61,50,80,86
184,257,179,104,62,56,88,91
185,247,184,102,63,59,82,87
185,241,183,98,64,63,84,88
172,250,192,115,64,63,82,92
215,276,194,120,70,68,83,103
219,287,163,113,72,65,76,100
214,237,120,114,67,62,75,98
219,249,146,121,70,61,70,92
225,277,138,107,78,70,79,92
181,280,139,104,80,72,72,73
186,279,136,103,77,69,73,73
189,280,139,100,82,68,80,81
182,278,104,86,75,61,83,80
172,232,95,86,72,62,79,89
218,237,98,87,67,55,81,104
214,225,106,93,66,59,87,103
202,228,140,95,61,60,83,96
203,235,162,100,66,64,82,103
211,256,163,99,59,56,76,107
172,216,167,105,55,54,74,98
169,214,172,103,57,51,65,101
222,211,150,99,59,55,77,100
222,224,136,96,60,58,76,95
279,253,129,102,64,60,78,87
286,272,130,100,65,62,79,93
292,277,135,104,64,62,89,88
262,267,131,103,61,56,80,84
264,255,118,101,56,54,87,85
194,209,130,102,53,50,90,87
190,173,126,96,60,55,96,77
201,190,115,102,66,54,89,80
202,209,120,112,66,55,89,106
207,210,116,114,62,49,79,112
210,209,106,107,65,57,81,105
211,223,105,109,60,49,75,110
245,254,110,110,62,57,75,120
240,252,122,103,66,60,68,105
224,243,125,112,84,78,84,100
263,248,122,107,83,82,98,115
258,248,145,124,81,82,94,114
228,226,172,135,80,80,91,108
222,218,167,143,79,81,94,105
240,267,168,143,66,68,88,103
202,292,171,142,62,59,65,91
220,284,156,143,68,60,72,99
205,262,112,125,63,56,72,90
205,274,107,120,63,53,75,87
204,266,113,113,68,52,77,95
212,238,139,117,70,56,82,96
198,262,141,104,70,55,78,87
201,311,152,118,71,54,79,99
212,328,158,117,76,53,83,103
202,290,151,119,73,55,77,96
187,289,123,115,70,51,72,89
170,266,111,115,74,53,72,85
162,213,110,103,73,54,73,79
150,174,108,119,70,54,70,73
174,172,117,116,63,45,63,77
197,153,121,114,62,45,64,84
213,174,125,107,57,48,64,83
218,197,115,97,54,46,65,93
214,204,103,79,54,45,57,96
206,223,103,85,59,47,59,91
197,227,103,108,69,58,73,93
196,246,93,106,66,52,81,98
192,242,113,122,74,60,88,83
217,227,130,115,72,60,92,83
197,216,127,114,72,61,93,82
190,224,126,101,71,58,94,83
189,219,129,124,82,67,94,94
217,223,109,117,83,66,88,106
196,219,121,125,84,70,88,106
201,208,116,123,84,74,92,108
209,217,112,120,80,72,83,105
200,209,126,106,73,70,90,95
179,201,161,101,68,67,84,82
204,207,141,96,67,65,82,82
283,341,145,98,67,63,81,96
272,352,155,98,66,62,80,90
276,350,151,92,62,55,64,95
279,357,113,107,63,57,68,102
284,425,123,110,65,58,82,104
212,338,120,106,62,53,80,112
220,316,106,104,62,52,82,115
232,314,102,106,64,54,91,118
224,300,122,110,62,52,91,115
211,300,127,111,59,48,78,116
225,327,160,134,73,54,84,103
228,330,179,144,80,57,84,108
204,324,180,169,87,58,73,95
218,349,188,171,92,62,76,97
214,280,203,187,104,70,84,94
194,250,181,176,101,78,85,93
192,270,167,175,94,75,89,90
197,275,170,163,90,77,97,94
176,244,158,148,84,73,92,88
170,253,134,124,69,66,92,89
163,266,130,118,63,53,87,92
158,240,132,114,66,52,77,92
163,227,135,108,67,48,64,91
166,228,137,118,72,51,76,89
171,213,136,113,72,52,74,97
190,178,133,123,77,53,72,88
212,180,135,132,96,67,118,100
222,185,151,158,100,67,126,116
214,166,143,171,106,71,124,118
209,139,135,172,107,70,131,137
212,146,137,163,101,73,137,139
209,209,150,157,80,60,102,125
200,217,124,121,72,58,92,110
200,228,121,95,61,53,89,112
213,230,133,118,65,64,95,100
208,231,168,132,71,63,90,96
200,194,167,131,77,68,100,108
202,220,167,130,74,73,104,106
204,210,172,130,67,72,104,112
183,204,172,113,62,62,89,100
196,229,141,118,72,62,90,118
192,244,134,132,70,56,77,121
197,209,150,141,75,52,76,129
243,253,151,140,75,52,82,129
249,259,141,140,76,55,88,125
264,264,137,123,64,57,90,131
271,258,169,127,64,57,90,129
265,280,167,123,59,54,86,122
260,248,194,123,59,55,81,125
269,261,192,124,61,56,88,137
252,250,193,123,57,48,75,121
272,237,168,108,57,48,77,114
301,221,167,99,62,55,81,125
293,252,124,98,63,54,89,149
287,252,133,98,60,49,74,142
289,243,138,113,63,51,77,144
312,233,133,108,57,48,79,153
285,227,114,110,51,40,82,149
275,206,120,114,59,48,71,123
289,188,112,111,60,51,83,135
294,198,117,116,63,56,82,133
240,203,120,107,61,56,82,123
241,203,122,111,69,64,85,121
229,203,129,120,60,60,86,112
204,192,143,128,63,61,75,88
189,169,133,117,62,53,75,94
175,173,120,118,66,57,86,96
177,197,139,112,67,51,79,97
182,181,135,107,78,61,90,100
174,189,121,94,75,59,95,105
183,201,128,107,80,68,106,97
254,190,132,117,80,66,95,96
325,171,107,127,77,74,97,106
385,177,103,120,66,68,92,113
403,195,121,133,68,69,89,111
429,207,113,129,65,63,81,134
399,203,113,127,71,70,83,134
366,210,120,129,67,61,84,131
319,196,124,136,67,57,78,152
303,211,123,139,67,56,78,153
266,214,148,141,65,56,77,140
260,220,149,144,58,48,73,136
224,218,150,131,53,45,67,131
239,224,156,127,60,53,82,103
242,266,152,118,63,55,79,131
217,253,170,124,63,58,77,123
247,292,180,127,67,64,80,130
254,289,180,134,69,65,82,136
234,293,168,127,60,57,65,132
222,260,200,137,73,58,65,103
239,265,165,119,73,55,63,106
257,229,151,107,73,49,62,118
274,241,151,109,74,51,61,106
267,247,158,113,81,57,66,107
325,226,115,95,69,59,86,126
340,215,123,93,64,57,92,136
316,215,140,106,71,60,94,122
334,204,141,107,76,63,100,146
365,219,139,111,76,68,101,151
339,227,127,144,75,62,86,141
333,223,150,162,78,66,81,126
332,219,132,151,68,64,82,122
308,214,132,150,59,58,74,94
262,181,143,161,58,50,74,88
231,174,146,134,62,56,77,88
221,172,128,120,59,56,80,89
242,179,128,122,66,64,86,93
229,185,148,122,68,63,90,106
230,197,139,110,68,67,87,102
234,176,136,110,64,64,89,96
220,205,147,116,63,61,94,107
240,196,180,139,64,54,95,130
237,193,162,139,65,59,97,121
241,186,165,144,62,53,94,129
248,191,177,143,61,52,93,128
264,161,162,139,68,63,95,123
231,152,121,113,62,62,80,106
230,198,173,108,72,59,72,107
231,195,162,104,82,64,71,106
216,196,153,96,84,64,72,110
195,201,152,102,83,58,63,108
171,217,165,114,82,58,67,100
164,179,120,116,73,57,66,97
145,188,124,127,66,56,76,89
154,191,116,126,65,59,71,83
158,206,115,118,60,59,77,108
159,218,108,126,62,63,79,109
158,204,118,124,62,65,84,111
171,200,122,110,61,65,78,110
185,223,122,116,69,84,130,141
181,205,128,118,69,81,131,130
176,206,153,102,65,77,128,128
172,223,150,110,70,79,125,131
164,230,155,107,63,78,129,136
153,203,158,100,48,56,80,105
156,196,178,98,53,56,70,95
173,177,152,93,59,59,74,100
220,205,142,85,51,56,79,96
238,297,159,100,58,56,77,90
246,302,163,102,57,59,76,99
258,303,137,102,55,57,75,104
249,310,137,112,54,55,74,100
225,301,151,112,53,49,69,102
201,206,138,99,50,49,62,105
175,193,127,97,49,45,60,102
179,216,135,105,55,45,60,97
179,206,134,114,64,57,63,100
170,188,160,139,77,68,76,100
175,184,150,135,76,69,80,101
196,188,158,137,77,67,78,92
171,172,164,141,75,75,95,100
183,182,170,130,65,65,92,109
169,183,130,106,51,56,80,101
199,208,132,112,55,59,79,128
213,224,123,107,56,61,86,129
218,225,105,99,56,53,74,122
227,204,90,91,58,53,77,118
241,195,98,94,57,51,82,135
236,178,101,90,55,45,84,104
237,178,108,101,55,47,80,112
275,185,102,95,53,48,80,116
262,200,105,102,52,46,79,109
253,197,98,101,67,60,86,101
241,177,91,103,62,59,87,102
217,186,87,99,66,58,85,94
167,239,116,116,70,58,79,93
166,239,117,113,71,61,82,98
159,236,112,107,63,59,77,87
144,236,107,102,66,62,79,83
139,223,103,101,71,65,77,82
125,190,102,90,66,68,77,79
162,189,101,91,68,67,77,78
172,200,100,90,64,62,76,74
189,203,106,105,70,62,64,89
214,191,109,108,63,57,68,105
221,179,98,101,65,52,69,106
193,180,108,103,72,56,73,102
209,211,117,104,74,57,72,136
251,298,132,97,74,63,82,144
255,303,134,90,76,65,87,142
260,303,124,89,75,67,95,156
267,316,147,87,71,68,103,163
257,307,164,102,77,70,105,139
225,243,154,100,77,69,104,127
207,256,158,99,71,66,101,127
211,324,171,105,79,73,100,107
224,308,146,105,78,71,87,102
215,291,120,87,70,66,81,104
203,294,118,97,65,59,80,104
201,278,105,94,68,61,85,96
191,208,95,93,65,52,82,97
165,218,118,122,72,53,82,90
194,241,121,130,76,53,80,90
187,228,128,119,75,57,83,84
183,223,143,128,80,59,76,79
169,198,144,134,71,57,73,86
167,206,123,113,61,56,77,82
148,203,132,111,53,55,82,74
141,203,154,122,50,55,84,70
133,209,149,125,47,54,84,75
180,199,141,113,47,51,85,76
191,187,150,110,45,48,77,89
195,201,152,116,53,50,75,89
224,236,124,118,54,50,65,93
236,240,119,115,52,54,76,97
247,332,126,124,61,59,77,96
250,326,115,130,65,62,86,89
251,312,103,126,67,71,101,99
239,286,93,117,65,71,106,97
237,284,87,114,66,67,108,104
221,208,127,122,64,66,115,101
209,211,127,114,68,74,113,101
218,199,138,119,63,74,103,100
220,191,146,126,68,75,99,106
206,210,157,126,62,73,90,94
212,222,146,135,71,79,80,88
245,221,144,142,74,79,86,113
242,233,139,135,70,68,81,110
258,237,142,132,73,70,93,124
272,221,133,133,78,73,104,122
256,271,131,110,72,70,109,135
228,271,169,111,65,65,111,119
266,268,174,119,68,68,110,113
248,270,172,116,63,63,101,94
245,267,172,107,58,61,90,107
247,161,154,108,48,50,79,97
262,152,122,102,47,44,63,93
234,192,113,86,46,44,66,109
236,240,116,91,49,48,82,120
233,237,125,94,52,52,84,107
219,238,132,96,55,55,83,108
232,279,132,103,61,56,95,120
223,286,129,105,64,55,96,114
216,251,132,109,61,54,90,103
219,264,125,123,65,48,87,102
221,269,121,122,66,51,90,101
197,241,109,115,63,53,77,88
185,203,111,124,66,56,75,83
207,215,91,120,66,57,64,90
200,207,85,111,69,66,70,92
197,201,98,106,71,67,80,84
195,195,97,110,85,80,102,84
204,260,113,118,88,84,116,80
224,258,111,116,93,84,120,86
228,255,116,114,88,79,118,87
227,267,120,149,95,79,114,92
222,274,126,152,83,62,95,98
205,242,113,142,73,53,82,101
189,311,123,137,68,53,82,97
181,316,130,152,71,50,82,98
183,319,118,117,57,43,78,98
171,308,131,110,59,54,93,93
188,305,127,108,63,60,101,97
158,229,170,127,62,54,92,86
162,223,166,107,66,61,97,84
182,227,162,111,69,64,98,80
200,224,163,127,69,57,90,82
189,212,171,136,66,51,77,83
182,222,124,127,66,52,78,92
173,218,123,130,56,48,78,96
155,195,133,126,52,44,79,97
147,222,119,114,48,44,76,96
147,214,117,116,51,47,79,87
178,201,121,114,60,57,84,85
180,209,125,111,59,54,75,82
179,228,133,113,68,60,75,83
174,202,132,114,68,63,82,81
170,178,126,100,66,63,79,87
157,159,132,105,65,57,79,89
154,154,159,122,67,59,84,82
184,154,145,130,69,58,82,86
188,182,149,131,76,63,79,100
189,186,148,127,72,63,81,92
168,180,140,116,64,59,74,87
181,173,104,104,69,62,75,93
166,213,120,98,63,60,77,102
153,189,113,93,53,49,70,87
144,190,133,105,56,53,76,89
140,195,136,107,56,55,80,85
168,216,140,105,54,56,83,92
150,169,137,98,53,55,84,79
154,184,143,94,55,57,87,85
172,193,125,87,54,50,74,89
168,209,135,88,56,51,72,87
126,220,135,93,51,45,62,75
154,218,128,94,50,45,63,95
158,217,119,92,45,40,55,94
167,219,139,89,41,41,60,87
175,210,122,86,43,37,61,90
179,200,119,82,43,41,65,99
158,209,132,107,57,43,73,86
155,218,139,109,61,54,83,86
148,217,114,105,64,55,85,109
160,218,115,110,76,75,98,112
162,224,149,136,77,72,95,107
168,211,142,119,69,71,88,101
178,189,136,120,68,63,78,97
171,181,132,122,70,66,83,102
160,164,148,149,65,55,83,107
167,141,133,120,62,54,87,111
159,144,122,121,63,61,88,117
147,142,126,127,66,64,92,121
143,148,148,129,66,64,89,104
141,173,144,98,59,57,77,99
140,185,127,100,65,64,89,97
156,195,132,101,59,58,91,95
171,203,128,91,59,62,93,100
183,213,115,122,62,67,106,104
189,199,108,141,67,68,105,102
179,203,101,146,67,69,100,103
203,185,98,142,68,71,106,113
203,184,97,139,66,69,103,112
188,161,124,150,64,59,85,103
184,160,132,143,62,57,89,102
197,142,144,146,68,56,83,98
158,175,147,163,75,57,71,110
151,197,154,175,83,60,71,108
167,213,127,144,83,64,77,110
161,211,109,128,78,64,74,124
143,210,91,115,70,63,88,128
155,215,92,99,62,57,88,107
173,208,146,99,55,52,87,108
164,203,146,107,64,56,84,104
164,201,146,109,65,56,85,85
203,187,150,117,68,59,77,102
193,182,157,121,73,65,73,106
171,170,125,111,72,66,73,106
192,180,127,99,62,68,80,112
214,204,135,99,67,70,93,121
182,207,148,119,68,62,86,101
178,188,149,116,63,58,91,100
192,225,145,113,65,61,98,99
179,208,148,120,68,61,107,97
154,196,144,125,67,59,96,88
153,214,134,103,64,59,95,88
167,250,118,94,66,67,98,89
148,217,99,93,62,62,99,92
131,217,108,87,59,57,83,87
152,212,109,82,52,54,82,89
189,228,108,82,51,56,85,109
185,203,113,82,56,52,79,107
184,194,120,74,57,53,68,97
192,219,131,100,66,55,67,101
197,261,146,106,67,54,71,98
167,293,145,109,69,58,73,82
166,305,144,110,68,58,76,75
166,308,140,121,75,60,86,84
185,350,146,112,81,68,108,100
157,331,139,111,83,73,114,106
160,320,145,108,86,75,114,128
165,297,152,110,81,73,116,133
190,310,149,105,74,69,110,131
196,264,138,97,57,60,96,125
207,273,141,101,51,55,87,124
215,272,136,102,48,52,90,108
224,289,140,109,61,54,86,105
204,285,142,119,70,59,85,101
175,269,126,111,71,59,77,91
178,277,143,119,81,64,79,95
176,267,144,117,80,69,101,104
170,255,138,113,74,69,100,113
177,267,154,103,70,67,103,122
176,260,160,109,73,71,109,124
167,256,146,106,65,65,109,117
211,353,224,111,74,66,92,125
200,369,231,113,76,76,104,118
198,387,245,124,85,81,104,110
207,405,243,123,83,78,101,111
202,407,247,133,94,83,105,115
142,309,175,127,96,85,99,93
184,292,175,131,101,76,87,104
194,245,139,119,90,70,85,103
212,265,140,119,93,75,88,108
223,248,124,91,84,77,93,106
230,261,152,103,76,71,90,98
200,280,158,114,70,69,87,83
186,290,164,125,77,72,95,83
188,357,170,122,74,67,108,100
179,351,164,122,67,53,101,100
172,333,138,112,62,53,104,100
200,312,123,93,66,56,102,110
223,313,132,82,62,54,94,117
204,188,119,80,60,52,73,107
202,210,125,81,63,55,70,104
224,258,132,82,65,53,64,113
221,277,119,76,59,56,81,101
195,266,104,84,68,61,88,98
195,273,108,83,69,61,89,84
215,271,120,91,71,67,98,96
185,222,123,92,69,67,100,88
165,229,121,91,68,60,90,92
173,224,121,84,54,51,83,89
178,222,120,88,56,54,82,88
171,213,140,98,57,50,78,77
174,225,147,99,63,52,77,78
166,199,152,96,58,52,79,72
168,224,148,87,59,58,80,68
173,224,157,91,61,59,82,73
156,213,131,74,57,55,76,77
175,227,124,66,49,55,76,75
184,220,118,69,55,58,75,76
177,195,128,86,63,58,79,82
162,188,115,83,62,52,80,74
166,218,143,93,85,84,104,77
163,205,142,91,84,85,119,79
150,202,146,102,87,85,121,84
151,210,138,108,82,81,117,81
178,290,158,112,81,82,114,86
169,269,130,100,52,49,90,79
165,261,124,113,59,48,72,74
161,271,144,113,53,49,68,67
165,278,147,102,53,49,68,66
156,217,143,104,50,50,76,70
160,216,148,110,52,50,73,83
156,226,163,109,51,51,74,84
163,210,141,101,49,48,74,85
175,193,136,97,44,46,72,87
152,158,128,88,46,43,64,83
151,155,127,103,55,44,66,77
141,159,112,99,56,43,62,79
139,160,112,96,59,48,93,102
139,208,118,104,66,50,103,102
132,209,109,109,71,57,118,102
128,220,143,105,71,61,139,106
142,225,149,112,72,63,152,115
179,241,156,121,73,58,136,99
174,199,154,116,67,57,129,96
177,233,157,122,74,77,156,104
176,219,135,111,66,75,141,94
172,189,186,110,68,74,130,82
146,173,187,108,67,77,137,88
155,188,219,136,75,83,155,99
165,147,230,141,67,62,119,90
193,183,241,151,75,59,120,96
259,213,212,146,68,59,122,111
265,211,239,147,67,59,130,109
275,207,221,125,61,50,112,106
284,225,253,119,63,51,105,112
278,194,257,120,65,67,123,112
233,174,258,123,75,71,123,98
239,230,246,125,84,69,104,96
281,238,247,125,83,71,103,90
274,227,223,124,82,70,104,95
274,244,213,121,77,57,78,93
315,260,209,129,74,63,92,104
312,243,217,141,71,65,93,104
274,239,223,146,69,62,91,105
276,246,223,141,71,63,91,94
282,287,243,156,82,71,104,110
257,274,238,144,75,61,92,103
257,255,213,127,65,58,89,99
243,245,193,120,67,58,87,98
234,234,170,124,63,57,99,106
226,156,117,95,49,49,90,93
205,148,115,99,51,46,81,89
213,142,184,105,63,54,98,95
213,144,199,108,63,58,103,103
214,130,200,104,60,57,100,105
235,142,210,110,65,56,99,108
231,141,223,116,63,57,100,111
241,142,177,112,59,56,88,115
262,158,206,123,67,66,97,127
280,173,205,123,70,68,88,128
278,172,195,116,63,66,84,128
286,186,200,129,80,75,96,126
300,211,198,126,79,76,98,135
310,218,172,108,77,69,92,128
309,211,211,144,89,70,93,124
305,232,234,157,99,79,132,148
304,270,224,147,92,73,131,162
271,247,226,153,96,73,131,156
232,231,220,155,94,74,144,152
226,254,219,131,93,73,143,148
238,263,198,115,84,65,113,120
226,217,189,106,85,67,112,110
219,221,201,103,79,66,128,119
225,227,211,106,75,60,112,114
257,230,170,93,65,66,117,113
235,200,162,94,68,67,119,116
229,216,156,96,60,62,121,116
241,258,177,95,60,62,102,100
256,304,155,99,67,62,94,111
233,283,154,102,65,56,92,115
248,298,160,102,65,54,95,129
292,287,176,114,64,53,88,124
296,270,139,114,68,59,100,128
315,243,140,107,68,67,128,124
314,255,178,133,76,73,130,119
320,236,189,137,75,71,125,105
348,300,181,127,79,80,136,108
376,318,203,142,76,75,138,105
377,310,213,145,73,69,123,101
373,316,236,129,74,67,124,106
377,359,221,125,82,83,134,99
313,309,223,124,80,76,122,94
316,283,203,121,84,91,144,117
322,273,191,126,84,92,140,116
339,290,130,121,74,90,144,126
323,305,144,126,73,94,156,152
328,329,153,138,77,98,167,159
364,369,173,134,74,84,138,147
330,372,183,133,72,81,135,147
324,378,176,137,86,93,144,138
408,406,166,137,80,77,128,124
443,408,171,238,116,80,115,135
400,378,169,338,153,89,129,140
420,398,197,401,185,101,136,149
418,380,192,414,184,92,127,173
357,312,192,419,188,91,117,165
395,294,169,377,169,91,121,166
414,286,156,313,147,92,122,172
436,271,111,246,108,80,113,174
483,259,119,223,102,78,100,156
483,255,113,210,96,81,103,163
416,246,127,205,95,75,95,142
388,238,114,167,75,59,85,123
374,218,120,211,91,63,91,113
353,230,121,220,95,62,100,115
352,214,132,220,93,57,97,104
374,213,126,240,96,57,98,124
383,273,123,236,97,69,116,125
379,285,123,185,82,67,112,132
340,302,126,171,73,63,104,124
330,352,130,183,74,64,105,133
309,375,131,145,69,66,116,124
279,327,137,172,78,53,88,120
242,350,129,213,84,50,86,108
247,346,135,274,98,60,89,106
251,306,137,282,106,67,100,117
257,284,133,285,110,67,85,110
271,328,152,294,112,68,82,113
318,303,146,273,106,67,86,125
365,299,139,244,98,64,84,142
475,334,141,246,91,60,82,162
518,339,141,246,86,57,93,185
565,305,118,219,86,70,113,246
570,305,128,217,83,69,112,252
543,288,119,191,77,65,112,250
433,252,110,173,78,65,110,232
443,232,107,180,75,65,105,233
396,237,104,193,63,55,95,174
372,246,101,184,70,59,96,170
399,261,115,212,79,62,105,164
452,291,121,211,77,57,98,164
429,327,128,203,92,71,111,148
408,313,147,254,108,83,134,190
407,289,139,246,105,81,132,182
449,370,147,222,101,82,137,182
421,335,137,220,98,83,138,176
385,305,131,227,89,77,131,179
420,307,117,164,74,67,103,127
442,343,127,186,80,68,106,130
402,267,117,197,81,63,87,118
392,257,126,201,86,63,86,121
387,249,124,193,84,57,71,97
353,266,115,181,75,48,68,111
329,238,123,175,77,52,63,112
284,196,113,157,75,61,90,134
271,204,101,159,68,61,92,136
269,208,97,163,62,64,104,141
277,191,100,175,62,65,111,132
266,190,86,161,52,62,113,128
277,233,87,166,49,54,97,122
272,249,88,178,61,52,93,124
277,253,110,177,68,46,81,127
286,256,112,186,73,43,70,124
279,250,111,180,73,43,69,128
286,228,112,182,78,46,67,117
291,197,117,166,72,47,70,116
335,193,104,178,75,54,88,127
324,236,103,164,75,56,85,128
326,243,108,180,81,57,83,136
310,226,112,194,89,54,84,137
310,238,114,195,96,60,89,142
249,252,107,181,91,52,77,126
250,217,110,210,105,60,95,133
224,213,102,205,101,59,107,149
210,228,96,190,91,65,119,156
249,230,85,188,82,59,116,163
257,207,86,188,83,60,113,160
256,195,81,190,66,58,114,173
266,176,86,190,69,59,100,158
291,236,91,183,70,54,95,152
253,235,99,182,77,60,106,133
256,243,99,176,76,60,104,133
248,253,109,135,72,55,94,113
273,272,108,129,63,55,104,101
255,214,103,135,62,55,102,107
266,250,111,138,58,53,96,113
264,263,116,150,59,57,117,130
262,254,106,182,67,55,113,118
248,277,107,204,71,55,105,122
232,337,131,201,73,61,103,110
238,318,128,208,76,56,108,110
235,305,136,210,92,65,95,116
248,342,139,194,94,73,109,129
258,311,141,172,97,82,129,141
256,239,118,181,92,80,147,144
244,224,108,181,95,84,149,139
241,238,94,174,79,74,144,123
222,184,89,152,74,70,137,110
183,177,77,154,69,58,120,104
200,172,76,145,81,65,117,100
220,192,89,144,74,60,109,107
218,171,98,156,78,61,114,104
224,165,94,167,81,58,111,112
244,191,116,183,87,64,117,98
249,190,115,182,80,53,96,100
228,187,122,169,78,52,89,86
219,183,117,177,75,50,84,102
224,192,123,174,76,55,88,109
215,186,113,146,69,56,99,113
199,212,117,141,63,53,93,110
189,229,106,135,62,61,107,121
216,227,105,128,61,62,112,111
218,224,106,138,58,58,111,106
247,213,102,158,59,50,94,113
271,244,137,201,84,65,115,142
291,261,151,211,88,67,114,142
296,324,168,198,92,71,120,152
293,325,164,200,95,71,116,153
255,330,162,184,94,70,112,141
224,316,132,137,81,63,95,115
196,278,117,136,81,59,88,118
190,202,91,165,82,53,81,116
193,194,86,153,74,59,83,110
208,186,101,206,92,62,91,112
233,211,111,208,91,60,90,115
258,215,106,201,86,56,81,112
240,222,103,181,85,56,77,114
234,228,107,192,89,51,78,120
260,253,96,170,75,46,78,128
250,222,83,165,71,45,85,139
229,229,85,175,75,50,93,136
242,229,83,183,72,50,90,140
251,234,82,173,69,52,93,136
244,211,80,161,73,60,107,143
237,201,76,162,72,59,114,130
232,217,73,152,70,56,117,133
267,221,75,138,68,58,116,116
272,220,74,158,74,63,125,135
248,220,72,151,70,55,111,119
245,225,73,154,78,59,94,120
278,231,77,163,80,57,85,125
247,237,94,168,80,59,100,132
235,236,98,149,75,51,83,106
256,233,107,195,74,50,78,113
257,250,123,204,75,50,84,109
223,224,116,200,74,52,84,92
218,220,106,200,73,52,68,82
218,220,113,199,70,56,79,104
186,225,109,154,66,57,89,99
189,202,106,165,65,53,88,95
207,216,120,177,73,55,89,100
201,212,117,176,78,50,86,97
208,205,110,195,95,55,91,87
235,191,102,189,103,56,83,101
250,208,90,167,98,57,82,104
257,229,79,150,92,55,81,114
254,243,81,141,87,56,86,113
254,242,78,121,73,53,96,119
268,246,83,125,70,57,104,115
264,239,83,127,72,56,109,119
241,214,77,126,69,57,107,110
271,205,88,135,70,59,130,117
254,212,90,137,67,69,164,112
208,231,89,124,58,70,169,100
185,223,92,128,60,67,169,91
192,218,105,146,60,68,172,85
163,200,95,141,64,70,154,81
172,209,104,149,74,62,108,82
185,185,105,163,77,61,102,85
193,174,108,164,74,65,107,85
249,181,96,155,78,68,108,91
237,186,99,162,82,64,110,87
268,189,101,150,73,63,113,89
275,202,108,167,76,59,105,93
275,195,102,170,82,57,94,94
239,173,111,170,84,66,110,95
243,181,123,196,84,72,119,106
215,159,114,198,80,67,111,93
212,178,118,185,81,70,112,95
219,242,129,196,86,69,112,93
207,257,124,219,92,56,91,88
203,250,128,252,108,45,79,84
197,261,128,253,114,50,73,87
203,294,123,240,108,45,74,87
204,254,113,265,116,52,88,97
200,240,115,266,120,58,94,98
210,249,105,220,105,60,101,101
205,247,105,218,100,58,101,107
186,191,102,221,102,64,108,99
175,188,95,171,80,57,96,94
172,217,85,130,61,55,105,96
173,218,96,135,59,54,105,96
192,210,96,131,64,57,106,94
195,199,93,135,69,51,95,93
205,211,96,136,70,51,96,97
228,186,101,145,78,56,88,101
250,204,84,120,76,56,78,95
236,206,98,138,80,54,87,90
234,229,93,128,74,54,88,91
226,215,92,133,76,58,93,85
208,228,101,141,72,53,86,80
186,238,121,162,82,58,91,79
185,244,115,160,76,56,84,73
185,242,117,166,82,58,87,83
174,240,116,163,79,56,89,86
188,227,104,145,73,54,92,97
194,235,83,134,60,49,101,111
202,231,80,136,58,46,97,114
214,217,79,148,51,43,92,111
227,219,83,151,52,42,94,112
209,226,79,157,56,42,88,103
194,188,76,163,60,40,67,87
192,180,66,186,60,40,74,82
189,205,69,179,66,43,79,78
190,221,79,178,68,44,76,75
198,209,84,204,74,53,102,86
207,197,96,211,83,57,106,83
198,196,106,196,88,57,99,82
212,191,110,205,85,58,98,102
226,182,100,205,94,70,120,124
217,184,102,174,90,66,105,116
204,188,96,153,82,61,100,120
232,224,103,138,79,64,106,130
230,222,109,135,83,66,108,117
213,207,109,141,80,59,85,96
209,209,113,152,81,61,90,93
219,223,119,157,81,65,94,94
210,193,113,164,78,62,89,81
205,265,118,154,79,58,85,82
196,277,118,148,71,52,84,80
214,282,117,149,68,48,76,87
203,273,107,138,65,44,73,81
205,267,95,112,63,45,80,89
201,185,80,103,52,42,78,92
210,176,94,105,54,49,85,89
215,192,94,103,59,53,89,94
207,186,104,149,64,55,96,100
202,214,116,196,75,55,94,100
191,266,130,212,85,64,105,99
212,292,120,209,86,63,111,121
201,276,121,213,82,59,106,116
238,318,120,200,80,60,104,115
238,315,111,160,72,64,122,111
246,267,89,143,61,60,118,113
232,272,99,156,62,56,102,108
228,279,101,151,59,59,106,108
222,233,89,138,59,60,110,103
210,229,88,154,63,60,97,98
239,227,90,181,80,64,100,105
248,182,78,176,85,71,112,108
242,160,65,170,85,66,109,117
216,220,87,181,92,69,107,122
225,224,96,168,87,62,96,124
202,234,98,158,84,62,94,115
207,248,103,152,75,54,79,97
221,259,105,150,74,55,75,82
226,216,103,160,84,53,76,87
230,207,102,165,90,55,77,97
219,200,100,150,79,46,71,99
226,200,96,148,81,48,78,102
214,217,114,181,106,67,101,105
212,204,102,162,92,66,102,108
212,203,101,167,87,66,108,100
214,206,104,168,89,67,109,101
189,186,105,172,88,65,109,97
197,192,112,139,58,50,97,104
205,193,115,131,57,51,100,103
213,204,121,133,70,54,101,107
206,200,118,143,74,56,100,109
204,192,119,140,73,54,97,114
199,177,117,156,81,58,98,108
204,236,130,177,94,60,105,106
179,225,129,166,84,58,125,103
221,237,129,161,83,68,128,107
232,272,128,162,85,76,141,113
249,290,119,170,78,76,147,109
262,259,101,146,64,75,138,105
264,259,91,146,66,77,116,101
238,261,115,167,86,79,114,106
226,240,114,167,85,72,97,97
237,216,106,144,82,70,84,104
208,208,107,142,87,76,94,104
210,207,118,152,90,81,109,115
210,192,108,164,71,72,113,114
208,293,114,176,81,78,121,115
178,296,112,191,87,77,121,106
214,298,112,198,90,78,128,116
218,299,104,197,83,68,115,105
220,338,110,168,83,67,114,105
223,252,112,153,75,61,106,98
260,306,138,157,79,64,108,110
236,300,144,155,73,55,87,93
233,313,148,169,78,59,97,92
218,269,150,191,94,63,100,99
235,276,149,209,101,66,100,117
188,212,133,211,96,60,93,110
201,234,136,214,95,62,93,115
202,238,133,197,98,62,98,119
231,236,122,199,92,59,92,105
229,278,122,185,85,58,93,93
241,289,120,169,84,68,111,96
258,271,113,162,82,68,108,102
279,252,108,157,76,69,112,108
264,300,102,138,63,68,118,108
281,271,91,135,66,71,120,116
272,305,97,145,67,60,104,118
252,303,101,158,74,57,114,115
269,363,105,172,79,57,116,111
282,337,103,169,86,56,106,117
251,345,120,180,85,52,103,105
264,322,122,186,92,63,125,117
294,323,115,190,92,76,137,133
253,268,122,190,95,79,132,133
268,270,141,189,94,81,132,128
265,240,130,189,89,80,133,129
249,203,128,189,81,72,120,113
221,212,133,185,76,60,101,89
235,224,151,206,86,61,108,101
204,210,150,229,104,66,119,104
212,220,170,281,118,70,143,111
222,221,175,295,121,72,143,121
212,239,174,304,121,74,148,123
246,211,150,296,112,77,162,131
263,242,142,284,91,75,161,135
279,265,132,234,79,71,147,138
303,279,128,209,87,80,160,159
329,259,132,193,89,85,164,167
340,288,151,205,107,80,144,150
351,281,156,208,112,80,144,163
356,258,141,200,110,83,142,158
346,265,144,197,98,73,126,136
329,298,153,198,98,66,112,130
297,280,141,193,75,60,104,129
317,260,133,183,77,63,103,129
300,262,139,179,75,59,106,133
286,238,129,183,82,58,103,129
290,220,121,184,82,56,101,124
273,212,133,209,102,66,115,152
221,218,138,219,112,73,133,153
275,221,136,243,122,77,130,170
303,285,169,256,125,83,133,184
311,320,177,256,127,93,149,190
361,365,217,236,120,92,137,176
374,357,215,219,103,83,120,169
336,359,224,198,93,77,116,145
320,356,212,198,94,75,118,127
314,326,208,203,98,70,106,125
282,308,158,188,89,63,106,116
271,369,181,236,109,64,97,96
281,365,170,240,111,75,105,104
276,329,161,244,108,73,93,104
255,320,152,232,103,66,82,99
223,301,170,232,107,67,81,100
212,237,145,192,86,66,95,101
227,223,141,178,88,63,97,98
223,277,145,139,86,68,111,106
254,382,204,168,96,76,123,122
252,370,184,157,93,76,125,120
256,366,181,142,93,74,119,144
238,398,195,164,97,71,113,143
247,389,199,198,95,64,105,141
219,276,146,198,93,63,104,127
225,274,156,221,98,63,108,144
236,340,174,233,104,65,109,139
247,351,193,229,106,69,109,152
270,360,206,202,103,69,111,147
279,375,199,206,93,62,109,144
279,372,191,191,86,58,103,131
276,303,172,190,85,58,104,131
255,261,139,186,74,47,110,115
211,264,130,217,86,48,105,122
208,252,134,199,94,59,101,135
237,266,145,196,95,61,100,150
214,267,150,207,96,59,93,134
220,270,151,214,101,62,79,133
251,247,152,226,111,65,81,136
238,291,176,230,102,51,79,126
223,290,168,241,106,59,88,107
220,295,168,231,97,57,90,110
225,307,170,225,97,63,110,107
202,345,175,185,81,66,111,96
202,330,170,195,88,68,109,101
197,330,177,182,81,63,100,97
192,332,172,177,81,67,105,91
193,347,169,177,81,67,91,94
176,283,145,205,77,63,102,99
182,259,113,188,74,66,118,105
187,295,117,209,93,70,116,106
187,297,115,204,96,66,109,109
198,276,113,200,99,71,130,131
223,274,96,172,101,70,126,128
242,276,102,163,97,66,114,126
239,267,112,126,83,67,119,136
250,272,125,124,83,73,129,159
226,240,121,120,72,62,113,145
258,254,143,188,81,65,107,148
302,272,159,204,100,79,114,171
321,258,139,205,96,75,118,161
327,257,129,205,93,68,107,148
354,275,125,211,100,73,115,142
362,258,102,147,85,66,112,145
320,240,79,151,73,51,99,106
304,204,89,153,73,50,98,113
293,188,95,172,84,55,103,106
254,165,100,176,84,56,84,102
248,217,113,206,91,57,83,92
239,224,118,213,91,56,85,100
222,238,126,213,97,61,84,98
229,238,125,200,88,59,84,103
237,235,120,201,83,51,82,108
172,213,109,174,81,51,83,106
189,194,96,148,72,52,82,105
199,184,81,156,66,46,81,111
206,208,80,152,71,48,90,113
205,212,85,163,77,49,92,110
195,194,87,171,73,50,89,109
196,221,92,165,74,57,106,107
192,218,84,142,70,63,114,98
196,230,93,152,66,61,102,97
237,262,98,139,76,70,108,105
248,261,97,221,87,74,118,106
241,235,98,244,101,75,119,146
243,249,112,278,116,72,108,147
222,254,131,304,138,81,110,139
198,219,132,324,136,78,106,138
190,212,131,269,129,75,102,135
196,233,126,267,115,69,97,102
178,225,118,250,106,67,93,95
188,193,88,221,74,56,95,94
167,196,82,192,60,48,94,91
176,196,90,218,83,53,95,106
166,181,113,200,86,50,84,102
185,195,127,223,96,52,85,109
190,204,129,220,100,63,119,120
204,203,138,224,105,69,129,119
238,225,135,202,90,63,127,107
251,231,122,205,92,67,131,119
254,226,108,172,81,67,131,123
245,204,130,292,114,60,104,112
264,299,159,312,125,60,86,110
246,303,163,316,127,63,81,114
231,290,160,316,123,60,69,97
226,286,165,335,137,79,87,97
238,291,151,276,125,83,92,98
219,242,124,248,111,80,94,101
206,231,120,247,113,81,100,107
225,230,121,258,116,82,105,118
210,223,110,227,95,66,94,107
218,321,134,217,93,65,98,125
199,283,123,224,102,70,100,125
209,279,121,239,110,71,98,130
217,301,141,255,117,70,109,125
231,324,147,254,118,72,118,128
246,272,128,215,107,67,111,128
253,268,126,216,101,64,107,133
244,280,132,233,88,76,149,147
219,273,111,212,75,81,157,145
212,258,106,207,79,84,152,145
187,208,96,208,73,79,151,135
233,228,92,199,69,82,158,144
233,213,90,166,72,71,125,119
346,243,100,162,80,68,105,161
361,244,106,225,98,67,107,167
361,242,106,231,98,67,102,170
345,248,111,233,97,63,98,160
353,256,103,242,93,56,84,162
256,229,86,228,87,53,79,117
240,234,86,205,64,49,94,119
263,287,90,200,63,48,94,112
253,269,85,206,72,53,90,106
265,260,83,178,68,53,89,111
266,242,96,202,73,52,91,115
280,230,87,181,70,46,71,107
264,173,80,183,72,48,74,108
261,179,84,188,69,39,71,113
246,166,94,197,78,53,98,113
227,158,80,185,76,66,113,112
225,160,81,187,78,69,113,125
244,224,91,209,81,72,120,155
232,227,88,245,81,73,122,154
288,235,84,267,84,86,154,169
307,242,90,275,88,77,144,172
292,242,89,265,83,74,142,169
264,188,88,251,78,69,135,142
278,181,87,199,79,72,142,142
221,217,92,184,74,48,97,122
202,250,99,177,74,47,98,123
220,262,98,173,74,49,100,117
264,268,105,169,77,64,126,130
270,264,102,169,69,58,120,125
280,238,101,180,76,56,115,127
316,215,92,168,73,57,112,119
308,193,98,171,81,62,116,124
284,166,91,192,80,49,94,126
295,185,94,190,82,53,99,128
279,201,106,185,88,56,92,115
260,215,112,188,92,64,105,138
278,215,105,185,87,62,102,152
268,231,129,221,108,70,99,140
271,241,132,240,116,73,100,155
284,222,117,218,103,72,107,160
263,202,116,246,109,67,100,138
237,202,115,250,111,69,99,121
266,211,84,201,92,61,95,129
256,216,82,191,86,54,92,106
265,214,83,201,87,61,101,117
286,243,80,170,80,61,99,127
285,241,86,183,89,56,97,123
274,212,85,249,96,57,98,114
258,181,78,239,90,59,92,119
233,186,77,235,90,52,76,114
208,126,83,300,97,50,77,108
211,126,88,316,98,50,81,101
222,157,92,271,90,50,82,108
241,167,92,272,92,53,97,136
244,174,106,285,107,57,96,132
267,175,100,237,96,57,117,134
270,194,101,206,87,65,129,135
252,194,103,201,88,67,127,128
240,193,114,245,99,66,120,112
245,184,103,239,87,61,118,111
258,224,112,216,89,66,97,114
281,213,112,216,96,69,90,118
309,197,119,281,116,73,91,133
326,204,113,263,115,76,92,117
312,212,115,251,112,79,103,114
296,190,110,246,108,72,103,119
272,242,105,243,102,66,99,130
230,248,87,155,74,57,98,122
201,232,89,133,58,53,95,121
236,236,94,151,58,52,95,127
218,244,93,150,62,54,95,112
225,197,102,173,80,57,102,111
271,185,111,213,110,70,113,127
264,203,130,220,118,70,113,137
264,194,126,213,122,73,110,135
279,162,141,249,125,72,110,137
287,171,136,233,112,70,100,134
237,215,144,241,104,64,105,109
313,250,129,235,102,69,115,129
299,255,126,226,97,65,114,137
296,269,111,206,99,71,130,155
297,272,118,223,107,87,159,162
309,259,109,185,90,88,155,165
248,233,114,190,88,82,147,155
259,228,114,216,92,82,145,153
239,211,115,204,84,75,132,132
227,217,102,192,81,61,102,123
226,226,100,193,82,52,91,122
230,212,93,198,79,52,89,106
210,210,90,178,74,51,93,90
226,227,86,172,79,54,88,106
222,228,90,178,71,45,76,104
205,212,87,178,77,53,87,116
201,244,93,153,73,54,84,119
195,267,101,152,76,67,95,117
192,270,111,164,80,67,94,106
196,253,113,160,81,68,92,104
212,257,115,149,71,65,83,94
225,264,113,161,81,73,95,99
242,246,117,167,83,63,84,107
243,237,108,158,81,63,88,125
246,240,103,149,78,64,95,129
266,244,115,173,84,65,97,155
236,219,107,177,79,55,97,154
227,206,95,165,71,56,91,158
218,200,89,158,64,53,87,141
209,202,106,156,65,53,82,134
198,180,93,130,57,49,77,96
198,145,89,106,48,48,65,84
213,169,96,114,61,57,92,73
237,177,95,122,62,58,89,77
243,163,82,126,62,58,100,70
260,311,128,142,71,64,100,74
263,330,137,162,73,62,98,91
242,319,141,179,69,50,68,88
222,315,145,179,68,51,72,95
238,329,143,179,71,53,71,98
219,208,104,188,61,42,69,100
225,207,105,178,65,44,69,83
235,231,97,155,64,50,75,84
234,225,95,149,72,52,80,81
203,205,93,162,69,51,76,88
185,192,101,141,71,54,87,93
193,175,106,168,78,54,87,91
186,149,115,201,82,47,89,92
177,152,118,209,87,54,101,106
179,174,121,197,97,58,96,95
155,167,116,226,106,59,88,87
156,153,105,242,114,64,93,87
148,181,120,278,126,70,113,99
198,224,119,286,120,63,101,79
207,215,115,288,112,56,101,82
215,239,119,276,103,59,126,107
202,267,121,250,91,56,125,108
213,250,94,188,66,55,109,105
172,214,90,177,65,57,110,109
172,230,97,175,72,70,121,118
185,213,92,166,69,68,124,103
191,182,90,180,73,70,135,108
205,175,91,175,75,67,132,109
202,180,102,179,70,66,133,108
195,146,95,177,60,56,130,107
183,165,93,164,63,57,106,108
191,199,95,133,55,55,94,108
196,262,101,123,53,56,94,116
226,306,99,113,59,54,85,115
224,308,110,137,63,52,75,106
228,296,107,159,71,49,72,98
232,300,115,172,75,45,68,102
213,256,118,196,83,52,79,99
215,259,123,216,83,57,96,104
230,271,115,246,85,56,97,116
222,272,121,240,82,55,94,126
219,259,110,231,74,54,96,126
243,266,110,234,78,53,97,121
231,205,111,244,79,51,91,114
232,194,113,202,79,59,104,108
238,212,111,194,75,60,107,101
253,237,120,195,80,67,113,105
224,220,107,168,68,64,110,95
204,231,104,138,71,66,106,108
195,239,100,132,68,61,95,103
196,221,94,151,71,60,97,106
163,185,91,166,79,63,101,105
165,202,99,178,87,66,97,107
159,220,96,175,86,63,97,100
156,220,110,187,91,68,96,107
143,236,109,183,90,70,96,98
183,241,106,175,82,63,88,102
182,260,112,163,74,60,90,105
190,233,110,172,71,57,87,101
187,222,99,183,73,57,87,94
206,226,110,176,71,53,88,98
184,221,109,179,70,47,78,92
198,213,98,174,66,43,80,89
234,226,106,177,73,59,128,98
255,244,116,185,76,56,125,105
250,229,112,195,80,56,122,121
248,226,114,198,82,57,130,115
246,224,113,199,86,62,132,122
215,211,105,178,77,50,90,124
196,208,98,145,65,46,90,120
203,232,97,145,69,53,95,105
196,222,103,188,84,60,98,115
208,213,114,221,85,57,90,110
247,232,120,235,93,59,90,117
262,218,122,244,98,61,92,150
296,293,122,243,96,59,83,155
291,311,118,212,89,53,66,152
273,297,109,179,85,53,64,150
232,290,103,158,77,50,72,137
223,298,112,155,82,55,97,104
176,206,144,185,93,65,110,122
186,201,142,184,91,68,123,129
207,218,145,189,91,71,132,129
207,225,142,184,94,75,131,127
201,219,133,177,86,70,116,129
196,224,103,144,81,59,108,111
193,225,125,148,79,57,98,102
170,227,143,153,80,56,93,118
180,214,146,155,75,50,94,126
216,217,149,147,76,56,123,131
200,196,141,134,63,58,126,125
198,199,121,124,59,57,124,123
222,200,104,110,60,58,126,114
262,221,110,115,64,63,131,119
218,220,111,127,61,56,112,111
220,255,134,202,80,53,104,108
250,254,135,203,82,52,110,115
231,245,127,207,81,46,109,110
181,221,123,215,81,53,111,105
192,220,122,223,78,52,98,105
193,184,98,160,66,54,100,107
144,169,110,187,66,53,95,98
170,177,117,187,75,59,91,100
167,172,110,174,71,47,68,94
159,179,107,157,74,47,68,90
156,188,112,162,71,47,80,107
178,212,110,143,74,52,86,117
160,256,127,136,66,46,85,110
157,260,134,148,70,46,85,109
180,256,128,142,70,48,91,109
208,285,140,161,101,60,96,113
187,266,136,143,99,56,88,101
215,299,126,156,102,62,108,119
222,298,121,158,101,66,112,126
206,309,128,165,103,64,114,136
176,280,108,154,70,53,100,121
197,270,108,157,74,55,116,125
164,174,94,179,70,49,103,126
208,227,112,188,76,50,108,144
234,220,116,194,79,56,104,144
278,219,133,230,106,59,109,167
272,218,139,249,105,62,103,166
278,238,139,236,107,62,96,159
273,270,155,243,110,62,93,155
280,258,149,240,104,57,92,149
274,256,153,224,87,61,109,142
305,274,144,213,84,59,105,150
304,287,156,208,92,63,107,149
297,236,140,198,89,63,111,136
279,246,153,214,101,69,122,135
276,255,152,220,105,66,116,122
240,243,160,229,109,67,116,116
232,211,151,242,101,67,119,120
208,204,163,249,102,67,118,125
209,221,149,238,94,63,108,130
166,271,144,205,85,61,95,122
163,305,154,189,83,59,89,120
208,332,176,210,116,70,103,124
219,340,179,207,111,72,128,132
221,327,186,201,111,74,140,137
229,282,196,215,118,78,145,141
265,271,192,220,126,89,155,141
271,318,201,223,114,83,145,141
274,294,186,215,116,79,122,127
265,291,180,218,118,85,119,119
271,378,174,203,112,88,120,126
277,380,174,194,107,83,116,121
237,314,138,170,88,78,115,116
225,321,134,163,84,78,114,124
228,351,146,169,81,70,103,125
232,291,146,178,85,65,100,136
211,283,144,190,79,56,93,139
226,283,142,200,86,56,96,141
228,306,153,207,91,58,90,133
242,278,144,197,88,54,87,128
224,282,146,192,89,66,99,122
252,276,146,179,88,67,95,132
258,294,152,136,80,65,91,124
376,290,143,118,81,69,101,136
497,292,146,136,94,80,131,162
525,266,141,149,94,70,124,158
541,270,137,187,98,69,130,157
545,256,140,189,98,72,130,164
516,264,139,185,91,67,129,163
396,248,133,171,80,55,111,140
383,247,114,166,67,48,104,138
374,302,156,144,66,54,104,142
367,311,154,153,70,52,102,134
356,300,153,153,70,51,90,129
381,334,166,154,69,51,88,130
355,316,175,170,79,56,89,123
319,255,142,151,74,52,81,108
360,327,164,156,79,57,85,123
310,321,172,171,87,60,106,146
289,320,178,198,89,63,104,148
293,337,177,198,89,71,126,159
281,345,174,198,87,74,135,172
229,271,155,202,88,72,137,166
221,267,145,211,88,69,125,140
231,231,133,216,92,69,117,136
230,243,136,208,91,68,103,132
270,235,132,211,91,65,100,119
264,262,144,196,85,62,92,119
310,280,150,178,81,63,87,118
341,309,141,151,77,64,97,124
350,293,128,130,65,59,101,115
334,350,144,155,79,60,99,118
355,341,132,169,82,60,103,112
344,348,135,166,79,58,105,115
301,329,135,181,77,55,107,127
301,345,145,218,93,58,111,130
315,347,155,197,83,61,115,148
339,335,165,185,79,66,116,153
337,435,187,197,91,72,122,159
367,512,210,176,90,74,127,163
384,543,219,139,79,68,110,173
385,567,228,144,83,73,112,175
376,616,265,152,85,75,113,203
389,559,265,141,83,78,109,210
388,639,337,175,99,90,116,212
375,641,351,192,109,94,124,217
375,620,435,237,120,99,122,211
353,575,436,241,122,100,128,186
347,595,433,244,121,106,199,226
402,524,414,229,116,102,203,236
419,491,419,219,120,103,202,240
400,469,326,163,111,95,203,233
393,541,330,184,130,109,209,236
385,526,358,239,149,105,146,191
292,480,331,239,152,104,138,167
280,509,311,233,147,108,143,151
392,505,301,257,146,110,157,180
397,420,261,232,132,96,150,176
386,388,223,178,111,89,148,177
400,402,213,167,105,86,139,178
392,377,222,175,98,77,132,177
272,371,237,181,103,70,103,149
259,407,270,208,118,80,106,168
274,439,263,200,111,85,134,179
253,417,258,203,109,81,147,192
241,444,269,205,108,79,144,188
233,432,257,179,101,77,145,185
242,407,237,149,67,62,138,173
229,392,266,175,81,59,114,154
260,486,289,193,94,72,96,140
332,446,267,199,99,74,100,153
350,449,266,197,100,84,120,158
359,478,263,202,107,92,134,164
358,516,258,187,100,88,131,170
390,417,238,202,89,80,133,198
351,424,250,197,92,88,136,199
364,440,259,197,96,86,141,193
350,436,243,193,90,76,127,180
336,377,208,183,97,81,120,177
282,450,214,171,104,79,111,137
306,490,238,195,110,74,110,116
329,481,234,192,109,69,78,123
350,454,247,197,114,73,80,123
354,436,246,196,106,65,83,114
347,372,233,204,103,74,120,131
305,316,202,189,95,73,115,132
280,304,190,187,90,71,115,134
261,355,182,207,98,74,112,135
252,364,192,232,109,77,116,137
257,307,168,217,99,66,78,113
255,309,146,202,92,65,88,126
213,320,173,209,96,70,104,118
233,259,160,199,95,75,123,115
237,305,183,235,132,77,119,107
243,337,209,259,160,92,119,120
262,375,265,284,184,111,145,115
277,395,288,332,208,114,141,115
249,437,318,359,218,114,139,128
276,405,302,328,203,114,138,131
256,395,287,300,184,107,142,119
223,371,254,314,181,92,119,107
248,360,229,282,170,94,130,129
271,313,192,240,155,87,113,118
297,337,199,231,145,86,114,129
296,315,195,234,144,83,114,130
293,270,166,192,115,74,103,129
300,241,139,159,102,62,90,119
307,332,172,219,133,80,102,135
255,304,186,291,164,89,111,130
277,379,214,321,190,97,116,140
301,403,229,328,197,99,118,152
265,408,229,323,189,97,106,141
224,329,203,298,168,84,93,130
240,348,189,243,141,73,92,137
246,358,185,216,112,70,105,140
233,370,181,201,98,69,118,153
276,366,179,207,108,67,122,171
279,396,173,178,104,71,137,171
269,388,160,165,104,77,136,173
255,339,137,155,96,67,115,166
265,352,154,178,115,73,104,146
219,347,155,183,112,73,104,135
236,329,170,201,122,73,84,133
235,363,196,204,123,67,80,135
230,345,202,219,135,74,80,135
219,328,204,212,130,76,83,141
226,345,209,216,131,84,82,140
199,334,192,217,129,83,101,140
251,314,181,206,124,88,122,153
241,296,157,181,109,80,123,154
284,283,163,195,111,81,125,166
280,270,164,192,107,81,125,157
291,263,183,211,119,90,118,155
254,224,175,223,122,87,90,130
253,239,200,257,136,95,105,133
181,196,181,275,151,89,104,106
185,198,177,287,170,86,100,106
199,233,165,268,169,84,98,127
190,246,172,268,168,82,99,135
206,254,158,240,165,87,97,131
251,284,153,190,146,90,91,144
243,275,145,174,135,90,98,149
227,259,148,173,121,79,93,129
222,291,152,187,129,80,102,120
218,277,140,186,120,68,100,123
227,384,169,197,120,65,107,170
232,384,169,178,105,66,106,168
248,379,171,179,100,65,109,172
271,415,155,159,89,69,114,181
259,413,149,154,100,80,106,173
240,311,105,135,101,85,95,119
240,333,141,155,114,91,102,136
223,325,139,142,116,89,98,129
228,302,172,148,116,89,91,123
253,298,174,142,107,82,89,137
232,297,173,135,97,75,93,136
230,277,160,133,88,62,85,133
244,299,156,142,103,85,113,134
220,256,112,142,105,84,116,138
222,290,126,157,113,85,123,140
227,267,129,167,117,84,118,145
233,272,115,149,108,85,114,135
227,248,115,148,94,71,99,146
264,333,153,141,98,78,98,139
246,324,161,145,89,73,90,123
271,328,158,135,85,73,99,131
266,330,154,135,89,80,112,131
269,344,164,121,86,77,109,117
245,272,129,109,72,69,112,126
240,251,107,97,76,71,115,135
206,265,105,105,79,70,110,125
202,259,122,106,79,68,104,132
219,243,100,117,81,70,102,140
206,241,105,130,83,63,93,127
215,277,110,118,76,62,95,127
219,267,123,114,73,61,92,115
213,260,105,117,68,53,83,103
177,246,105,111,64,44,81,110
163,208,106,104,62,43,79,110
164,146,99,116,72,49,73,106
153,141,86,119,75,54,78,115
181,151,102,122,81,59,81,123
183,176,132,136,86,65,80,110
194,197,144,135,89,65,81,107
185,216,152,128,84,68,83,101
211,235,162,121,85,69,91,117
192,227,155,121,87,67,95,114
194,222,140,122,96,69,101,110
187,233,134,123,97,69,97,121
189,229,131,121,92,64,96,125
178,218,138,120,91,64,92,114
180,228,146,115,90,69,88,113
181,232,162,92,76,65,84,127
172,199,156,82,69,68,109,124
188,194,149,85,68,65,103,123
172,233,158,104,73,70,110,128
187,245,181,118,72,66,107,140
191,255,166,121,69,67,113,143
218,295,166,117,67,64,92,140
202,295,168,112,69,66,99,141
247,268,154,109,77,63,93,145
255,294,132,91,75,66,99,142
256,278,147,96,79,65,90,130
238,250,157,102,78,65,89,130
242,297,163,105,78,63,86,159
203,309,148,87,67,61,76,157
183,271,131,84,63,57,68,148
183,267,115,94,64,59,76,149
189,260,135,96,65,58,86,152
197,222,129,95,68,61,84,116
255,252,148,108,64,58,95,123
263,301,154,112,65,57,96,124
253,306,151,100,69,55,91,119
273,322,126,102,68,53,81,117
267,306,128,108,67,48,77,115
210,258,113,97,68,44,66,89
201,221,113,98,71,47,67,92
201,217,112,104,64,42,64,89
169,193,119,100,67,45,80,91
222,217,122,100,66,45,83,110
239,304,145,102,69,54,87,128
234,284,149,106,69,54,99,140
250,304,146,98,68,53,97,146
246,298,129,101,65,53,85,141
223,306,129,95,65,58,91,131
198,220,105,97,64,51,86,125
221,234,95,91,64,46,65,99
211,221,126,103,70,51,78,108
212,222,129,103,71,52,76,124
193,211,129,101,69,54,74,137
197,206,131,93,63,54,77,133
186,186,135,91,60,57,85,137
196,177,107,96,57,52,76,127
207,218,111,100,64,62,87,120
208,251,130,108,67,57,84,108
206,248,127,116,78,58,83,107
217,311,145,129,88,65,95,125
207,309,149,115,87,69,103,125
225,297,158,119,82,63,93,115
235,268,156,116,82,64,94,110
247,337,173,111,76,64,92,106
230,290,157,101,66,58,78,84
237,297,153,111,64,55,74,86
221,280,140,107,60,49,77,87
231,263,119,107,64,48,73,86
216,166,94,109,66,46,73,81
228,151,90,101,69,50,90,120
219,160,112,104,77,55,88,132
222,171,121,101,79,57,88,130
203,193,133,97,71,56,84,128
249,216,143,96,71,61,97,149
242,216,151,103,72,62,93,125
247,221,135,87,63,59,91,116
250,260,126,77,63,58,93,120
235,276,111,78,66,58,100,123
178,255,97,77,66,56,93,101
178,257,78,69,56,48,83,97
168,251,111,99,65,51,88,92
148,235,118,103,64,49,84,89
180,273,123,114,69,54,90,92
207,294,118,114,72,55,97,114
226,312,125,115,72,56,92,112
232,302,101,89,64,52,83,114
223,278,94,85,61,54,96,116
213,219,92,75,68,63,109,115
195,218,112,79,63,59,107,97
162,186,109,89,69,58,107,91
153,179,102,90,71,60,116,81
164,179,102,89,72,55,106,84
174,174,100,91,67,43,93,96
189,161,84,85,66,44,91,99
189,167,90,77,68,45,91,99
199,172,92,80,72,46,77,102
209,167,103,83,73,47,79,98
231,219,127,101,78,48,62,90
218,217,141,105,78,48,54,86
227,224,139,117,75,48,54,92
235,235,140,116,70,43,56,87
223,235,134,119,76,47,55,93
180,190,110,96,63,46,66,85
180,195,92,100,64,49,66,77
176,181,80,84,59,53,104,72
159,187,81,87,64,56,105,82
157,219,99,92,59,56,111,86
186,226,102,97,65,57,110,93
187,212,95,91,62,55,113,93
179,218,97,101,72,55,87,94
183,224,126,114,80,64,92,93
206,213,110,110,88,69,87,95
200,210,111,109,85,69,86,89
201,210,117,121,99,81,98,92
229,205,114,118,99,83,93,92
222,213,97,108,95,76,88,92
214,220,106,115,91,69,89,82
215,212,104,112,92,71,86,83
210,205,100,94,82,66,80,82
206,210,109,93,82,67,93,90
218,182,92,92,85,70,100,87
211,177,94,96,82,72,106,100
219,239,112,105,81,68,111,106
218,242,113,114,79,59,107,108
205,244,112,113,76,56,98,103
195,260,119,105,67,53,91,104
189,245,133,98,63,54,91,109
176,224,119,87,64,56,86,100
178,258,130,85,68,60,86,95
157,258,127,79,62,55,83,94
154,243,130,86,65,59,83,89
151,239,105,89,67,59,79,82
129,201,101,109,62,56,81,90
137,257,88,107,61,60,107,99
145,264,91,108,63,65,113,100
181,256,85,106,58,59,114,117
186,270,110,97,58,55,109,103
190,280,109,78,67,56,108,97
221,250,105,73,67,50,85,99
253,258,103,76,70,51,86,108
228,270,104,79,67,50,86,95
261,297,79,84,67,53,88,108
267,284,80,86,60,52,89,109
242,243,91,101,66,56,86,106
204,247,97,101,64,58,84,94
230,238,100,100,65,59,82,96
185,202,99,100,64,64,95,87
166,206,101,96,73,79,116,97
162,198,101,88,63,75,117,92
161,160,102,88,60,69,115,87
131,241,116,93,64,74,117,80
138,261,113,90,65,74,118,89
151,262,113,88,59,61,99,78
157,267,106,80,57,59,92,79
199,271,103,86,71,60,88,90
217,227,78,80,70,60,95,103
214,205,80,82,74,55,79,98
214,194,76,91,85,64,87,107
207,200,97,108,101,73,95,109
179,221,101,107,97,73,93,102
148,218,116,109,99,72,91,94
149,218,125,113,96,73,96,89
144,238,129,112,85,62,86,89
158,244,117,112,71,53,82,84
152,221,107,115,74,51,89,86
165,205,92,112,68,47,85,90
183,206,92,107,67,44,92,95
206,249,108,104,69,51,104,91
201,268,126,86,63,50,101,90
205,278,134,80,51,50,100,92
194,278,140,89,64,58,109,87
188,282,138,95,67,60,97,82
161,259,129,98,61,54,85,80
167,218,126,103,62,55,85,88
211,245,122,102,65,58,90,95
209,249,121,97,52,48,72,93
214,239,127,95,52,47,73,94
210,209,125,96,61,53,84,96
197,201,111,93,64,51,89,90
137,158,113,93,64,46,80,76
131,179,103,117,78,51,90,78
120,187,92,122,87,59,96,76
144,215,89,116,83,57,88,68
178,222,102,115,80,55,83,75
177,239,99,113,79,56,92,78
180,229,101,90,72,56,98,81
190,219,98,88,62,46,90,81
191,195,100,86,60,43,86,83
170,201,97,89,62,47,94,74
173,170,95,93,62,49,101,73
189,138,106,95,76,67,105,77
175,189,123,89,76,75,119,84
150,186,127,93,77,75,119,82
154,212,131,89,74,76,119,85
181,223,136,86,74,74,107,94
173,233,133,83,54,63,104,91
166,221,114,82,49,54,87,81
171,232,114,84,46,53,84,79
181,211,105,90,62,56,86,86
158,207,99,93,64,56,98,83
157,197,94,86,60,51,97,95
162,165,104,99,64,48,96,95
191,171,97,93,63,48,96,97
176,153,97,86,53,45,86,92
173,146,95,80,52,46,78,87
174,150,91,80,55,42,63,64
203,231,115,123,71,47,64,68
188,216,114,132,79,49,65,66
213,233,110,131,75,46,67,69
212,235,106,132,72,47,61,66
216,234,108,136,75,58,76,78
207,172,69,80,56,58,81,81
203,177,77,71,53,59,90,89
180,190,91,77,64,65,99,95
186,188,98,85,68,62,98,95
180,195,100,93,65,50,85,86
168,194,108,102,67,51,83,89
172,190,98,98,63,47,79,99
175,174,84,95,66,48,83,91
178,182,83,90,65,50,85,92
194,191,90,79,65,53,90,118
201,170,82,72,65,50,93,118
210,200,92,75,69,56,96,108
207,243,92,75,58,46,80,109
207,244,97,82,64,53,86,121
188,240,93,81,62,54,84,98
188,240,90,84,65,58,76,93
163,210,84,82,59,53,73,91
195,199,116,90,61,57,84,95
193,192,112,83,56,48,82,82
194,204,109,86,60,48,85,84
184,227,109,82,56,42,86,81
194,229,111,88,60,48,91,83
170,189,75,78,69,54,90,82
166,202,82,79,68,55,88,86
168,179,82,78,66,56,82,82
180,150,90,84,69,62,89,86
177,146,84,77,66,57,85,83
160,150,89,84,59,52,79,87
159,201,112,88,58,54,75,77
178,216,115,87,57,54,83,81
161,228,116,85,61,53,83,78
153,240,127,92,72,56,86,85
173,228,126,83,68,53,83,88
192,163,104,79,70,59,91,92
231,259,104,76,70,61,101,94
247,285,105,68,63,56,95,101
258,310,97,64,52,54,92,95
250,330,97,81,59,59,97,89
239,339,102,91,68,70,111,93
188,266,100,100,73,68,98,95
169,237,95,106,73,69,101,82
157,197,93,105,77,70,101,92
149,200,116,98,76,70,99,90
159,219,113,86,66,54,79,85
175,252,126,83,62,53,76,85
171,247,124,81,64,57,82,90
172,266,128,82,57,56,77,78
184,254,113,85,56,52,89,92
178,239,113,94,55,51,90,92
161,238,95,86,52,49,96,91
168,242,92,81,47,42,88,101
168,211,81,85,53,47,90,110
151,198,84,77,57,58,96,96
154,211,79,66,58,59,95,101
170,196,94,69,62,61,90,102
186,214,102,73,65,64,95,96
187,219,112,72,62,62,93,86
188,219,103,71,55,53,76,85
225,279,111,71,53,53,81,117
220,278,104,72,53,57,91,118
209,280,108,71,55,58,87,120
213,294,105,71,57,58,94,128
226,314,112,84,59,56,98,133
182,262,111,85,64,57,94,106
181,242,105,84,66,54,89,108
174,219,97,82,62,50,90,101
184,229,116,77,60,51,85,98
185,201,123,68,64,59,85,100
175,171,114,64,61,58,91,97
190,192,124,71,59,62,104,91
207,202,129,75,62,71,125,102
189,167,114,84,65,72,125,100
177,212,101,79,61,68,123,93
182,220,107,92,70,72,125,90
207,226,110,106,94,83,122,100
198,212,112,119,91,76,100,99
200,233,132,117,89,71,95,99
201,214,134,121,87,68,92,99
204,217,132,116,85,66,77,101
149,207,123,101,58,48,72,100
170,222,122,89,59,48,71,109
179,201,99,84,60,55,81,109
179,174,91,76,60,56,81,111
180,186,100,88,56,57,91,119
195,182,102,97,63,57,81,113
167,177,101,102,74,64,91,96
181,187,109,106,78,61,86,94
177,203,114,121,80,62,92,91
184,190,110,120,78,61,91,84
171,184,126,118,73,64,106,85
172,192,121,110,65,56,104,91
175,244,110,104,59,55,103,94
179,229,103,87,55,55,106,95
176,227,97,74,55,56,111,106
174,222,78,66,55,56,109,100
216,210,76,67,55,56,107,101
209,172,95,72,57,55,112,119
209,186,101,84,66,56,109,120
201,190,103,83,64,53,96,102
229,186,97,82,71,59,93,103
191,194,115,88,79,67,89,95
175,169,102,92,80,67,84,70
176,175,98,83,72,67,86,90
195,163,98,81,73,67,90,99
165,169,100,77,62,57,80,102
160,156,84,101,58,49,80,106
176,225,99,98,68,63,94,108
201,292,113,100,71,61,96,111
179,301,113,101,73,64,89,102
200,312,117,107,75,63,88,103
198,315,117,91,71,61,88,106
190,271,103,89,57,45,75,107
174,216,91,86,53,43,73,96
186,228,100,87,54,50,97,111
158,214,96,83,48,49,104,116
156,220,108,83,49,48,102,111
148,217,102,83,48,48,101,103
133,191,96,85,56,53,98,93
131,206,91,84,52,39,74,88
164,315,113,96,58,42,71,76
172,311,100,86,56,45,75,76
173,314,104,88,62,52,76,75
187,312,103,90,57,48,75,78
198,285,98,89,57,51,77,73
228,203,87,83,60,56,85,92
224,213,96,95,72,63,106,97
222,202,115,106,91,82,141,104
209,205,127,104,91,85,141,104
191,210,134,115,97,88,143,104
133,174,124,113,93,85,138,90
172,196,131,102,85,80,128,109
181,200,115,88,63,56,92,110
210,198,106,94,65,52,90,112
240,246,118,106,68,53,102,117
235,241,121,111,69,52,99,113
220,208,105,112,67,54,94,87
216,202,101,111,65,52,90,87
206,196,101,105,62,53,94,92
203,206,95,76,51,48,83,95
201,240,106,60,47,49,85,100
189,244,103,49,44,45,78,101
181,247,111,42,41,45,75,95
159,271,145,53,48,43,68,92
181,253,207,80,54,48,67,88
180,218,211,85,55,46,64,85
176,219,219,90,58,45,62,91
190,221,219,90,56,42,57,93
198,217,203,88,54,45,72,90
161,186,174,78,51,40,72,87
180,197,172,82,53,41,78,97
183,198,165,83,55,47,82,92
175,201,166,88,58,49,82,94
186,235,161,94,57,50,68,92
170,233,119,98,57,49,61,88
144,229,99,96,58,48,53,86
142,220,93,94,54,41,45,84
140,236,100,99,55,40,47,77
125,246,122,100,53,43,80,87
160,257,119,91,56,49,103,100
170,260,121,93,62,57,110,92
181,288,123,92,61,57,110,90
205,282,121,94,64,59,110,103
207,229,112,87,64,60,107,101
183,205,116,82,61,59,92,89
181,201,114,77,52,49,87,95
191,210,111,84,55,51,89,106
179,207,102,80,57,55,93,98
193,200,80,74,57,53,84,95
205,232,66,76,58,49,75,94
206,283,151,85,63,60,96,103
193,255,160,86,66,62,98,95
185,261,163,77,59,61,100,96
154,262,178,79,60,61,92,92
141,257,205,87,61,63,92,93
160,207,162,74,55,54,70,80
211,233,161,65,52,51,71,102
214,232,180,74,56,49,64,112
229,238,180,83,58,49,66,114
224,217,156,75,60,56,91,110
211,251,152,79,62,57,96,111
181,220,148,86,64,61,101,100
173,237,124,85,64,61,103,86
178,264,112,76,61,62,107,88
177,264,98,73,55,58,96,91
214,220,106,73,59,58,96,95
229,268,108,70,62,58,93,115
238,244,108,67,61,57,90,115
223,217,98,70,59,53,86,114
225,219,105,75,64,51,80,117
184,218,98,81,66,57,84,115
153,209,108,83,66,59,88,87
180,213,106,83,71,62,94,93
181,203,103,79,69,64,93,92
198,215,104,83,69,64,98,100
209,227,98,75,66,62,94,102
202,204,97,76,66,58,88,107
184,210,100,77,62,57,93,105
192,247,109,80,69,57,96,113
197,237,105,77,64,56,98,108
227,250,111,75,60,49,92,103
232,265,106,74,59,51,94,99
229,262,109,74,58,48,88,96
223,258,102,72,56,48,88,87
230,262,103,68,59,47,79,91
217,254,100,73,62,56,93,110
223,224,91,70,60,55,91,110
213,214,86,66,62,55,86,109
221,242,104,74,62,60,89,115
208,254,103,73,62,60,88,109
177,237,97,79,68,60,74,88
153,228,92,74,64,59,82,86
165,270,113,88,64,59,85,90
157,226,116,82,59,53,77,80
137,214,120,83,58,54,81,78
152,225,135,83,58,57,96,99
168,268,141,84,61,61,93,107
158,229,149,91,61,59,89,112
162,247,153,94,63,58,88,113
207,254,155,101,73,61,95,135
205,267,148,100,75,58,107,147
197,246,162,106,80,55,101,142
199,244,142,94,81,55,103,138
219,215,166,93,84,66,121,147
175,196,173,90,75,63,119,125
183,179,170,84,67,63,102,92
184,195,157,79,61,65,107,103
182,249,158,74,61,67,116,106
159,264,138,101,77,71,115,115
173,262,133,112,89,78,115,124
161,261,133,114,91,76,116,129
174,253,133,117,91,72,113,123
171,211,124,116,89,75,106,123
156,200,97,99,75,63,92,111
164,200,108,91,57,52,87,105
168,196,104,85,52,46,76,105
155,201,100,95,48,47,77,104
163,207,101,95,53,44,75,98
171,220,98,85,48,45,74,84
183,231,76,86,54,48,73,89
196,242,78,90,58,53,97,91
206,225,76,73,58,54,114,92
212,204,74,78,60,59,131,97
208,184,74,86,63,59,136,103
193,181,75,78,60,56,137,103
192,163,76,77,61,54,123,91
177,147,73,77,61,55,108,81
174,171,70,69,56,47,87,79
187,224,105,61,53,43,74,73
206,236,107,58,57,45,72,82
191,251,114,60,57,55,80,89
198,256,116,56,59,52,82,94
188,256,115,62,59,58,88,98
185,221,94,68,62,62,92,111
154,202,95,79,58,60,91,110
181,185,89,84,74,66,108,115
181,189,91,86,73,69,109,118
212,220,98,87,76,68,110,133
235,219,91,85,74,65,112,140
246,218,82,80,76,71,119,137
240,215,80,71,61,59,97,134
257,237,76,70,60,55,90,135
262,249,104,67,58,58,95,133
236,244,126,77,59,59,94,120
226,247,130,72,64,65,114,135
219,248,130,75,58,63,114,130
208,234,137,84,58,65,116,127
191,175,127,86,54,61,117,117
201,173,103,75,57,67,124,117
197,160,94,72,55,63,104,96
185,171,93,74,58,63,102,94
173,161,88,65,59,61,100,100
164,167,75,67,62,67,103,105
145,173,79,67,52,58,95,102
150,198,85,67,47,50,90,95
160,204,88,64,52,53,95,103
154,213,104,77,57,58,105,98
137,200,97,73,55,51,86,84
170,202,97,71,61,58,91,84
179,207,96,73,60,61,99,91
182,204,103,79,62,58,93,85
177,193,84,65,56,53,80,77
202,209,82,60,59,57,93,101
174,195,79,60,56,50,88,97
169,172,87,75,60,50,78,92
180,184,93,89,62,51,83,89
186,202,109,97,69,56,88,97
159,190,110,97,64,46,70,83
175,191,109,96,62,52,75,87
184,188,102,88,57,47,74,87
178,199,102,76,48,51,71,88
194,192,102,75,42,46,65,92
203,201,113,79,51,49,68,81
208,237,115,83,57,50,67,90
200,250,115,81,59,53,69,94
196,235,117,74,56,47,71,95
171,229,104,67,54,49,72,87
157,220,91,60,53,57,96,93
143,194,89,56,47,51,97,84
146,191,91,60,45,51,100,91
136,179,76,71,45,54,98,89
147,192,71,69,47,55,100,94
168,191,75,74,42,50,82,93
184,181,76,73,45,51,88,101
173,181,78,70,43,48,82,91
177,182,87,88,49,54,99,97
192,146,89,101,62,71,117,100
179,151,86,99,62,70,116,98
203,234,104,105,65,70,108,97
220,242,108,106,72,78,118,121
233,237,94,84,71,74,106,118
226,249,94,68,57,56,84,111
224,248,97,71,59,61,93,112
193,242,83,63,51,59,90,107
171,227,81,67,49,48,79,78
149,245,88,74,52,50,88,82
171,255,90,74,54,52,94,86
194,262,95,76,51,41,79,84
194,249,105,100,58,43,78,101
205,247,106,100,68,55,96,109
211,226,101,98,69,58,94,106
181,205,99,98,67,57,94,101
171,220,102,111,75,57,99,106
167,162,86,93,76,59,103,96
167,157,74,87,69,56,98,84
155,154,73,90,70,58,98,82
186,186,73,91,71,56,91,91
210,204,67,73,68,59,94,91
216,215,69,75,65,61,95,89
212,228,67,77,65,58,84,91
212,228,67,70,60,50,73,91
192,205,71,78,61,54,76,84
174,159,61,84,61,55,65,73
156,156,65,78,58,51,58,70
151,144,68,78,57,45,55,83
147,176,78,81,58,48,58,84
168,178,79,83,60,50,68,90
147,180,87,74,54,49,68,93
145,171,92,75,53,49,66,85
161,178,91,73,47,53,75,77
185,181,90,78,58,58,81,81
165,198,89,67,55,55,71,71
160,214,87,68,56,53,73,72
173,221,88,74,59,56,78,78
176,219,97,85,66,55,73,81
176,223,95,84,62,47,64,78
195,208,90,83,63,48,69,86
215,189,86,85,71,62,90,94
215,173,73,78,67,61,90,94
208,189,87,83,66,62,97,100
187,152,95,90,63,61,98,99
177,156,94,90,60,63,103,99
169,150,95,91,55,52,89,88
155,163,96,94,60,53,91,89
172,191,94,84,57,50,80,83
194,205,87,71,57,51,85,83
190,195,90,72,59,50,78,74
182,207,93,71,59,47,74,76
190,194,93,91,63,46,70,80
179,149,95,94,66,56,89,81
165,137,89,97,68,57,89,79
166,148,100,104,70,56,90,86
198,149,118,110,67,52,87,90
194,177,121,94,60,58,97,95
181,172,104,86,54,48,80,90
185,206,125,89,49,45,76,100
190,203,115,98,55,57,82,104
160,193,97,102,75,73,101,102
161,176,98,99,73,69,91,90
158,170,96,98,75,68,90,87
169,195,88,102,81,73,101,85
151,203,88,86,72,63,94,80
145,213,83,71,49,42,74,83
163,207,77,75,53,49,80,86
177,220,80,96,59,53,82,93
164,181,67,93,52,44,66,83
163,182,65,91,51,45,67,79
174,170,70,93,51,46,67,72
160,200,74,93,51,41,65,70
160,204,73,74,43,41,73,69
173,192,73,66,42,44,75,73
179,186,80,77,46,45,72,68
191,196,79,73,55,51,75,81
196,171,74,71,55,49,74,81
204,162,81,77,60,46,69,76
197,166,75,76,61,47,71,81
216,164,70,65,59,45,78,88
196,155,69,71,55,40,75,74
191,168,99,81,59,45,78,80
174,171,93,72,55,44,74,76
168,192,100,71,57,45,72,78
143,193,99,76,60,50,73,77
140,198,99,67,57,52,90,79
144,216,77,54,51,47,89,75
155,216,84,64,53,47,91,77
154,211,115,76,53,50,95,74
142,205,120,74,51,45,89,70
139,205,121,83,49,41,73,71
132,192,124,86,53,49,75,72
145,215,131,86,51,52,81,73
165,195,104,80,56,49,72,67
173,203,108,87,60,51,80,81
181,199,110,89,59,51,80,85
208,215,107,89,56,47,77,92
198,197,91,82,54,43,73,95
176,190,85,79,52,48,82,100
183,187,83,80,68,58,92,95
180,222,90,77,72,59,88,91
170,227,93,72,71,60,93,87
172,217,100,79,72,58,95,82
172,223,104,77,68,56,91,75
164,228,99,69,45,44,76,70
167,199,89,61,39,47,80,78
142,156,79,61,42,46,77,69
149,196,87,68,41,48,76,77
145,200,99,90,48,47,79,85
155,192,98,102,56,55,95,94
154,213,100,106,63,51,93,89
157,238,103,108,62,48,87,91
136,212,94,107,61,48,89,85
148,207,86,96,57,50,95,94
148,228,89,91,50,40,73,84
145,241,108,91,40,39,71,83
154,218,108,94,42,43,79,89
222,214,111,88,47,44,73,109
222,212,103,82,46,40,62,99
218,206,95,75,47,41,68,99
222,213,107,75,51,41,76,103
215,208,106,74,53,39,69,98
139,218,103,74,54,38,79,80
132,222,109,77,59,40,76,76
169,203,115,81,59,42,78,87
163,157,85,81,61,49,81,81
160,155,90,81,56,48,86,81
196,152,87,80,55,51,81,84
230,163,85,81,48,47,78,94
203,213,82,85,53,50,74,86
201,210,73,85,53,53,86,87
213,224,72,87,60,57,91,93
188,227,101,87,60,55,89,89
152,236,105,85,63,58,95,78
157,197,106,77,56,53,100,72
158,195,109,71,56,48,83,69
153,191,116,63,53,45,73,67
167,170,97,61,52,44,73,67
180,147,91,58,51,44,70,69
204,144,89,55,57,53,72,76
201,162,94,61,52,50,73,77
191,165,79,64,51,50,71,71
179,182,82,73,50,50,73,68
165,176,77,76,51,53,81,69
133,173,78,78,44,47,76,72
148,181,80,78,50,51,80,73
156,229,78,76,49,49,79,74
164,221,74,76,60,54,88,72
158,224,83,74,63,55,86,71
153,224,79,81,65,52,82,61
145,208,72,90,67,48,76,63
146,169,76,89,68,53,83,66
125,174,68,81,60,49,78,74
118,162,62,86,52,41,66,75
123,168,73,92,53,45,69,79
123,225,86,83,51,50,76,75
128,208,84,89,53,52,77,85
141,204,86,96,57,56,79,83
144,211,87,101,65,63,94,78
135,214,85,92,64,62,92,76
133,159,65,88,62,58,88,77
140,165,64,83,58,52,82,66
150,163,65,77,57,50,88,66
158,156,108,67,49,43,75,72
159,152,114,73,49,41,76,71
168,159,117,74,47,38,73,72
156,153,119,76,50,46,79,69
144,143,118,71,44,41,65,63
146,147,87,63,45,42,73,66
155,138,78,51,44,46,80,69
153,171,93,47,44,46,85,67
168,176,95,46,44,42,86,79
173,175,99,56,51,48,84,79
176,174,97,60,52,46,77,77
173,184,101,73,52,42,74,85
172,152,86,78,53,44,80,90
161,140,81,76,52,45,87,82
147,153,73,78,48,38,88,83
134,167,84,83,46,40,90,82
143,168,92,77,51,42,87,73
165,184,103,78,49,45,79,92
170,190,114,85,49,44,64,93
183,189,119,87,51,45,62,94
195,175,115,85,53,47,60,88
190,208,105,84,51,49,63,91
181,188,97,85,56,48,63,85
172,188,90,97,55,46,63,84
161,199,90,89,53,46,71,96
161,213,91,90,52,43,70,99
153,179,86,87,50,40,69,98
148,167,90,88,50,39,66,86
149,164,103,83,61,43,74,90
149,158,99,88,64,43,69,77
181,190,98,85,63,47,71,81
181,186,99,92,66,49,69,82
171,198,106,100,69,54,88,84
181,204,96,92,68,57,89,92
194,192,104,90,66,58,90,91
153,159,100,89,67,55,92,89
169,172,110,123,74,54,93,89
180,168,98,121,70,47,77,85
165,157,89,120,64,37,63,72
166,198,80,122,70,43,70,89
183,190,84,130,74,46,75,87
173,180,73,93,65,45,74,81
157,176,68,87,65,48,80,83
209,275,81,86,64,49,85,83
197,255,91,86,61,48,83,68
191,263,93,87,59,46,79,66
189,265,93,87,65,48,81,72
205,279,99,84,65,50,83,78
172,211,95,80,64,51,82,79
173,204,91,76,58,44,75,78
166,196,92,65,58,49,77,83
165,191,91,64,50,51,77,86
182,169,87,65,53,53,75,96
174,156,100,69,55,53,79,109
190,166,97,73,57,54,80,111
195,162,89,70,53,53,81,114
191,160,89,68,51,46,76,111
171,171,92,77,49,41,73,98
168,167,81,84,54,45,66,86
153,153,80,79,52,47,76,86
141,151,80,81,59,44,74,78
152,168,82,83,62,49,88,80
155,202,114,73,63,49,91,86
154,191,118,67,58,47,99,82
147,191,116,63,60,48,97,84
151,192,117,64,55,48,94,82
162,204,132,61,52,47,86,81
157,167,106,57,44,45,85,81
160,165,102,56,52,47,87,88
167,162,101,59,50,45,85,81
187,166,100,54,47,49,90,102
172,148,86,55,51,52,92,108
167,159,90,75,60,59,101,117
178,182,82,79,56,61,113,112
174,183,88,81,60,62,113,116
156,184,92,83,60,61,108,103
170,183,94,84,63,61,111,96
183,187,92,69,57,59,105,82
165,171,92,59,53,53,78,80
161,170,98,64,54,54,90,81
149,174,94,88,60,55,100,77
142,160,83,88,54,51,93,74
124,205,89,94,56,47,87,74
129,201,96,95,56,52,99,74
154,207,93,90,53,50,80,72
184,206,100,71,48,45,69,76
185,244,103,76,47,45,73,78
187,191,99,76,47,48,74,74
189,192,104,81,50,46,68,79
170,197,101,88,54,49,80,81
198,304,96,96,54,57,96,94
203,305,106,93,52,60,103,104
210,307,104,94,57,59,105,112
210,311,102,112,59,58,100,107
219,312,115,107,59,57,95,102
179,205,114,98,58,50,79,87
171,175,103,99,66,54,71,71
164,170,98,94,59,53,73,75
155,155,88,72,61,53,72,77
155,137,72,72,59,54,73,77
167,143,67,71,64,61,91,91
170,124,61,69,58,57,91,99
168,130,68,70,58,56,91,93
188,166,79,64,64,57,93,98
179,182,74,67,62,55,88,96
179,185,85,68,58,50,72,100
198,192,86,75,57,43,65,102
191,196,87,74,56,41,64,97
178,168,80,77,38,35,63,95
182,166,79,80,46,52,78,108
172,187,72,80,44,51,75,95
164,190,95,72,43,53,91,99
160,193,110,86,52,61,102,102
156,231,118,84,58,64,102,97
145,240,122,78,54,53,93,83
151,218,135,79,57,50,93,78
121,209,120,85,62,53,84,63
130,207,107,76,62,45,65,58
135,175,111,79,60,45,66,72
145,164,117,92,63,47,64,79
119,161,106,88,59,51,63,80
117,163,111,84,56,50,67,84
114,151,127,91,50,48,69,84
119,152,116,96,53,46,64,79
124,170,108,90,55,48,66,70
134,175,114,92,54,45,61,69
147,167,109,89,52,40,63,63
141,181,88,88,58,44,62,64
157,186,98,83,53,43,69,72
171,180,95,78,47,39,70,78
169,172,78,77,51,41,75,83
160,184,79,76,52,44,68,80
165,268,88,79,47,43,67,81
137,260,72,70,44,42,67,71
116,251,75,70,45,47,75,78
119,254,85,70,46,46,70,78
144,245,89,88,53,45,75,77
146,141,90,85,50,42,75,81
151,154,96,89,55,45,75,84
146,148,96,90,54,40,70,74
144,149,99,96,54,39,74,71
140,162,98,83,46,39,68,75
184,195,100,81,56,47,79,96
207,212,104,79,54,47,79,98
204,208,112,101,56,47,78,101
210,212,104,93,55,50,79,99
210,221,101,94,57,50,82,106
191,209,99,90,53,46,77,86
167,182,89,91,55,45,72,88
165,178,77,74,58,47,68,87
170,181,91,105,69,48,67,88
166,158,94,108,69,51,67,79
150,148,98,109,66,49,61,81
151,147,99,108,64,49,63,76
158,145,103,111,63,51,74,93
148,152,96,91,62,53,73,92
146,182,97,87,68,55,71,89
140,169,82,82,66,55,70,86
154,163,85,85,71,57,71,85
155,171,90,70,69,59,68,65
157,172,90,70,62,55,67,63
143,141,92,73,61,57,80,82
135,138,91,70,60,56,83,90
123,132,100,92,60,58,88,103
123,156,98,95,57,52,81,104
113,146,92,88,55,53,87,106
123,156,88,85,49,50,79,94
140,165,91,90,53,52,81,92
140,185,86,74,46,46,74,73
172,211,91,75,47,52,87,82
183,216,95,76,49,52,82,88
193,214,95,88,53,54,93,94
191,213,110,85,54,53,90,92
185,210,102,76,54,56,92,90
165,195,92,75,55,53,84,89
174,188,97,88,57,54,88,86
173,193,105,85,52,47,75,77
181,203,87,83,49,46,69,72
181,205,90,87,52,45,69,73
177,187,94,96,58,46,74,66
166,177,90,89,55,45,71,70
157,165,74,81,55,47,88,83
145,167,73,86,59,54,104,91
159,157,80,88,56,54,101,96
162,146,78,90,48,51,95,96
157,146,74,83,58,54,101,91
167,154,77,86,57,52,91,87
171,167,88,96,58,51,77,81
178,160,80,101,61,54,87,76
163,165,83,94,65,54,88,71
158,161,83,96,57,50,88,80
144,159,88,105,60,55,88,83
151,162,86,114,58,50,88,84
150,161,84,111,59,46,86,81
157,146,88,107,54,49,94,86
175,159,86,109,59,54,96,86
187,203,85,97,56,50,91,82
178,186,74,70,52,49,89,86
164,187,80,77,58,57,94,91
177,190,77,82,63,59,92,88
161,194,89,87,62,57,84,81
153,197,96,96,65,59,82,76
161,197,103,97,66,62,86,77
151,200,100,86,62,56,75,76
140,207,108,89,63,52,68,74
156,209,118,85,63,50,65,81
150,159,111,86,65,48,63,81
136,153,117,97,68,45,63,86
170,154,115,98,64,43,66,89
160,184,111,99,61,45,74,98
145,187,113,108,58,42,73,96
149,190,118,104,51,40,75,98
156,177,111,96,46,39,79,95
134,174,111,93,46,38,80,94
136,135,104,85,50,38,69,90
135,127,89,75,51,39,76,85
148,121,81,71,55,43,82,83
140,120,75,68,58,47,78,79
128,124,77,69,59,47,74,78
132,127,77,92,62,50,83,87
149,125,65,93,65,57,91,100
136,137,63,93,62,59,92,99
137,144,65,95,58,56,93,97
142,140,68,105,63,54,94,97
176,146,70,91,60,54,97,105
168,158,69,82,58,52,84,94
163,147,79,84,59,47,79,99
171,145,85,88,59,46,75,100
165,146,92,82,56,46,71,97
135,155,89,79,48,44,64,75
129,130,88,79,42,38,63,74
129,143,83,75,43,41,79,66
159,145,75,69,48,42,79,68
179,180,72,71,46,43,81,76
184,174,72,84,53,43,82,76
200,177,77,93,60,43,83,81
226,168,87,103,63,46,76,86
204,168,92,105,61,44,75,90
212,138,101,108,62,44,70,89
217,126,106,108,59,45,78,103
209,127,112,103,56,49,84,109
180,128,106,94,48,43,77,106
178,132,104,114,50,44,77,98
163,167,93,115,50,48,85,97
151,168,93,105,49,46,75,87
156,163,84,105,47,41,64,90
157,159,80,107,59,45,62,91
154,151,83,82,57,47,67,94
157,149,81,69,58,46,67,90
192,162,75,79,57,45,67,95
197,164,81,87,65,53,78,97
210,167,83,96,62,53,89,100
251,191,97,98,59,51,88,126
255,175,96,103,58,47,81,126
224,185,105,99,62,57,104,121
210,183,101,89,56,54,107,123
226,183,97,78,56,53,104,129
176,170,85,92,62,54,104,102
153,164,85,87,64,55,106,101
229,129,75,80,60,45,86,103
243,150,71,79,56,39,74,97
213,175,80,83,50,37,65,85
223,160,85,63,47,43,67,87
277,160,88,64,46,50,71,86
241,168,84,64,44,49,71,89
231,162,97,68,45,49,72,79
239,140,120,70,49,51,72,78
230,158,114,84,57,55,89,86
180,153,114,83,57,55,105,100
141,144,116,85,61,58,103,88
132,130,107,97,70,65,107,95
132,206,83,92,69,66,109,94
134,204,87,88,64,60,100,89
122,212,83,90,63,56,78,72
152,214,79,86,63,58,85,82
156,221,82,74,56,52,81,69
162,162,85,76,53,54,90,82
188,163,80,71,49,51,81,90
192,158,86,75,50,54,87,92
174,156,86,78,49,51,85,88
183,145,88,77,44,46,82,88
187,147,95,73,45,40,65,85
179,208,111,68,46,43,79,94
171,200,108,61,43,35,76,102
196,206,111,57,40,32,72,126
194,209,111,59,47,41,81,134
177,198,111,73,48,43,85,136
156,113,93,77,50,40,77,128
179,131,96,77,52,43,79,124
169,123,94,81,59,50,80,101
156,116,88,77,55,43,71,91
154,117,73,74,59,46,75,90
184,158,90,80,62,62,111,117
157,164,83,82,61,60,107,122
148,192,86,84,56,58,109,127
163,194,91,90,60,61,112,128
173,195,91,85,57,59,111,125
156,194,83,80,53,43,73,98
161,203,87,84,49,42,72,91
167,194,102,85,49,40,64,82
184,197,100,80,46,38,69,87
173,194,101,81,49,44,77,81
175,177,93,81,53,42,78,78
175,154,91,80,53,43,77,81
176,141,72,83,56,46,79,89
154,134,70,83,55,46,75,85
160,137,63,81,49,40,61,84
159,215,77,84,48,47,66,94
167,226,76,82,51,49,72,95
152,221,81,70,47,48,71,94
154,226,83,71,54,50,65,92
153,223,86,71,56,53,68,91
143,186,73,62,54,47,65,94
133,185,84,60,53,46,61,96
135,190,102,76,64,51,68,89
130,193,103,77,58,49,70,89
150,207,100,70,54,45,66,101
179,187,105,76,56,46,75,101
176,174,101,89,58,46,75,100
187,190,78,81,49,36,68,104
199,204,77,80,49,37,74,112
192,217,89,84,52,49,88,107
164,208,91,83,53,50,85,97
165,202,85,72,48,49,83,101
151,179,82,69,45,48,86,97
130,169,94,78,62,57,101,98
119,150,89,80,61,48,91,97
132,151,89,80,62,47,86,102
152,154,100,87,64,47,91,92
168,161,100,89,66,53,102,98
176,177,97,80,49,40,82,94
177,179,99,85,53,40,79,86
186,167,107,89,54,44,77,78
181,180,100,89,54,44,78,88
163,174,98,92,63,46,67,84
149,148,95,98,67,52,68,76
149,158,105,100,70,53,68,77
132,168,110,95,70,55,72,75
118,154,107,88,71,58,70,64
120,162,107,85,61,52,66,62
138,163,113,76,58,52,80,69
133,134,113,71,50,49,80,68
175,172,94,73,50,48,79,73
194,176,107,78,47,44,80,81
210,172,108,78,48,50,81,92
212,168,98,81,46,47,64,87
218,171,100,88,52,49,68,92
207,119,107,82,49,47,69,97
189,117,97,77,48,50,70,88
180,122,95,75,50,50,86,83
173,133,98,77,54,50,89,87
166,155,82,62,49,49,87,84
136,166,68,63,49,53,95,87
137,178,125,85,51,52,93,91
178,172,128,90,53,50,80,84
178,176,132,97,52,48,76,81
196,164,138,99,53,49,76,82
200,159,139,99,57,46,63,75
217,144,98,89,61,51,81,78
183,139,102,87,60,48,78,75
180,121,97,79,58,49,79,76
172,139,90,82,61,51,84,82
190,132,90,84,56,50,89,80
175,124,82,82,61,52,75,71
178,130,75,79,57,52,76,73
173,134,82,87,60,51,80,83
160,133,82,83,57,49,79,85
145,138,85,81,61,53,88,87
144,135,92,88,56,49,91,94
143,160,103,108,65,51,89,95
153,164,119,103,63,55,87,106
156,147,124,106,69,70,103,106
145,145,124,112,65,65,91,109
165,177,129,108,65,64,85,104
161,156,126,90,57,61,86,104
197,160,106,87,65,70,116,93
194,154,102,86,61,57,113,92
186,155,104,76,59,57,111,89
177,143,96,87,61,59,110,94
174,166,87,84,67,68,116,94
131,156,100,88,66,58,84,86
146,155,96,83,62,55,64,91
173,186,99,92,69,59,83,86
171,168,94,74,66,55,85,94
175,163,99,72,63,52,100,94
187,166,85,64,57,52,102,101
182,163,106,65,55,51,101,91
165,129,102,66,50,46,88,89
152,134,102,72,52,55,95,83
151,134,103,93,54,50,73,81
168,154,127,100,59,53,79,79
162,161,114,103,62,52,79,78
176,161,118,94,63,55,91,87
181,166,120,94,59,47,81,79
181,159,120,75,53,47,81,77
154,165,98,68,52,43,76,69
147,168,101,66,50,48,79,72
145,166,95,65,46,45,70,63
162,185,106,60,45,46,75,82
167,184,115,68,48,48,71,81
181,199,119,71,48,47,67,84
212,199,117,72,52,45,67,83
206,206,131,79,54,46,62,83
185,206,121,83,56,43,47,62
179,248,114,88,52,46,71,71
168,254,103,91,51,46,83,80
150,257,105,90,46,44,87,96
146,254,86,88,46,45,91,98
154,243,117,105,50,46,98,101
146,205,113,97,53,43,94,96
132,161,118,93,57,42,87,93
119,163,118,94,59,44,88,79
125,177,126,103,60,43,83,80
142,172,96,80,57,43,77,83
149,157,93,81,54,42,69,89
160,157,89,80,49,41,69,82
181,158,87,81,58,47,78,107
188,142,82,78,57,49,90,111
190,164,103,89,57,47,90,115
184,160,104,90,60,56,94,107
196,158,109,90,63,55,95,120
175,166,110,89,55,49,80,95
159,164,110,77,52,46,69,88
147,147,94,64,53,49,71,83
166,148,96,62,59,53,76,92
152,144,92,55,55,57,79,78
152,123,100,62,59,62,87,82
162,165,101,62,61,63,85,80
162,155,97,63,60,69,104,87
148,165,105,66,52,63,96,79
145,169,105,72,57,68,111,82
157,185,98,70,60,64,106,89
165,201,98,74,63,68,111,99
160,215,112,84,64,63,100,96
167,209,106,88,63,58,97,110
163,209,104,86,60,50,73,109
163,190,102,85,54,50,73,108
151,145,93,85,48,48,72,104
159,147,77,75,46,48,68,104
159,144,69,72,49,49,69,89
168,145,87,76,45,47,68,81
185,175,87,75,48,49,73,95
177,169,89,73,48,46,75,96
188,178,89,74,46,40,71,93
186,174,88,74,53,44,76,93
191,184,80,75,61,47,87,103
178,159,75,68,55,42,86,105
189,173,83,72,57,44,88,113
186,148,82,79,64,52,88,117
183,158,85,81,56,47,94,121
183,172,80,75,54,48,91,119
164,184,83,80,58,50,88,111
153,176,77,75,60,53,92,101
135,170,105,71,55,49,90,101
132,179,109,70,58,56,87,113
126,168,108,69,54,55,87,115
130,181,108,68,58,59,89,108
148,168,110,71,59,56,95,114
159,174,99,86,67,60,102,130
199,174,97,91,67,57,100,128
196,162,98,94,66,53,96,122
211,149,96,96,65,53,93,130
206,150,99,98,67,56,88,124
197,143,87,88,60,54,81,99
176,137,89,96,57,53,75,98
179,150,90,94,58,56,75,98
158,134,86,91,51,52,78,83
146,134,81,111,55,47,76,84
148,137,77,128,58,44,93,90
149,186,75,123,62,42,97,79
160,188,74,125,63,41,101,91
177,188,80,125,67,49,101,97
183,194,85,108,68,54,98,100
183,214,101,100,74,58,85,97
173,186,114,98,74,60,82,104
169,176,113,98,75,62,80,98
157,169,110,97,74,60,90,106
168,161,103,92,65,52,82,101
163,150,94,70,56,55,88,100
162,137,69,65,63,63,101,92
154,130,69,72,68,66,100,96
163,139,68,76,63,63,89,85
148,143,74,83,63,64,88,91
188,135,86,83,62,57,87,99
183,120,97,91,53,47,78,98
185,114,96,83,48,43,82,95
188,117,106,98,57,42,83,103
192,158,119,94,58,46,87,100
190,155,115,101,59,47,90,113
203,157,110,99,59,46,88,125
214,160,113,107,64,47,84,125
199,152,106,95,60,52,81,116
202,126,91,97,61,51,81,117
184,129,76,90,58,50,84,113
169,124,72,77,53,50,74,103
162,126,65,72,47,49,77,100
180,141,109,84,47,49,98,101
173,135,111,85,53,53,94,106
161,125,111,89,54,51,82,92
158,127,113,96,57,54,92,91
148,140,124,100,54,53,96,104
137,150,91,87,53,47,74,100
132,144,81,80,45,44,72,96
131,142,83,82,47,46,79,93
149,148,82,81,50,44,69,90
148,179,98,70,54,43,66,95
146,157,101,78,56,47,76,104
158,180,105,80,56,44,81,104
197,188,107,81,57,45,77,105
189,220,107,76,55,45,80,110
197,192,86,77,50,47,84,100
191,219,87,88,63,48,82,97
188,237,85,89,65,54,91,96
158,236,83,85,64,53,94,91
160,203,81,83,64,50,95,81
154,206,111,92,67,51,92,82
159,188,112,75,52,49,92,81
156,140,114,79,55,52,88,89
157,133,129,90,51,50,83,99
149,133,129,97,50,53,84,104
141,157,103,92,47,53,95,95
138,150,109,93,49,53,93,104
140,147,120,115,50,44,89,107
141,169,109,120,57,51,95,98
148,178,112,117,58,55,99,96
179,166,113,112,58,53,81,105
183,173,105,109,61,52,86,94
177,170,88,80,58,53,81,84
165,167,81,56,54,46,73,89
161,169,84,60,53,41,69,86
129,157,71,57,55,44,83,78
142,156,70,61,51,42,84,80
154,176,73,73,51,40,86,74
152,183,83,102,55,41,85,66
162,189,81,103,57,40,81,85
154,183,82,106,58,38,72,89
134,193,76,103,57,38,60,83
133,183,93,106,58,40,63,98
184,197,115,102,63,45,67,127
189,192,118,101,63,44,71,122
189,193,119,100,60,45,61,119
204,172,118,102,65,51,79,137
205,182,111,95,62,50,76,139
175,170,104,85,56,49,81,119
164,154,99,90,61,59,100,125
168,154,96,90,59,58,116,126
181,158,101,105,65,57,108,115
171,148,97,103,65,58,107,102
161,111,66,92,66,59,105,101
173,138,66,95,64,51,88,88
175,135,78,101,70,52,71,87
186,131,84,92,67,53,77,83
194,124,98,104,69,53,80,80
192,174,105,106,70,55,75,74
182,160,114,104,66,53,69,71
206,169,115,104,64,55,77,73
183,177,110,101,60,51,75,81
183,184,97,93,59,50,70,84
182,157,89,89,59,49,74,95
233,175,77,78,58,51,74,112
228,164,63,70,58,51,62,110
223,153,63,73,61,53,65,109
215,167,82,89,71,58,69,109
212,151,84,88,65,53,68,99
154,123,81,90,65,52,68,82
118,122,83,90,61,50,76,80
99,128,116,101,62,47,71,72
102,93,106,91,58,44,81,83
119,97,109,97,64,48,81,82
105,93,109,95,66,49,84,79
122,96,109,101,67,48,80,83
129,115,84,90,64,48,78,82
127,130,79,78,55,44,69,81
127,155,76,77,54,42,69,87
156,160,77,81,59,43,80,89
162,165,78,86,64,42,77,86
168,155,81,94,63,41,75,85
181,169,82,99,64,42,70,72
179,148,78,95,61,46,72,79
161,154,98,100,55,44,57,72
148,148,107,91,54,45,68,75
152,153,102,80,60,50,75,89
164,142,105,76,60,54,83,94
170,148,107,73,59,52,85,88
174,139,92,68,61,50,86,103
169,141,79,65,60,53,81,101
171,154,76,61,52,51,79,93
182,139,82,58,48,44,77,93
180,133,83,83,57,43,70,94
180,134,87,78,60,48,76,83
182,155,91,81,60,54,95,87
171,143,97,81,58,50,90,82
134,137,91,82,60,51,87,79
121,132,92,65,51,51,90,75
138,141,84,83,60,58,85,88
171,129,80,84,59,50,62,94
184,158,90,87,61,54,62,95
186,170,102,93,67,59,63,97
187,172,98,92,67,57,65,102
177,165,99,76,58,48,61,95
159,182,109,79,61,49,61,93
156,221,104,81,58,45,58,95
157,231,95,76,51,40,56,107
174,231,104,79,56,45,71,103
179,240,104,81,52,46,81,100
177,238,110,74,46,44,84,102
181,172,114,69,49,50,86,111
187,148,107,64,49,49,87,96
176,157,98,58,44,45,70,93
182,149,100,59,45,42,61,99
193,125,79,67,43,44,53,91
190,127,57,64,38,39,52,79
180,130,56,71,43,42,51,79
173,120,53,72,44,42,59,91
168,122,53,89,58,46,56,82
167,123,72,88,58,46,62,84
169,156,71,88,60,50,69,88
168,151,75,91,60,51,71,94
178,156,80,89,59,49,69,116
165,159,85,71,48,47,68,113
149,162,71,69,50,49,65,118
157,137,73,74,56,49,66,115
155,137,72,64,55,47,65,111
156,126,75,65,56,51,69,90
162,106,67,68,55,52,77,97
166,101,83,72,57,51,85,87
150,85,79,69,57,53,92,86
173,95,84,69,53,53,96,97
170,114,88,73,53,48,90,82
160,124,89,70,52,47,86,73
151,121,81,77,60,49,82,78
151,119,80,76,51,42,69,81
142,145,83,81,54,40,64,77
132,144,78,79,53,46,77,92
137,142,79,79,51,50,90,96
145,138,76,64,37,45,86,103
146,149,84,67,43,47,90,99
138,138,83,72,44,53,91,97
140,132,79,68,45,53,87,91
136,130,82,69,41,46,74,95
133,130,90,76,41,46,70,86
133,157,93,78,37,45,70,90
134,159,93,71,38,41,70,94
124,158,95,75,36,38,66,92
140,158,95,74,41,39,66,93
127,160,91,71,42,38,73,101
123,139,82,66,48,40,72,100
119,136,78,68,55,47,73,108
132,129,76,68,58,45,67,102
120,124,73,77,58,52,68,97
127,143,76,80,60,56,63,93
134,138,86,96,63,62,72,96
152,176,97,93,61,63,69,85
161,189,112,103,62,63,72,93
170,199,112,96,61,60,69,88
178,193,105,91,59,57,71,93
168,193,99,73,52,50,60,88
147,151,92,78,51,43,63,85
136,142,76,74,49,44,71,83
130,144,79,72,51,50,78,85
149,161,81,74,61,60,98,108
158,148,82,74,63,61,100,109
172,166,75,72,60,59,96,109
174,162,75,70,60,61,92,114
165,150,63,69,58,58,95,116
180,135,66,69,52,49,75,95
171,152,63,69,50,47,76,92
166,123,78,81,48,46,73,90
155,131,77,75,52,43,72,84
160,133,82,75,58,46,60,75
122,170,80,72,55,47,59,65
125,180,85,82,59,46,62,65
116,188,90,77,59,46,64,64
111,179,89,76,59,44,65,66
114,185,87,86,57,42,71,80
111,150,86,89,61,44,70,78
111,120,95,82,54,42,71,77
115,113,82,79,52,44,81,84
133,122,87,86,57,49,84,89
130,133,88,80,53,48,85,87
117,131,90,74,46,45,83,86
108,139,72,70,46,45,79,87
105,134,69,68,52,46,69,91
108,132,65,60,41,43,75,90
117,116,68,66,45,44,67,86
151,118,81,74,54,49,85,95
162,110,83,79,55,48,86,97
166,109,83,73,52,47,86,86
168,120,85,75,55,48,79,89
182,125,86,71,60,53,86,96
164,152,78,72,58,56,75,100
174,165,82,73,58,57,75,99
179,163,82,74,59,60,81,102
178,156,87,70,63,56,78,95
157,149,86,68,61,50,70,87
159,113,81,61,59,43,65,72
139,93,75,56,59,43,65,74
130,96,75,64,57,38,62,74
124,109,66,63,53,43,65,69
124,113,68,76,53,45,66,70
137,115,76,83,53,47,69,79
141,117,80,87,60,51,75,76
156,154,81,80,63,53,69,79
167,150,98,86,63,53,70,81
173,149,96,78,60,50,73,78
167,151,90,77,60,53,78,89
170,156,87,76,56,51,70,95
157,122,85,75,49,48,68,91
138,115,67,74,48,44,65,93
150,123,68,87,47,43,66,93
141,119,68,92,52,38,57,75
135,121,71,88,47,34,60,72
132,120,77,88,48,33,60,73
139,127,77,87,50,39,62,74
124,138,71,68,50,39,65,85
121,132,72,54,42,37,66,85
120,130,71,59,42,35,61,84
117,126,73,63,47,45,64,86
114,126,72,62,55,49,65,86
114,161,85,70,59,54,84,88
113,166,80,75,65,57,90,86
135,213,97,76,65,59,92,88
141,220,100,84,66,55,93,89
153,229,99,79,57,49,91,83
147,200,88,72,48,41,63,68
149,204,90,73,44,41,50,77
139,148,74,68,47,43,52,72
134,158,69,59,46,44,45,65
119,166,74,62,49,47,49,73
130,153,75,75,55,49,58,98
135,146,104,82,56,48,66,91
128,141,101,87,56,45,66,91
128,127,95,86,55,47,68,91
138,179,104,88,54,44,64,89
131,191,110,81,56,50,73,74
145,208,80,69,52,50,71,76
170,212,80,63,53,52,70,88
188,219,85,71,54,47,70,87
185,160,73,81,58,50,77,89
183,145,62,92,59,47,67,78
189,119,66,94,61,48,64,83
162,125,71,96,60,47,63,80
148,117,71,93,58,49,69,93
138,133,68,90,59,50,77,96
145,133,81,85,49,44,72,98
126,130,83,82,48,41,68,95
125,125,80,79,46,42,73,86
129,146,79,85,50,40,69,87
129,122,80,84,44,32,51,78
120,136,79,73,49,34,52,74
122,144,80,80,60,42,65,86
155,155,85,85,67,48,67,103
149,135,85,77,67,50,67,92
159,156,87,66,67,54,67,94
159,151,82,90,69,53,69,96
151,152,82,92,60,48,71,88
132,142,81,94,61,44,64,72
145,149,83,95,62,44,65,75
142,126,80,98,60,41,66,77
154,124,80,84,57,44,64,86
146,120,90,98,65,53,64,91
149,136,98,97,63,57,69,96
138,121,97,103,60,53,66,95
154,129,110,105,59,55,69,110
142,145,110,99,56,56,78,107
153,160,117,98,56,57,93,99
148,187,112,99,55,58,98,91
173,218,117,97,56,61,99,97
157,217,117,101,58,59,99,85
161,219,114,102,62,59,99,83
157,222,102,90,57,54,91,86
167,192,109,86,52,50,89,96
138,156,101,87,59,50,93,111
137,164,86,77,61,53,93,108
144,152,85,79,59,51,91,105
145,137,81,81,59,48,81,123
127,128,65,81,63,45,82,119
126,135,70,81,58,48,85,104
128,127,90,86,55,48,87,102
122,125,103,87,55,51,85,105
131,131,100,78,48,48,85,82
147,143,105,78,45,49,85,86
161,133,106,70,47,46,87,90
172,142,101,73,50,44,89,96
174,158,93,71,54,52,102,98
171,156,92,68,56,55,102,107
159,154,84,63,54,54,99,105
156,157,83,64,53,51,88,97
143,152,84,57,53,49,82,92
144,157,97,70,59,44,63,103
135,141,103,84,61,42,62,98
155,142,104,86,66,46,62,93
145,138,105,88,65,49,61,91
139,128,96,96,71,51,61,93
145,101,86,94,67,51,60,73
155,131,86,91,66,51,55,67
164,124,88,92,68,58,68,80
175,126,89,88,68,65,90,83
182,159,98,79,65,67,94,81
187,176,102,72,63,65,94,92
185,160,98,67,62,65,96,103
157,165,102,79,64,57,88,92
141,164,95,83,65,47,72,91
140,149,113,118,63,41,64,93
146,129,111,120,61,41,65,82
152,132,109,118,62,48,81,86
185,123,110,126,56,47,81,101
207,176,171,125,59,46,76,102
227,192,160,94,58,47,78,106
214,192,158,90,61,48,79,111
215,188,158,93,62,46,66,106
203,187,166,75,61,43,61,99
205,165,120,79,60,47,65,98
178,141,114,80,62,49,71,98
174,137,111,81,61,48,69,97
164,138,116,81,61,43,66,91
167,138,112,85,58,43,70,88
192,141,126,87,58,41,70,89
222,160,125,91,57,39,62,91
225,162,124,89,55,39,60,88
247,162,121,90,52,43,67,108
233,169,127,96,56,44,66,107
207,163,93,84,51,46,63,107
189,153,97,78,47,45,75,108
211,169,120,85,49,45,77,105
183,181,121,87,51,44,77,91
191,179,106,74,54,48,76,94
184,159,108,79,53,46,78,92
169,147,108,79,56,44,67,93
142,181,88,72,54,44,69,98
147,177,85,72,61,53,66,98
139,175,83,86,63,55,77,104
124,176,102,93,63,54,77,106
131,187,95,101,64,57,79,94
143,147,89,100,62,55,77,89
149,137,87,97,56,47,79,82
143,139,85,84,46,39,75,73
206,154,66,77,48,41,76,96
211,135,63,75,47,40,77,104
207,130,67,73,46,43,81,117
209,140,68,70,44,49,77,118
232,138,79,70,47,51,71,116
186,115,76,68,49,52,68,102
186,118,78,61,48,52,67,99
179,137,79,68,51,48,63,87
176,132,78,70,49,45,63,87
165,132,74,71,47,42,68,92
158,143,78,71,44,42,69,87
140,152,96,70,43,41,71,84
143,132,93,66,43,45,76,91
138,142,97,65,44,47,79,94
133,151,112,67,45,50,84,85
139,145,119,72,46,48,83,84
162,170,119,77,47,47,89,88
158,162,122,84,50,47,86,106
149,147,120,82,49,50,91,116
146,135,107,91,54,53,95,123
154,148,143,113,58,58,104,121
170,115,137,113,59,60,100,123
163,136,133,106,55,58,100,103
164,136,135,108,55,54,100,83
152,136,132,100,53,46,86,72
147,125,83,70,52,41,75,69
111,133,71,71,55,46,89,89
112,115,71,72,56,49,96,84
123,117,67,70,54,48,87,92
126,119,112,91,55,50,89,100
132,112,109,91,51,50,87,108
170,130,117,87,45,42,70,96
170,130,119,94,45,38,69,105
160,136,123,95,44,34,65,98
164,136,92,83,41,35,70,101
160,158,95,85,46,46,78,98
120,147,87,83,53,50,78,103
121,159,86,77,50,49,65,100
127,158,109,85,54,50,64,100
139,165,99,80,54,51,64,94
132,147,100,79,52,42,67,93
124,184,106,79,48,42,76,75
144,178,111,85,50,43,80,71
151,196,88,81,51,46,86,72
133,197,91,82,51,45,84,64
128,206,86,86,49,44,81,66
150,168,88,100,57,45,74,71
144,181,80,98,59,54,83,74
134,159,83,98,61,58,90,80
135,161,87,91,59,58,96,86
166,148,88,88,60,60,90,84
152,170,80,71,49,57,92,90
151,151,82,70,51,49,84,86
165,157,76,64,45,42,74,85
174,145,83,75,51,41,72,83
155,161,85,71,50,42,74,89
148,141,90,73,51,39,64,78
146,143,89,70,46,39,64,77
139,140,99,92,63,50,78,87
161,147,86,90,61,49,78,98
159,142,80,93,61,48,82,90
166,148,79,93,61,48,83,95
189,167,84,100,65,54,102,115
182,163,75,82,51,47,98,107
156,161,78,79,51,49,94,103
148,165,101,83,53,47,88,106
164,155,106,85,54,49,93,119
151,146,107,78,52,48,85,110
152,143,104,90,55,48,85,118
149,159,110,99,58,50,85,115
167,149,90,93,56,51,90,120
144,146,85,91,56,50,92,108
125,138,77,90,56,44,81,97
132,139,79,80,52,40,70,88
134,122,70,68,47,36,68,83
138,144,75,79,52,42,66,77
143,135,68,77,49,41,60,72
136,125,71,80,48,42,56,70
129,127,70,75,46,40,52,65
126,137,74,74,45,40,57,70
100,115,67,58,43,40,60,76
113,116,69,58,42,42,58,78
125,113,63,66,50,45,58,81
123,109,71,80,56,47,59,80
145,124,67,81,56,46,54,79
147,141,69,84,52,39,50,75
134,146,73,90,56,41,51,78
125,149,74,82,48,43,64,78
138,155,88,89,50,45,73,79
133,149,88,88,55,46,73,80
166,188,86,87,56,46,72,79
187,189,86,83,58,50,94,97
203,191,97,79,59,46,89,98
204,188,74,64,58,46,83,103
197,181,83,61,53,50,90,116
171,129,87,63,55,48,87,114
149,122,82,88,55,42,66,97
161,117,77,95,56,45,68,107
178,146,82,97,54,41,67,106
173,141,75,101,54,38,57,95
177,124,72,108,54,39,58,98
175,122,76,90,53,38,61,99
147,121,69,83,50,33,60,101
109,119,84,90,52,35,61,96
103,120,100,89,52,37,73,89
104,122,99,87,55,45,83,97
102,124,96,92,53,45,79,93
103,138,94,97,53,46,76,76
125,154,88,86,52,45,77,76
135,154,67,87,52,45,73,87
143,159,76,84,48,39,65,76
154,160,87,81,47,39,67,81
147,150,96,79,46,35,63,76
128,115,93,78,42,34,60,84
131,134,93,77,45,34,53,72
122,132,92,83,52,33,45,71
113,133,104,91,52,36,43,65
122,129,101,96,53,38,46,78
140,138,96,94,56,42,52,78
145,121,94,89,51,39,51,79
147,118,91,96,44,40,63,93
151,142,86,107,44,40,61,95
149,184,95,105,51,42,60,91
152,172,95,106,45,41,62,84
149,170,103,110,47,42,60,82
152,179,111,120,55,49,60,65
143,164,103,111,59,55,77,62
142,130,90,107,53,52,76,66
129,146,99,113,59,50,72,76
114,142,97,112,57,50,80,76
104,149,92,88,51,47,86,88
110,154,83,78,49,38,70,101
112,149,95,82,51,38,69,100
103,132,90,75,46,42,75,94
106,135,84,74,54,49,85,111
109,114,71,70,52,44,71,106
120,106,95,72,53,45,73,98
132,102,115,82,59,47,77,106
148,101,113,83,65,46,77,109
175,93,116,87,64,41,58,97
182,105,119,85,62,44,72,112
172,101,102,93,60,45,71,111
186,106,67,81,54,43,70,103
182,122,78,83,53,42,66,101
162,125,78,85,56,43,73,109
160,116,77,89,57,41,60,87
159,113,74,78,55,40,60,81
148,104,78,83,55,41,59,79
150,116,65,78,48,47,65,88
156,125,59,70,42,46,61,84
165,130,59,68,42,45,59,97
184,156,62,66,52,54,66,101
182,161,58,57,54,53,67,107
176,150,62,84,55,45,59,98
164,150,70,93,57,45,55,92
164,150,70,93,55,44,56,88
150,131,76,95,45,34,47,85
156,122,79,98,54,44,46,75
164,122,74,73,53,44,49,83
176,114,77,68,55,47,50,93
173,119,84,73,57,47,48,95
180,118,91,73,57,47,51,99
199,153,90,69,47,42,68,115
193,158,94,87,53,44,67,114
185,167,92,79,47,39,69,106
195,179,85,75,48,40,70,98
185,173,71,76,47,40,71,96
163,146,69,80,48,40,65,71
186,135,72,68,53,46,80,98
203,121,68,69,53,48,88,99
180,125,79,67,55,52,91,98
176,142,87,77,61,53,91,95
197,150,84,78,60,50,85,105
179,183,82,77,57,45,70,81
172,185,82,78,58,43,60,76
194,173,69,77,55,41,61,95
203,198,59,59,48,39,65,100
167,193,61,58,49,42,67,97
169,176,66,63,45,43,69,93
162,185,67,64,44,43,66,108
181,190,76,66,45,40,85,123
176,160,77,70,45,41,84,118
180,192,82,70,42,35,80,124
175,176,78,69,40,34,79,128
170,194,95,77,48,40,83,121
112,199,100,85,48,38,58,98
125,211,103,89,55,40,57,105
132,205,100,90,65,52,63,102
149,211,100,83,65,51,65,96
157,206,87,74,60,49,63,100
158,203,102,69,59,51,70,97
151,241,111,63,57,51,68,94
145,242,117,66,52,45,71,114
142,239,115,66,50,44,69,114
135,231,118,83,57,48,71,117
153,227,101,83,61,55,83,124
184,214,89,82,60,56,90,127
197,218,82,76,56,55,87,109
186,216,82,82,59,58,89,108
201,242,81,67,54,55,91,99
202,246,79,66,49,46,80,92
189,216,78,63,50,48,88,89
174,211,78,66,52,51,92,89
176,227,91,65,50,51,100,96
190,303,113,67,53,53,100,100
210,316,119,72,56,56,100,114
204,356,123,74,54,55,87,117
228,366,123,75,54,51,80,119
230,379,138,82,59,54,80,124
224,324,124,83,55,48,76,130
202,332,125,75,51,44,82,129
202,303,126,73,50,44,84,125
181,277,123,68,48,46,90,128
180,252,116,63,44,45,92,126
203,261,119,74,49,50,96,125
199,229,115,83,54,54,95,129
197,256,112,85,55,56,97,133
216,268,122,88,55,54,91,140
237,282,114,90,61,57,88,144
197,253,104,81,60,55,84,136
214,334,119,78,61,54,77,118
210,315,129,86,66,58,75,111
206,338,137,95,70,65,82,99
185,322,126,90,64,58,75,81
205,323,128,95,77,74,111,127
182,245,112,92,74,73,117,130
178,227,146,98,76,70,117,133
161,199,131,86,73,64,112,129
168,219,152,94,74,68,118,137
150,215,154,86,57,55,96,101
157,205,153,93,59,56,98,97
173,197,109,82,50,53,92,96
167,165,117,85,52,56,95,94
163,184,108,87,58,55,85,83
156,169,105,87,58,49,76,80
157,183,105,82,54,44,60,87
164,181,112,85,56,43,64,88
154,195,103,84,57,50,67,90
168,173,91,73,50,48,68,96
