54,202,20,53,731,827,58,47
53,214,20,55,730,872,57,44
58,206,18,51,713,876,63,56
57,144,19,38,510,744,54,55
55,139,19,33,485,756,57,61
57,135,17,32,462,753,60,60
56,114,17,26,373,686,63,66
51,112,17,26,365,656,56,56
43,109,18,26,363,630,51,57
43,104,17,24,326,609,48,55
37,101,18,23,303,611,45,54
37,97,18,23,276,591,56,49
42,90,17,23,266,602,60,48
40,95,16,23,287,637,59,49
41,96,17,23,290,702,58,50
39,96,16,22,281,691,74,50
44,104,17,22,326,718,62,48
41,107,19,22,318,703,60,47
46,173,21,45,576,892,63,49
50,215,27,53,694,967,71,49
56,383,41,78,950,987,54,45
53,428,47,85,1111,968,66,50
57,442,47,86,1204,970,69,55
57,426,46,81,1122,765,67,51
59,408,43,76,1060,572,63,57
54,262,30,52,851,587,66,56
55,179,17,42,616,605,56,55
51,145,17,37,423,609,67,60
57,131,19,29,375,652,73,63
53,124,19,26,361,702,82,65
52,112,20,24,333,676,82,67
53,115,21,25,349,702,86,70
63,116,21,28,351,722,88,71
62,116,19,29,345,719,85,72
60,123,20,30,360,722,73,69
63,125,19,30,383,742,73,70
64,122,20,27,358,724,72,73
56,121,20,24,356,721,57,67
52,115,20,23,366,734,57,63
52,110,21,21,343,707,57,56
52,111,21,22,327,711,63,65
51,172,20,43,556,822,61,58
54,278,23,85,721,877,61,57
52,310,33,93,812,832,59,61
55,357,35,112,848,825,64,68
54,374,35,115,957,795,61,62
55,379,35,114,965,863,57,62
50,328,32,91,930,853,66,68
52,319,22,87,915,932,67,75
57,286,17,70,937,991,108,81
64,268,18,68,851,1013,108,80
67,226,18,59,724,853,113,82
67,199,19,55,615,807,112,84
65,164,19,47,520,747,133,83
58,124,20,31,430,684,105,81
56,116,20,24,388,648,102,80
50,163,20,47,515,747,106,77
57,263,21,68,799,962,103,74
60,288,35,71,902,951,74,74
61,360,43,78,1123,936,70,69
58,389,48,82,1193,924,72,79
61,384,52,83,1171,818,66,84
52,346,52,71,1061,678,66,78
49,365,44,80,1031,754,87,77
52,309,35,80,825,828,87,71
47,274,29,77,747,869,88,61
41,255,19,64,695,904,86,60
40,225,17,59,614,804,84,59
45,151,17,42,515,740,68,50
42,119,17,31,446,681,93,75
43,110,17,28,394,652,89,78
48,111,18,26,401,644,86,73
52,109,20,25,387,645,91,81
45,114,20,24,386,650,83,89
50,113,20,21,383,637,58,73
51,112,21,20,393,622,65,71
47,109,19,20,391,597,81,75
49,105,20,18,367,562,73,67
48,100,20,20,368,555,77,60
45,92,20,21,369,553,80,61
43,146,20,40,453,650,78,59
45,256,21,64,673,865,62,54
42,297,27,114,713,891,65,61
46,350,31,136,751,885,65,57
43,371,33,151,772,878,55,60
44,393,32,163,725,797,53,58
41,362,31,160,673,767,69,58
39,365,24,136,755,828,74,58
36,328,19,116,784,881,75,71
39,317,17,102,802,921,79,64
38,357,19,90,857,969,81,65
40,382,20,119,766,1069,69,69
46,420,20,144,657,1289,62,63
48,502,24,168,584,1545,61,49
49,559,30,177,618,1627,66,57
51,515,30,170,601,1612,63,60
52,484,29,148,644,1466,60,61
51,429,29,118,708,1238,63,61
51,326,26,82,711,849,63,59
57,312,22,96,765,757,58,59
60,319,31,117,733,756,58,56
62,334,35,130,692,723,59,51
68,332,38,140,623,679,83,60
72,366,40,159,688,705,83,64
69,293,38,138,646,625,79,60
73,291,32,122,684,660,82,66
72,272,28,107,744,740,85,64
71,272,24,94,763,778,59,57
67,215,19,52,704,758,60,57
70,191,20,48,623,717,62,58
64,160,19,40,565,685,63,59
62,136,19,32,448,596,70,62
57,119,17,27,407,562,69,64
55,146,18,41,402,532,65,60
44,263,26,71,573,720,70,56
50,325,36,74,903,731,66,53
61,368,42,83,1049,756,74,53
64,388,47,85,1116,769,79,60
63,413,48,92,1143,843,79,64
64,366,44,77,1107,751,74,64
59,321,36,79,897,759,75,62
49,283,28,74,773,803,64,59
46,264,19,73,683,791,66,53
55,207,15,55,623,772,72,50
61,175,17,46,528,735,76,52
62,153,19,36,458,720,90,57
59,130,20,28,353,653,85,56
56,117,20,29,334,655,82,54
49,109,21,28,327,588,78,53
42,112,20,29,314,540,77,58
42,114,19,29,306,516,63,52
41,109,20,28,305,584,64,53
47,105,19,25,285,613,60,54
42,106,19,28,286,646,58,54
39,103,19,28,289,675,80,49
37,98,18,27,275,674,83,51
40,102,18,27,277,605,84,63
42,103,18,26,283,564,83,62
52,104,19,24,280,521,92,62
54,144,20,38,352,493,73,59
57,312,19,106,549,664,62,59
56,338,19,124,618,691,62,50
55,372,24,130,684,754,77,62
47,386,22,132,743,763,69,63
53,380,21,131,738,748,66,68
60,272,22,89,675,655,68,66
64,244,22,64,646,663,66,67
61,193,16,49,600,580,51,55
63,168,18,44,548,576,57,56
57,151,19,36,561,590,68,57
47,132,20,29,487,510,66,55
40,120,20,26,443,456,68,57
44,111,21,26,405,467,70,63
38,109,21,27,439,449,78,60
41,155,20,46,658,523,70,56
42,275,19,80,1045,775,72,58
43,303,27,108,1087,789,87,62
45,330,32,112,1132,819,89,59
47,344,32,114,1192,878,77,65
48,339,32,110,1097,856,80,65
52,258,31,91,786,670,81,63
51,231,25,56,787,728,71,60
47,193,18,49,759,733,73,60
51,165,18,42,676,683,74,55
51,134,19,38,893,658,67,50
48,123,19,31,914,624,78,53
47,121,20,28,1015,534,71,57
43,116,20,28,1091,476,65,53
37,116,20,28,1081,447,64,52
39,149,19,41,888,503,61,53
44,262,25,71,963,780,52,51
44,332,35,75,1053,786,72,50
51,374,41,81,1089,792,74,51
57,389,46,90,1109,800,74,58
54,396,50,98,1127,751,100,69
54,348,50,95,1006,421,104,70
54,314,46,111,757,370,94,61
51,295,44,125,522,292,95,66
48,303,40,132,412,205,101,66
52,302,37,131,285,132,82,62
52,350,34,138,345,270,81,63
54,339,30,125,635,559,80,69
53,346,25,114,756,674,77,64
51,338,21,100,821,753,68,64
49,328,19,90,867,809,59,57
45,263,19,61,869,816,49,55
43,243,19,56,674,686,62,55
41,194,20,44,538,591,75,58
43,166,21,37,443,505,77,56
36,146,21,31,351,427,78,59
41,130,20,29,269,354,78,63
43,117,20,27,232,325,68,59
47,110,19,26,235,354,62,55
47,102,19,27,226,355,63,53
52,102,19,28,245,367,64,48
48,100,20,28,257,393,66,45
47,97,21,26,263,398,65,52
45,96,21,26,263,412,75,53
47,105,21,26,282,455,79,54
43,103,21,24,264,471,84,56
44,107,20,21,257,480,80,53
43,113,20,23,264,511,81,50
49,114,20,23,262,500,66,57
48,173,20,48,451,618,68,60
48,274,20,64,718,934,65,60
54,429,22,120,844,1291,64,61
57,552,30,153,908,1487,62,60
51,562,31,156,1020,1490,64,64
55,556,31,153,983,1452,58,61
54,516,31,148,854,1291,57,63
48,401,30,109,744,932,62,65
43,206,20,53,674,550,61,64
43,173,20,45,486,546,59,56
39,138,20,36,403,549,58,54
48,130,19,34,298,483,69,59
48,110,19,28,249,469,71,58
48,95,19,24,206,453,80,64
48,95,18,24,202,445,80,65
46,99,18,25,202,389,84,72
39,94,19,23,203,435,90,75
39,98,17,23,210,446,89,80
39,102,17,22,212,462,82,75
39,101,16,21,215,492,81,78
44,104,18,19,219,493,89,82
44,108,17,20,220,459,73,76
42,107,18,19,226,469,71,67
44,103,20,22,224,455,74,67
43,100,21,22,214,403,74,67
46,179,21,43,467,626,67,63
46,272,23,73,738,850,69,64
51,363,32,93,884,920,70,71
51,385,31,96,963,939,72,74
53,402,31,101,993,964,76,71
44,373,31,94,913,861,63,60
43,312,30,74,726,680,71,59
37,204,20,49,551,591,67,49
43,163,19,43,406,575,69,50
40,115,20,30,331,564,68,49
43,118,20,29,306,542,88,59
48,116,19,29,277,513,78,66
52,106,20,21,258,532,79,69
45,103,20,21,260,549,75,67
49,104,20,22,282,556,75,67
49,100,18,22,287,577,60,59
46,100,18,25,293,663,61,55
46,100,19,25,283,668,63,56
49,102,20,24,288,691,68,59
44,96,19,24,277,703,84,60
43,96,21,24,267,682,78,58
42,96,22,23,274,612,85,60
41,159,20,44,478,769,83,55
40,315,22,105,723,936,76,60
40,360,29,136,779,954,56,57
42,398,27,147,870,1004,72,58
39,416,28,150,974,1029,70,54
51,403,28,148,928,944,87,60
51,300,26,114,789,788,89,49
51,252,19,74,767,784,87,47
48,191,19,49,686,754,75,44
51,149,18,38,533,735,84,50
42,130,19,27,484,706,66,43
40,121,19,24,429,686,64,43
40,107,19,20,376,667,73,51
48,99,22,18,358,639,77,62
50,101,20,19,352,629,63,56
49,95,19,21,337,610,63,57
49,94,20,22,327,632,66,63
50,99,21,24,325,660,57,61
44,96,19,25,306,684,61,54
42,96,19,27,310,685,62,61
38,100,22,27,323,702,61,66
36,99,21,26,326,697,58,60
42,95,20,24,326,709,59,58
42,98,20,22,323,693,82,60
40,162,22,41,536,852,82,61
41,318,20,76,742,980,87,56
45,348,23,94,810,995,94,58
41,429,27,128,875,1084,92,55
43,447,26,132,964,1100,68,61
43,435,25,132,909,1040,71,52
44,342,24,115,786,966,66,53
42,319,21,102,760,966,57,55
41,204,16,57,701,863,58,56
42,169,16,48,592,896,57,50
42,157,18,33,533,854,58,51
39,150,18,32,475,796,63,52
44,134,20,28,406,762,64,49
41,122,21,25,381,710,63,48
36,105,21,23,350,642,59,46
35,88,21,22,329,592,66,50
41,81,20,22,320,576,59,48
39,93,19,25,350,584,60,54
39,93,18,25,346,615,59,56
42,92,19,25,351,620,58,54
42,98,18,28,358,626,51,47
48,106,20,28,367,676,62,54
47,98,19,26,340,675,62,47
48,146,20,42,447,712,64,50
46,267,20,64,709,891,71,55
49,404,25,112,815,1300,72,60
40,580,29,156,940,1497,63,56
43,591,29,160,978,1498,77,60
50,587,28,158,953,1477,79,59
49,548,28,152,813,1390,74,54
49,456,23,120,724,1020,65,50
48,188,19,52,560,643,67,51
45,149,19,43,496,626,53,54
38,126,18,36,456,610,74,61
40,105,17,31,392,563,73,62
37,97,17,29,356,561,82,64
44,93,18,27,340,586,82,63
44,94,20,26,343,584,88,59
48,92,21,25,342,586,70,48
48,99,23,24,345,607,71,47
49,103,22,26,356,615,64,55
41,101,21,26,352,608,62,54
42,100,19,23,335,617,55,55
41,105,21,24,361,624,58,60
40,99,19,24,364,612,61,65
37,100,21,22,351,597,61,56
39,148,22,40,448,688,63,58
37,258,28,71,591,724,56,52
34,324,37,78,943,775,52,53
36,356,45,84,1017,777,44,46
38,417,46,101,1082,807,46,51
42,423,46,100,1068,738,63,54
42,375,43,85,1028,707,67,59
45,331,34,83,764,665,71,62
44,301,25,77,668,671,78,66
44,209,20,54,561,626,74,61
39,167,19,45,533,614,64,60
41,143,20,37,471,607,68,58
39,120,20,28,380,583,63,50
38,111,17,29,371,572,62,46
39,107,18,27,351,595,60,49
39,107,23,25,333,615,57,47
42,106,24,26,346,617,45,46
39,104,24,27,349,609,46,50
38,104,25,27,347,606,38,50
37,105,25,27,381,605,81,59
38,104,22,28,381,569,85,58
38,107,21,28,372,538,94,57
42,102,22,27,364,530,96,56
41,147,22,42,419,532,94,55
45,242,21,64,593,706,77,56
44,300,26,118,650,739,78,56
39,355,30,141,719,760,78,58
40,386,29,151,747,777,80,60
43,405,28,163,725,776,84,62
38,380,28,159,715,779,70,51
45,368,23,130,767,833,76,56
47,329,19,108,785,883,72,56
43,302,19,94,791,896,67,58
40,265,20,70,802,885,65,58
40,312,20,74,762,848,67,59
40,416,24,110,759,1137,53,59
40,489,31,132,751,1318,55,59
50,558,41,147,825,1372,55,62
55,599,46,153,904,1439,52,58
54,590,45,154,983,1439,58,64
50,555,46,150,959,1189,81,61
53,487,47,135,965,917,81,70
48,411,44,129,894,778,87,63
44,362,44,133,801,625,89,64
45,330,46,138,624,424,86,57
43,241,46,121,536,299,65,54
40,287,41,137,425,249,82,45
35,304,35,131,582,537,77,46
38,315,28,121,701,652,75,47
37,313,24,107,763,778,74,48
37,306,18,96,797,853,72,51
34,258,17,60,802,892,50,44
39,219,17,52,681,804,57,51
34,167,18,36,546,762,61,53
35,134,18,30,428,658,58,57
36,125,19,25,374,607,59,56
46,115,19,23,332,608,53,57
40,106,21,23,296,569,63,58
41,105,19,23,311,553,63,56
42,103,19,23,317,562,71,52
43,99,21,23,285,550,71,51
39,101,19,22,281,547,70,49
39,102,19,25,290,571,64,49
46,98,20,25,267,556,62,49
47,100,20,25,280,561,55,46
47,104,18,26,300,592,66,54
43,103,18,28,303,580,65,55
45,101,17,24,286,563,53,46
41,149,17,43,394,725,57,48
40,273,17,62,654,886,61,52
40,340,17,101,710,1019,70,54
42,440,19,145,783,1245,72,53
44,461,20,149,901,1277,71,54
41,454,20,146,887,1194,68,54
38,393,21,139,745,1089,65,52
39,338,22,114,706,961,56,43
37,194,21,48,638,639,58,42
32,143,19,35,485,585,69,49
35,120,20,32,437,550,71,46
36,117,20,31,378,532,68,45
34,115,19,31,353,507,60,44
34,108,20,30,327,477,68,46
34,105,21,29,283,454,59,39
29,104,21,29,279,498,57,38
30,101,20,27,275,483,56,39
32,100,21,25,249,451,63,40
41,100,20,24,254,482,62,46
44,98,20,24,258,489,64,44
51,103,19,22,254,459,69,47
51,103,17,24,250,446,69,46
50,103,16,26,271,496,62,49
48,112,16,28,290,554,66,50
49,151,16,43,375,600,77,57
50,281,22,74,718,929,79,67
51,390,35,89,1026,948,79,68
52,486,43,104,1211,1002,79,64
46,498,43,109,1300,1015,71,66
43,503,43,107,1336,1039,74,66
38,452,40,93,1224,830,69,56
44,370,30,80,991,816,71,56
42,233,18,59,759,718,71,55
44,200,19,49,585,632,68,54
47,158,20,42,427,540,54,49
45,123,20,33,302,418,58,57
40,103,21,29,268,400,58,61
44,88,20,24,251,419,56,67
47,98,19,24,247,423,60,61
46,102,17,23,269,405,59,59
48,112,18,25,280,426,78,58
45,117,18,26,268,425,85,59
45,121,21,26,248,401,86,53
43,115,22,26,252,380,82,55
47,113,24,27,237,366,80,56
46,100,24,25,215,328,62,52
45,96,23,26,233,370,81,53
44,93,22,27,233,383,79,57
42,100,20,28,235,399,86,57
35,154,19,45,399,521,84,62
35,317,19,101,736,825,87,66
36,349,26,126,771,828,58,63
33,372,28,135,834,867,62,61
35,383,28,138,944,896,70,63
44,377,27,135,931,866,89,65
42,269,28,103,747,763,83,63
44,237,21,72,744,759,86,62
46,203,19,55,699,716,92,74
47,182,20,46,547,693,84,74
40,159,21,40,479,669,71,70
42,143,19,35,403,471,76,73
41,125,20,32,325,468,71,76
38,125,22,29,265,468,64,69
36,119,22,28,233,461,71,68
41,112,21,25,205,437,62,64
45,102,21,24,193,417,59,57
46,99,19,24,197,383,86,58
52,89,18,22,192,371,84,58
54,90,17,23,194,359,79,56
48,96,17,24,201,356,81,57
44,91,19,25,214,361,81,55
46,96,20,26,224,383,57,50
39,100,19,24,219,377,58,43
40,101,19,25,225,433,74,55
47,98,19,24,221,493,72,56
46,174,17,44,489,718,73,57
44,272,17,63,780,1020,87,60
44,390,21,110,826,1173,85,66
43,412,21,115,903,1167,76,60
37,418,23,116,927,1151,74,63
42,397,24,111,842,1048,71,60
38,336,26,102,593,754,53,59
38,188,24,48,541,490,64,60
39,135,23,36,405,546,54,55
38,114,22,32,356,534,57,51
40,103,20,28,296,502,58,53
44,101,20,25,280,572,54,47
47,100,19,23,254,651,42,40
45,104,21,22,263,685,52,46
48,108,21,22,272,736,53,46
42,111,21,24,287,764,51,45
40,117,20,23,307,746,52,45
39,115,21,24,321,701,51,43
40,106,18,24,307,606,54,38
38,102,17,24,303,583,55,42
41,107,17,22,311,583,63,49
40,99,17,22,279,545,63,52
35,163,18,44,480,691,64,52
43,258,20,61,729,941,62,55
46,405,31,108,864,1280,57,53
43,533,37,139,1006,1418,49,49
41,547,37,143,1063,1429,59,52
42,535,36,139,1012,1372,58,50
35,499,36,134,885,1252,57,47
31,395,29,100,771,900,59,48
37,190,22,52,578,657,71,49
41,146,20,39,486,666,62,49
41,129,22,34,434,646,60,48
40,114,21,29,365,588,60,47
41,97,18,25,332,613,84,49
38,86,19,22,304,616,82,61
35,81,20,21,283,602,83,58
37,85,19,23,285,611,85,64
37,86,21,24,290,717,82,64
40,84,22,25,318,723,59,62
37,88,19,25,320,767,55,56
44,90,20,28,323,789,65,59
44,95,21,27,325,781,65,56
45,101,20,27,330,690,63,55
44,107,20,28,322,684,59,55
47,169,20,44,517,792,54,49
42,282,26,76,753,981,49,56
48,318,34,81,1020,1011,62,63
49,396,36,94,1116,1048,63,62
49,410,36,99,1168,1067,70,66
47,395,36,95,1113,972,70,63
45,328,32,72,993,784,67,54
40,298,21,68,739,786,53,46
39,181,18,47,590,721,54,53
43,146,18,37,486,691,45,48
43,131,18,29,459,696,51,51
46,123,18,27,410,693,51,51
45,107,19,24,365,666,50,50
46,110,17,24,366,701,53,44
46,105,17,23,337,695,53,42
44,106,17,23,330,669,46,37
42,106,17,23,332,655,63,35
41,107,17,23,331,653,63,32
50,101,18,25,314,634,72,43
46,101,17,26,317,619,74,43
46,94,19,27,316,599,73,45
51,92,22,25,330,581,62,51
50,96,21,26,338,573,69,52
37,159,22,45,515,695,56,43
45,340,27,112,744,878,56,42
46,360,30,130,805,925,57,45
44,411,31,142,860,977,54,54
45,434,31,146,926,997,45,55
52,426,31,143,881,943,49,56
46,308,27,102,742,849,53,59
46,291,21,80,694,820,58,63
45,221,18,56,630,787,55,48
45,173,20,45,535,773,54,48
41,146,19,36,473,731,51,49
40,139,19,31,420,666,43,43
37,131,21,27,406,661,44,39
34,123,22,25,410,648,46,43
33,118,21,24,404,655,60,42
29,166,22,43,496,716,68,50
34,309,23,86,788,937,71,54
47,317,31,96,891,946,65,52
55,334,35,104,911,923,66,54
58,350,40,119,920,903,56,55
58,344,43,126,888,839,45,45
61,281,44,125,638,511,57,51
51,310,41,135,478,406,60,51
47,316,38,144,398,341,61,47
44,329,34,143,353,257,60,48
45,345,30,143,296,188,59,47
36,344,27,131,475,554,48,38
40,347,24,119,628,736,50,36
52,329,22,100,733,846,84,48
51,305,20,85,780,929,87,46
52,276,18,65,803,991,89,50
54,221,18,46,726,890,89,51
58,159,17,32,611,808,91,57
47,155,18,30,504,771,67,53
45,144,19,29,453,710,63,54
43,131,20,28,428,683,59,51
44,118,21,27,394,649,59,50
42,107,23,26,370,610,58,47
40,96,22,25,366,630,55,43
42,91,22,27,344,630,59,44
43,89,20,25,327,607,64,48
41,89,20,26,328,639,64,54
37,91,18,24,313,640,58,50
36,89,17,24,303,591,53,51
35,94,17,26,343,617,65,60
38,96,16,27,347,648,61,59
36,105,16,29,356,686,65,54
37,138,15,38,392,690,65,57
38,237,18,52,573,848,70,56
41,317,22,83,638,1122,61,57
44,459,30,125,757,1336,64,61
51,529,40,140,853,1343,60,60
54,540,41,142,946,1433,68,63
59,520,40,141,898,1373,63,63
58,481,39,126,878,1159,85,57
54,352,35,87,798,924,88,49
53,235,23,59,703,869,91,52
51,192,22,48,551,750,85,52
44,146,22,38,456,713,86,60
43,123,20,34,391,731,73,61
46,107,17,31,338,709,85,71
48,106,16,32,303,730,82,75
46,99,16,27,309,678,82,69
49,100,15,26,322,680,80,67
53,103,18,25,295,657,76,68
51,107,18,23,311,628,58,59
49,106,20,24,309,596,79,62
50,115,23,24,286,596,79,64
51,117,23,25,289,541,80,63
47,116,23,26,294,491,72,61
48,117,24,26,279,462,68,59
43,113,24,25,287,447,72,66
44,144,21,41,346,479,73,69
38,256,22,72,579,682,72,68
40,278,31,97,663,716,75,80
41,314,35,109,722,740,89,83
48,334,40,122,745,757,69,72
52,332,40,119,803,792,72,76
57,284,40,108,706,677,84,84
59,269,33,88,673,689,85,80
56,236,28,75,646,714,79,76
56,206,21,53,629,738,79,77
53,189,20,50,525,737,78,69
49,147,20,40,444,715,73,61
45,130,19,32,378,693,70,50
57,113,18,25,301,666,89,59
53,111,19,25,275,641,87,59
53,104,20,23,291,618,84,59
56,96,19,20,289,593,77,58
62,100,20,24,278,589,94,69
53,104,20,25,297,602,84,63
50,105,20,24,300,594,86,62
48,105,18,23,276,562,88,62
42,111,19,25,290,597,87,59
38,110,19,22,298,602,80,62
37,101,19,21,281,563,82,68
46,99,19,23,281,588,89,69
49,143,19,38,356,628,93,70
49,250,20,67,626,785,95,71
42,310,30,97,697,813,84,55
44,326,33,102,757,849,69,48
38,348,32,107,864,854,76,49
38,356,32,106,862,829,83,53
46,294,30,92,726,674,89,61
49,231,21,58,683,625,88,64
47,213,17,50,644,596,85,61
45,176,19,39,489,542,71,56
46,119,20,27,442,507,56,51
38,111,22,25,390,457,59,41
38,106,23,25,339,550,63,38
36,101,22,24,285,541,71,40
39,102,21,25,289,538,70,44
35,101,21,25,288,544,69,40
36,104,19,26,259,546,57,43
35,103,17,26,266,437,69,48
39,100,17,26,264,406,63,50
33,98,16,25,244,498,65,47
33,98,15,27,240,555,66,46
35,93,15,24,234,545,65,42
39,95,16,24,234,563,72,44
44,99,16,25,245,571,74,43
46,145,16,39,355,576,72,44
52,259,17,58,698,838,72,56
55,335,19,94,744,1149,73,63
55,494,19,147,815,1420,54,59
51,511,20,150,935,1495,60,58
54,506,21,149,928,1503,75,64
55,460,22,143,753,1378,79,57
51,424,22,126,777,1188,79,59
46,229,22,57,721,857,86,58
45,193,21,50,565,735,80,62
42,182,21,46,535,666,70,61
33,174,20,44,466,589,76,59
35,135,21,34,336,478,78,53
39,117,21,31,286,436,67,53
39,110,21,28,286,406,68,55
45,100,22,27,265,383,75,53
45,110,21,29,282,406,68,55
42,110,21,28,292,417,77,57
39,116,20,27,319,483,80,56
42,122,20,28,306,479,79,52
35,119,18,27,299,484,70,54
35,118,21,28,301,551,72,56
36,120,20,27,297,543,66,56
36,111,21,27,269,480,62,55
35,158,21,46,378,630,73,60
32,273,25,75,704,913,69,55
31,310,35,78,987,893,70,53
46,378,42,86,1086,917,70,50
48,393,42,90,1188,978,70,49
47,391,42,83,1195,905,57,41
51,329,41,60,1063,637,68,45
51,300,31,59,834,640,62,43
43,213,19,51,918,616,60,41
49,188,21,46,940,518,60,43
51,152,20,41,948,488,61,48
50,133,19,39,926,453,55,45
52,117,19,33,896,410,66,45
47,108,20,29,688,412,70,49
48,107,19,26,451,431,72,51
45,105,19,26,313,469,70,45
46,120,20,29,310,518,71,53
46,123,19,30,325,539,65,56
48,121,18,30,291,554,73,60
47,118,17,30,286,548,71,60
47,119,19,29,279,519,74,61
44,105,19,26,252,491,72,54
42,99,19,24,240,480,71,48
40,97,20,23,218,432,53,42
32,96,21,22,226,575,65,47
32,104,21,27,249,590,64,50
37,101,22,27,235,567,65,52
37,99,21,26,222,557,62,51
39,100,20,27,226,586,74,53
43,169,20,45,454,609,70,48
52,261,20,60,725,826,69,55
49,285,24,75,773,864,68,51
50,335,28,108,801,976,67,51
48,353,29,112,900,990,51,44
42,347,29,107,863,909,50,54
31,289,29,100,700,735,66,49
35,269,25,90,679,716,75,58
36,211,20,46,664,575,76,61
36,180,19,38,535,550,77,66
37,133,19,31,443,540,71,58
38,124,19,25,377,521,57,54
35,116,18,24,321,498,45,48
32,103,18,22,287,471,63,54
48,101,19,23,277,489,70,55
50,99,20,27,381,470,73,52
51,90,20,29,631,472,72,51
53,94,20,32,639,604,70,49
53,95,20,34,660,596,54,46
44,96,20,33,659,616,46,42
42,98,18,32,607,692,43,42
40,174,17,51,518,910,47,48
42,269,17,63,734,1084,48,48
41,337,20,103,767,1298,55,40
40,469,19,146,836,1524,65,51
37,476,21,147,910,1510,63,51
41,460,22,143,845,1400,59,49
38,416,22,139,704,1241,58,48
40,365,20,112,683,1056,50,51
39,168,20,45,612,661,60,54
49,147,20,42,500,624,69,65
49,127,21,34,451,609,79,67
46,109,19,29,379,573,83,69
46,99,20,29,313,524,84,68
49,96,20,26,289,551,70,57
45,98,19,26,288,582,92,54
55,94,19,27,276,592,88,54
59,98,20,26,280,609,87,59
62,100,20,25,296,707,87,60
58,99,20,23,300,714,86,62
61,100,18,25,292,722,96,70
50,99,18,25,299,708,99,71
49,98,17,26,310,701,99,66
46,101,18,29,311,627,99,66
47,106,18,29,319,613,124,70
48,161,20,47,501,789,105,73
53,278,24,76,736,984,102,72
55,365,37,85,1091,1006,102,77
64,455,44,98,1238,1006,103,78
64,468,44,100,1300,1042,111,79
59,460,44,96,1261,938,101,65
59,406,42,76,1165,768,99,64
57,339,31,68,867,764,99,56
48,208,20,48,659,758,97,60
54,177,20,43,541,714,98,69
57,154,17,36,503,699,99,69
51,133,18,33,438,659,105,73
61,110,16,28,385,633,105,73
61,105,17,28,357,641,106,71
61,101,17,28,326,661,72,56
63,101,18,26,318,646,89,61
70,113,18,27,327,667,88,62
64,112,19,27,320,666,89,70
63,103,19,26,314,651,92,67
61,101,20,24,326,619,92,68
57,99,19,22,311,605,75,62
59,95,20,20,314,577,72,69
53,99,20,20,325,573,74,66
52,165,19,43,509,726,70,64
52,333,23,105,799,836,66,64
57,349,30,117,870,899,65,62
60,400,32,129,911,916,65,53
63,415,34,132,983,953,61,49
67,409,34,130,948,882,66,52
73,296,32,89,752,797,66,54
72,287,27,75,702,740,65,56
65,220,22,54,673,751,65,59
68,191,21,47,566,699,66,60
69,158,22,36,483,660,63,60
65,151,20,33,451,659,55,59
60,128,19,28,403,630,61,62
58,110,19,23,360,606,70,58
56,110,20,24,369,631,94,61
70,117,18,23,356,616,97,65
73,109,19,23,342,598,102,78
78,115,21,25,356,627,109,84
80,111,21,27,351,628,100,82
87,106,19,26,342,585,81,80
78,92,19,27,361,613,103,85
77,149,20,43,457,683,106,74
77,362,21,113,713,830,94,64
77,383,26,132,773,854,94,67
69,437,26,144,830,913,89,65
69,458,26,150,872,904,62,54
70,446,26,147,848,868,66,58
73,308,25,106,677,756,65,63
72,287,19,80,640,732,65,58
70,198,19,57,581,693,72,56
64,147,19,43,518,688,70,55
60,141,20,41,507,766,63,51
54,125,21,35,469,746,81,48
65,126,22,34,444,768,89,51
70,131,26,34,450,786,88,57
69,133,25,34,445,779,89,53
68,127,24,31,414,693,81,54
65,124,23,31,409,649,78,56
56,121,21,32,409,621,69,51
57,110,19,29,373,578,64,51
55,104,18,28,377,600,64,57
56,97,20,28,375,581,62,61
57,145,21,44,438,688,45,55
65,247,20,64,628,842,63,63
60,307,25,100,702,863,62,60
63,349,33,110,733,847,59,55
64,360,36,114,754,834,60,51
63,354,40,112,723,759,63,51
57,311,41,107,647,547,46,47
58,285,37,80,612,558,70,53
57,335,31,104,579,953,75,57
55,420,29,130,586,1256,78,67
65,506,32,147,679,1422,82,68
61,557,38,155,706,1515,83,67
61,552,39,154,704,1515,78,66
62,507,39,135,759,1316,87,68
62,439,36,108,775,1063,86,57
55,333,28,80,703,837,80,56
56,213,22,56,590,686,89,58
54,178,22,50,553,677,78,55
57,148,21,39,470,645,67,52
61,127,21,34,383,590,73,52
69,107,22,30,353,559,79,54
68,100,18,27,337,528,70,49
71,103,17,30,318,594,69,50
71,109,17,31,305,705,66,52
69,108,18,28,305,732,62,51
62,109,16,26,293,738,61,60
59,112,16,25,297,752,60,62
53,114,18,22,296,678,60,63
54,112,21,20,284,559,57,61
51,109,20,23,278,549,63,64
51,108,21,24,280,567,62,56
54,151,21,42,324,575,78,58
63,273,27,82,553,700,85,68
63,299,34,88,724,732,88,77
73,335,40,96,815,740,80,74
71,373,43,106,863,784,73,72
67,374,43,104,886,765,61,69
63,310,38,80,805,656,56,66
58,296,31,76,721,674,56,62
47,263,23,69,651,681,57,63
57,209,18,54,588,609,56,61
65,176,18,45,524,604,67,70
68,151,18,38,463,604,69,67
69,128,18,34,349,534,67,59
69,110,18,25,283,492,67,59
64,104,18,23,285,525,89,66
67,106,19,22,292,531,81,59
63,110,19,21,285,507,78,53
65,111,20,22,303,566,84,64
65,114,21,24,302,585,92,66
64,112,19,28,288,564,91,62
56,109,18,30,286,576,101,70
55,105,18,31,278,565,96,70
56,104,17,29,256,501,104,69
52,100,16,27,260,480,110,71
60,101,17,24,261,451,107,79
60,143,18,34,327,476,102,71
71,250,19,55,615,740,114,84
72,317,23,91,670,749,112,89
73,328,29,93,717,759,103,89
66,350,29,97,865,933,98,84
64,362,28,99,902,927,93,85
71,302,27,90,782,794,87,71
68,234,24,55,771,812,88,80
68,225,18,51,740,809,89,80
74,190,16,42,568,613,84,84
75,133,18,30,478,600,86,91
65,124,18,27,403,523,79,92
66,118,18,28,331,466,80,78
67,102,19,29,303,465,76,86
62,102,19,27,281,442,77,82
65,104,20,27,256,426,85,79
62,99,21,30,261,440,92,80
67,96,23,28,263,448,82,74
67,99,21,28,264,421,79,62
64,101,22,29,281,450,84,80
65,96,21,29,272,425,85,91
66,103,20,25,285,418,79,91
61,104,18,24,286,429,95,101
64,104,19,24,277,433,121,107
66,101,20,25,276,420,116,92
61,159,21,40,375,541,111,79
56,259,19,61,682,824,120,79
59,300,19,87,723,1103,142,75
64,503,21,141,810,1434,123,63
67,522,22,146,905,1564,123,67
66,519,22,145,929,1544,122,69
68,483,23,139,800,1468,122,64
76,464,23,126,802,1303,82,56
69,248,19,64,746,937,80,58
68,205,17,52,630,692,95,55
70,179,18,47,544,665,98,59
73,165,19,43,444,547,86,60
61,151,19,40,379,460,87,71
61,118,21,33,313,421,91,72
60,116,22,34,302,424,78,77
59,108,21,30,290,403,74,71
60,103,20,30,262,386,75,80
62,103,20,27,239,377,71,74
64,101,18,27,231,401,75,76
64,101,16,24,231,391,72,70
63,108,16,24,228,387,72,70
67,107,17,22,219,370,76,63
69,108,18,23,224,364,84,55
67,111,19,25,231,350,78,53
67,113,19,27,223,365,84,67
67,108,20,29,239,381,85,68
71,156,20,42,347,507,82,70
67,254,20,62,714,838,75,80
67,286,28,97,732,868,77,76
67,323,34,104,777,887,87,76
67,351,34,110,936,1065,86,74
55,364,33,112,961,1062,89,77
69,311,33,104,795,894,88,69
75,282,28,72,800,892,89,91
75,240,19,62,758,875,79,85
77,197,18,49,561,655,78,88
75,131,19,34,458,582,70,85
66,108,19,27,336,510,78,84
62,111,16,27,289,468,92,72
66,111,19,26,274,475,96,74
63,107,20,21,242,480,96,83
64,111,19,23,230,478,113,82
58,119,22,23,220,448,110,82
55,113,22,21,207,435,97,81
46,111,23,24,211,427,90,78
51,110,24,25,193,390,90,67
54,106,24,26,175,374,75,71
55,95,22,29,181,369,82,75
55,101,23,30,180,370,85,68
63,97,20,30,167,376,102,71
73,99,20,29,182,413,103,76
75,102,19,28,193,415,96,68
77,176,18,46,467,630,89,63
78,238,18,57,705,869,82,67
72,268,25,65,780,887,81,63
63,354,26,82,961,1020,83,64
59,369,27,85,1011,1041,86,70
56,350,28,77,966,962,84,73
56,314,28,69,837,780,107,74
65,292,23,62,782,769,97,78
68,180,21,39,550,596,93,69
75,147,21,29,458,586,92,65
81,126,19,27,354,541,116,71
78,114,19,25,279,489,102,65
73,107,20,21,261,481,96,58
71,107,20,22,256,482,98,67
63,102,20,23,239,451,112,69
58,97,21,22,228,468,85,62
70,96,19,22,238,496,80,70
70,95,19,22,214,487,82,75
69,89,21,20,210,613,86,76
73,95,19,21,245,735,73,78
70,91,19,23,237,748,76,80
64,95,20,26,242,787,74,74
63,94,19,28,267,815,85,70
66,96,19,29,256,728,81,63
63,163,20,47,470,769,78,67
63,240,20,59,703,961,75,69
64,357,28,103,792,1276,76,73
68,492,36,132,875,1498,80,77
63,516,37,137,931,1551,83,78
63,512,37,136,887,1496,82,76
62,483,39,131,759,1393,91,71
58,406,34,100,682,1105,90,82
53,230,25,57,587,773,85,79
53,168,24,43,508,669,81,79
47,119,21,28,425,662,78,73
56,108,18,26,355,630,70,72
54,103,18,22,325,617,68,53
54,102,17,22,300,638,58,53
52,96,17,25,289,643,60,59
53,97,17,24,278,638,60,58
56,96,17,25,281,640,55,54
57,91,17,27,296,645,58,57
57,99,17,33,301,638,65,56
61,103,17,31,318,648,64,55
72,106,20,32,333,655,63,62
65,114,21,32,350,650,66,69
63,116,20,30,342,645,71,76
67,169,22,44,511,816,86,81
73,301,24,81,801,1012,92,89
72,354,34,92,1044,1028,94,86
73,395,40,97,1093,1011,95,84
73,417,40,101,1172,1045,97,88
68,416,39,100,1143,956,77,81
61,337,37,74,980,735,72,71
53,285,29,60,731,711,78,73
63,227,19,55,675,759,76,75
73,186,19,46,532,716,78,73
75,139,21,36,453,659,80,98
86,131,23,32,405,646,75,95
87,122,21,30,369,658,73,97
80,122,20,27,329,640,84,96
70,120,19,25,317,637,77,97
72,124,17,22,368,682,76,81
67,133,16,23,385,727,88,89
68,134,17,21,387,712,89,92
69,133,19,22,407,712,80,100
79,138,20,22,412,723,76,90
82,130,21,21,356,656,76,85
78,118,22,23,340,622,91,82
78,124,24,26,343,629,90,81
81,163,25,44,465,707,114,96
74,330,25,106,773,948,115,98
85,364,29,129,836,981,115,107
80,388,30,139,863,968,95,103
83,400,29,142,949,993,90,99
82,395,28,139,927,1017,65,74
86,279,28,101,735,833,98,97
77,249,26,72,703,822,98,90
78,213,24,51,693,860,97,89
78,185,24,41,569,834,99,90
73,157,23,35,501,741,93,88
74,138,21,33,437,678,81,64
67,113,19,27,369,717,80,63
68,117,19,26,343,694,88,67
61,114,18,40,697,708,88,68
68,124,18,43,871,720,90,81
61,127,20,45,1040,739,86,77
61,124,20,44,1087,705,89,81
66,117,20,44,1107,718,80,84
68,124,21,32,948,697,88,95
71,114,22,27,805,678,85,96
70,105,21,24,565,648,76,102
69,98,19,26,472,633,78,99
77,94,18,23,414,579,82,105
75,88,18,24,346,568,69,94
68,91,17,24,304,591,71,83
69,94,16,24,304,615,71,81
72,99,18,24,301,624,62,82
72,99,19,26,302,661,58,70
74,111,18,30,371,688,66,71
73,117,17,31,371,682,72,69
74,121,18,31,376,679,62,62
70,117,19,31,382,656,65,68
74,119,21,30,373,687,74,68
71,118,22,28,364,727,71,71
70,112,21,27,370,778,84,76
69,155,21,45,434,849,87,77
72,266,20,65,645,970,94,77
66,292,28,101,683,949,87,88
69,311,34,109,718,898,90,89
72,331,38,131,729,827,81,89
73,348,37,132,845,977,88,97
75,306,37,128,787,909,94,92
64,291,31,105,804,971,96,76
63,284,23,102,788,993,96,80
68,358,17,94,826,1006,97,76
77,351,23,101,715,826,94,69
76,348,26,110,637,862,86,82
76,368,28,129,589,928,91,82
72,403,28,144,558,1183,126,84
71,393,32,154,506,1357,121,85
69,416,33,154,503,1414,129,118
64,433,38,148,578,1351,132,112
67,428,44,132,666,1233,130,115
82,395,46,112,745,951,96,109
81,328,46,77,762,642,109,121
78,269,44,57,733,361,97,88
80,246,41,51,671,328,89,85
80,247,36,62,571,299,89,109
68,296,33,74,620,509,88,111
68,326,30,86,661,634,74,101
66,330,27,85,689,713,78,122
69,303,23,82,704,794,79,125
69,282,19,72,730,851,80,106
67,216,22,56,593,753,75,103
68,162,20,35,496,674,66,123
71,155,20,31,440,652,76,110
75,148,19,25,378,591,80,107
75,143,20,23,326,540,76,105
78,132,16,24,426,572,89,109
79,121,18,25,470,565,90,81
71,109,18,26,459,526,84,84
64,104,19,29,459,501,81,86
62,95,18,27,446,483,82,85
61,141,18,41,362,417,70,87
56,315,20,102,583,668,80,94
56,335,25,122,654,708,72,84
63,371,30,135,700,729,72,80
60,405,32,149,749,757,69,81
64,438,34,164,801,852,92,80
69,347,33,136,731,738,92,79
74,348,29,124,739,745,98,96
67,319,23,111,737,781,95,97
68,288,20,92,726,791,98,98
71,219,16,57,674,754,89,104
69,199,16,53,555,687,85,101
70,164,17,43,455,642,84,85
73,150,16,37,404,629,86,96
74,129,18,34,339,604,83,107
67,149,20,43,322,565,72,102
65,257,28,67,545,719,76,100
67,332,39,72,932,730,78,109
70,394,46,78,1103,704,81,98
72,453,48,92,1167,725,96,89
73,463,48,94,1226,721,93,87
74,420,44,81,1180,594,91,91
77,372,35,79,958,641,88,75
75,308,25,74,761,622,84,86
74,213,19,56,664,584,86,87
76,164,17,41,538,580,90,84
76,144,17,36,446,584,90,109
76,120,15,30,320,555,84,114
74,105,16,28,296,620,84,112
81,109,16,25,275,626,76,111
81,116,16,24,267,622,72,111
77,123,17,24,308,609,66,85
71,125,20,25,306,591,69,76
69,126,19,28,296,556,73,69
59,125,19,28,313,603,75,69
50,115,19,28,302,578,74,73
54,116,20,32,278,554,81,68
53,114,18,31,281,532,84,92
62,112,18,27,271,501,90,96
67,105,19,27,259,424,84,97
69,160,19,44,390,503,86,93
70,257,21,60,655,859,86,93
66,331,20,114,709,868,93,73
74,342,21,119,743,869,95,76
70,359,20,125,896,987,94,69
84,363,19,125,930,988,94,68
88,303,19,117,816,770,90,68
91,223,20,67,801,789,81,77
87,216,18,60,790,808,85,80
89,194,20,45,621,669,87,82
83,152,21,32,502,649,89,96
80,148,19,32,414,558,91,95
75,169,18,32,390,580,90,102
77,177,20,34,386,607,77,102
74,183,20,39,404,633,74,101
73,223,21,53,492,704,69,95
72,353,24,96,753,948,69,108
75,351,33,108,781,913,66,95
67,362,39,118,801,882,56,88
68,391,41,136,805,866,59,92
69,401,43,149,761,778,66,103
74,333,44,143,500,428,64,89
71,378,39,152,409,371,70,93
79,386,34,154,310,293,76,99
77,393,31,148,240,208,74,98
74,383,28,134,496,426,106,88
69,393,25,122,661,601,105,91
72,350,24,100,727,697,103,94
66,323,23,84,768,747,109,92
67,273,22,64,796,832,129,92
61,238,20,54,658,754,117,94
63,161,18,41,511,690,122,111
67,150,17,39,438,620,121,107
65,148,16,40,410,608,113,111
65,144,17,39,359,525,105,118
71,152,17,43,368,518,101,123
72,138,19,38,336,454,94,106
65,139,19,38,342,480,95,106
59,126,20,35,305,464,99,102
75,129,19,35,313,455,94,94
77,120,20,29,288,453,87,90
84,135,20,30,315,458,99,93
88,125,19,28,278,445,100,103
90,127,19,29,275,467,96,95
84,130,18,27,270,469,85,99
79,129,17,29,264,489,78,91
71,179,16,45,430,669,83,95
65,248,17,54,730,891,80,84
72,351,20,95,811,1222,93,90
65,505,29,136,883,1486,96,86
64,522,29,142,993,1526,94,89
84,515,30,140,976,1495,80,90
90,489,31,138,801,1384,94,93
86,424,30,114,733,1099,87,89
94,217,22,60,650,708,84,84
98,185,22,44,473,625,125,87
86,164,20,40,371,606,125,85
91,164,20,35,319,580,119,104
90,156,19,33,272,566,121,112
91,152,17,31,255,555,144,132
101,137,17,32,258,564,112,127
95,123,17,28,233,475,112,126
89,105,20,29,234,509,115,108
89,103,21,28,243,492,117,113
96,109,21,26,224,520,93,91
84,107,22,29,227,559,93,96
90,110,22,30,226,604,87,89
90,117,19,29,212,636,79,87
93,121,19,32,229,656,73,75
76,116,19,33,228,621,71,100
75,192,19,52,475,818,65,99
75,290,21,78,734,1098,74,106
72,324,32,88,905,1074,75,129
74,373,38,93,942,1078,71,127
87,401,38,97,1041,1114,66,115
88,386,38,91,982,978,74,113
90,319,36,71,829,632,81,110
92,284,27,59,662,626,85,87
86,217,16,49,619,615,81,83
75,170,15,38,449,604,82,78
70,133,14,29,393,584,73,74
69,136,15,27,347,593,69,76
70,134,16,27,316,605,62,82
73,130,18,30,292,629,70,83
69,117,18,30,272,632,69,75
76,112,19,31,264,605,70,87
69,109,19,30,297,664,82,82
74,106,18,28,296,653,80,66
77,106,18,31,287,638,88,80
82,107,20,32,309,594,88,84
79,106,23,30,311,616,94,76
83,109,23,29,289,532,76,74
76,108,23,30,285,522,80,89
71,106,23,26,293,536,65,76
63,179,21,47,509,887,91,80
61,308,18,93,765,1144,87,92
68,372,18,124,816,1158,87,98
66,421,19,135,862,1167,86,90
66,440,18,136,936,1196,86,89
74,428,19,134,871,996,78,88
77,350,20,107,709,719,80,75
73,283,22,70,680,742,84,79
71,211,20,46,646,742,81,101
73,174,21,42,543,736,81,104
66,147,21,29,501,769,78,102
63,138,21,28,436,732,81,105
66,130,19,25,393,687,84,105
68,114,21,26,357,692,83,80
69,103,19,22,351,660,85,96
70,88,20,23,330,607,83,99
68,85,19,24,325,601,78,95
56,83,20,26,337,605,84,92
54,92,19,27,344,609,97,98
51,94,18,29,329,635,95,79
54,91,17,29,327,649,91,109
55,94,18,29,322,680,91,108
57,163,16,49,500,813,81,104
58,317,19,92,727,969,87,107
68,340,26,99,794,961,91,109
73,405,30,120,833,966,89,73
77,413,29,122,898,978,85,74
73,403,29,117,862,912,83,73
77,299,27,88,729,770,77,62
64,281,21,79,688,757,81,61
64,189,16,47,676,776,83,63
62,172,16,42,592,774,86,94
64,143,17,35,512,737,84,94
59,135,18,32,447,716,74,99
60,115,18,32,398,702,83,100
56,94,18,31,335,660,84,104
59,97,19,31,321,634,87,80
58,102,19,32,306,640,85,79
59,101,19,30,292,625,85,75
60,108,18,29,300,645,78,95
71,106,18,22,296,647,70,89
71,101,18,22,295,643,73,93
72,97,18,23,325,646,79,94
74,98,19,23,318,647,78,91
73,99,19,24,319,623,72,75
67,105,20,26,343,630,70,76
63,158,19,39,449,700,62,66
68,297,21,62,711,901,62,72
70,404,26,104,838,1304,70,73
76,565,32,139,984,1513,80,79
79,572,31,141,1017,1522,84,80
81,569,32,140,1007,1501,86,81
79,513,31,132,863,1398,81,80
74,436,27,103,772,1036,74,79
66,192,21,46,596,708,67,73
56,169,21,40,539,689,64,71
61,140,19,28,485,650,56,67
71,132,18,29,452,619,65,64
75,122,20,27,402,619,61,67
92,108,21,25,373,624,57,73
92,104,20,27,368,615,55,72
87,98,21,27,348,646,58,74
77,94,22,25,336,653,54,74
79,98,20,23,352,649,69,75
72,98,18,22,343,643,63,67
67,98,19,19,334,629,66,67
73,105,17,20,354,602,66,77
76,109,17,19,338,586,66,79
73,107,16,24,346,581,72,89
62,151,17,41,413,637,104,84
63,284,22,75,609,743,107,83
66,341,34,78,931,790,107,97
66,377,40,87,1019,791,108,94
64,431,45,98,1074,823,101,83
71,431,45,97,1083,837,72,84
72,368,43,77,1011,757,71,85
69,329,35,77,774,733,69,65
67,295,27,71,692,772,66,68
69,213,17,53,600,752,56,69
60,188,21,46,544,697,58,75
57,165,20,40,492,668,65,81
54,138,21,34,408,654,77,81
64,118,21,25,345,621,75,78
70,108,21,23,317,613,77,75
70,108,18,22,310,612,87,69
75,108,17,26,312,634,91,67
72,113,15,27,296,624,86,59
67,109,16,28,301,603,85,61
64,109,16,29,309,580,84,62
72,105,16,30,300,564,96,69
65,111,18,27,301,568,92,70
71,111,19,26,303,563,88,82
70,124,20,27,298,561,90,82
72,174,21,42,357,605,92,87
70,354,22,105,518,698,67,80
76,374,25,124,616,745,57,73
79,426,24,132,701,791,58,63
83,441,24,136,744,772,57,77
87,432,24,133,748,743,63,76
85,309,22,94,695,669,66,79
85,286,18,68,629,625,86,85
77,203,19,51,537,540,88,85
78,161,17,40,474,550,89,85
82,143,18,37,427,540,99,85
81,130,20,35,343,525,103,83
79,126,20,33,298,495,89,83
80,114,21,30,288,533,90,86
80,111,22,28,306,535,93,74
67,104,21,27,295,529,77,66
74,102,19,27,588,530,73,75
75,93,18,27,761,518,82,74
78,96,18,27,770,482,83,69
76,100,18,28,767,501,77,66
83,101,16,29,773,508,76,71
76,100,16,26,586,473,67,59
77,102,16,27,346,496,62,64
78,101,17,30,316,523,93,81
82,101,15,31,294,505,96,92
74,101,16,30,281,517,97,91
72,100,18,30,260,545,98,89
68,99,19,31,227,524,99,81
67,106,18,28,247,514,84,72
59,110,18,27,262,514,85,66
61,118,18,27,262,520,86,68
74,123,17,28,287,517,87,68
80,122,17,26,292,516,79,69
78,118,18,26,267,489,76,69
84,114,20,26,277,501,89,74
82,108,20,26,271,472,91,76
72,103,21,27,241,491,95,97
67,159,21,45,320,561,96,104
72,293,25,94,552,744,81,105
65,326,29,120,623,767,71,106
74,364,30,131,748,864,75,115
74,376,30,134,855,868,75,105
82,362,29,130,844,830,73,98
78,272,26,103,765,741,79,94
75,240,19,73,732,737,93,96
68,177,17,51,617,640,92,83
74,154,18,44,471,658,91,79
76,142,16,37,453,674,92,84
71,131,18,31,375,598,85,91
78,114,18,24,329,567,58,80
78,113,19,27,306,532,106,99
78,107,18,26,298,455,106,100
67,108,19,25,282,415,109,95
68,106,16,26,281,444,111,87
67,103,17,25,272,430,118,90
68,103,18,24,269,430,74,70
68,107,19,24,262,439,79,66
69,104,19,25,259,430,76,91
74,99,20,25,257,398,81,98
68,104,20,27,244,389,72,97
64,102,19,26,262,408,70,92
65,149,18,40,356,543,69,94
68,303,23,85,657,906,81,96
65,312,28,93,697,913,75,90
65,392,30,122,790,1093,77,88
67,403,29,124,883,1101,77,86
72,393,30,121,876,1042,79,90
74,295,26,96,727,776,76,93
75,295,21,89,722,787,74,99
73,200,20,54,662,568,72,101
78,190,21,52,555,588,76,105
75,187,20,50,524,584,91,114
68,182,22,49,472,543,80,93
75,169,21,47,419,503,89,96
81,137,20,33,345,489,91,95
77,125,19,29,296,494,89,94
74,115,19,28,273,514,71,77
81,109,17,29,256,543,75,82
79,129,17,31,263,568,80,77
95,142,19,30,270,523,81,79
100,141,18,30,263,455,84,82
100,148,19,31,265,431,80,83
107,150,21,29,249,391,76,75
106,129,23,28,227,338,63,70
90,114,21,28,225,342,63,76
91,105,22,28,236,362,79,100
88,102,21,30,231,406,77,98
73,138,21,48,363,547,77,98
79,260,25,67,707,810,73,103
84,338,39,75,998,841,70,109
79,445,44,95,1164,913,74,95
83,453,44,97,1243,953,74,103
87,458,44,94,1231,898,72,101
79,406,41,84,1101,714,79,104
74,348,29,78,867,713,80,90
76,200,21,53,636,639,56,86
78,182,22,48,466,552,61,81
80,143,20,40,522,522,78,87
77,130,20,34,469,467,73,75
82,121,19,32,443,427,74,92
77,112,19,27,430,463,76,90
73,105,20,31,432,661,79,88
66,106,21,29,299,721,69,85
82,115,19,31,279,745,66,86
79,111,18,29,245,752,64,68
83,116,18,31,237,723,60,78
83,116,16,27,232,624,66,85
89,120,16,27,221,565,58,85
78,126,19,27,233,552,63,85
71,131,20,27,247,528,63,86
74,122,19,26,300,579,74,83
70,176,20,48,694,697,71,84
74,301,22,94,875,889,80,93
75,380,25,112,966,954,78,91
78,393,25,115,999,1010,78,89
68,404,25,118,1017,1036,84,78
65,385,25,111,830,911,75,69
54,300,24,77,668,734,69,73
65,189,19,47,539,726,73,76
63,159,17,40,479,737,77,77
68,142,18,31,406,703,94,78
72,144,19,30,339,706,93,80
79,135,18,26,281,705,91,70
72,129,18,23,275,635,91,78
70,121,18,22,263,537,85,75
68,110,17,19,252,570,41,72
66,103,16,21,263,617,64,78
56,96,17,22,242,632,70,75
60,94,16,21,208,706,68,63
62,101,18,22,231,707,68,63
59,99,21,21,225,622,72,81
57,99,21,21,213,583,52,78
64,105,20,22,228,561,42,83
61,100,21,23,225,437,75,85
58,156,20,39,443,561,82,88
60,304,20,93,706,836,82,71
78,331,24,100,757,859,87,63
80,375,29,110,823,926,88,54
76,391,29,114,906,962,61,50
76,377,30,111,848,913,50,44
88,278,29,73,693,709,93,75
81,253,25,66,665,715,90,83
73,181,19,48,600,665,91,95
89,144,20,40,478,687,94,98
90,133,19,34,431,678,94,98
82,118,19,35,372,653,54,81
83,99,18,29,328,648,71,80
86,95,19,26,502,651,73,91
70,91,18,28,653,617,69,87
71,92,19,26,678,624,75,89
70,103,20,25,768,648,71,88
66,98,20,25,789,627,55,81
65,102,22,25,788,604,72,61
72,112,21,23,739,608,73,68
69,104,20,29,746,646,69,79
71,150,20,44,672,826,69,84
78,242,21,63,655,1025,70,86
83,272,22,70,511,1020,52,88
75,323,25,99,405,1053,56,87
77,357,27,114,375,1165,63,78
81,412,29,136,360,1245,68,83
69,428,29,149,378,1332,70,85
60,454,27,153,580,1434,69,79
64,442,25,143,680,1429,77,75
67,424,23,132,731,1359,69,74
56,355,21,105,764,1196,67,66
58,277,20,72,768,928,68,74
65,231,20,66,750,868,75,74
77,342,20,102,823,941,90,81
73,358,28,119,795,893,90,82
78,376,34,135,756,835,89,76
86,418,37,155,735,796,85,64
85,439,39,164,615,647,90,69
84,373,39,155,351,384,71,60
90,368,34,146,243,268,75,72
91,386,32,144,224,228,73,72
85,369,28,125,468,489,76,70
88,354,25,113,664,680,66,66
84,320,22,92,765,774,58,68
85,304,22,82,826,841,71,59
79,264,18,59,856,897,72,60
76,229,19,53,769,813,70,63
70,177,21,40,635,704,66,58
66,156,22,31,532,657,86,60
66,144,21,31,450,616,76,55
63,125,19,30,406,582,78,57
63,110,20,27,365,578,79,54
57,101,19,25,324,566,80,52
54,95,20,28,309,553,91,53
53,87,21,27,295,585,95,55
57,90,21,29,279,652,92,54
56,89,20,30,297,682,91,55
58,87,19,29,283,707,90,54
53,92,19,26,282,729,65,49
48,95,19,26,309,727,69,51
41,95,20,22,300,677,70,52
49,96,21,20,302,669,74,54
52,107,21,20,347,667,75,55
54,146,20,41,444,732,65,52
51,273,24,68,741,975,51,44
65,365,40,85,914,1033,78,48
68,517,46,120,1079,1087,100,67
70,527,47,122,1118,1116,100,81
73,527,47,119,1106,1077,101,83
78,478,45,107,956,876,102,85
68,413,32,95,819,810,90,82
65,200,24,48,607,729,64,68
61,169,23,43,526,686,70,53
59,134,22,35,497,669,71,50
56,121,22,32,455,660,71,47
55,115,22,30,409,649,81,45
65,104,20,24,377,634,85,59
65,110,20,27,399,644,82,74
71,112,19,28,373,644,83,77
69,111,18,27,368,619,80,81
76,110,17,28,377,649,69,82
67,112,19,28,379,689,63,73
67,117,19,25,350,683,59,57
57,122,20,25,364,699,54,52
57,119,22,25,363,691,55,52
48,121,21,25,362,653,45,78
48,161,21,47,432,684,42,81
47,309,24,89,627,852,58,83
55,325,33,98,755,858,65,85
55,356,39,105,797,859,64,82
58,377,41,114,829,869,61,52
61,371,41,108,841,832,62,43
61,271,41,82,745,660,66,43
54,266,33,74,662,677,65,38
54,244,27,70,661,778,67,46
51,226,22,60,634,760,72,56
41,270,22,70,703,868,73,60
41,273,23,71,711,880,73,60
40,300,24,91,687,902,81,61
39,306,25,105,651,924,85,59
39,339,26,122,662,1165,84,58
43,354,24,134,555,1307,84,59
46,388,28,141,526,1421,80,64
46,438,35,143,589,1454,71,65
51,458,40,135,694,1379,65,70
51,442,41,120,775,1222,67,75
47,467,44,125,870,1010,64,73
50,438,46,119,889,820,56,78
55,371,46,109,826,672,57,80
56,335,43,114,725,666,57,78
53,330,45,124,608,562,51,67
60,250,44,113,416,424,53,65
59,338,40,131,418,441,47,52
63,338,33,127,617,611,49,52
59,349,30,122,711,703,68,52
64,335,26,108,756,761,84,67
60,319,23,92,788,830,87,68
57,207,20,52,762,815,90,70
50,182,19,44,609,695,85,65
48,148,18,31,498,623,79,68
50,143,19,34,436,582,74,61
49,126,18,32,360,513,73,59
49,150,17,48,326,485,73,57
52,245,20,65,581,737,75,62
53,243,31,70,675,745,66,61
60,309,39,78,847,752,104,74
62,335,43,84,900,769,104,76
61,338,47,91,910,770,104,76
67,308,47,86,894,713,101,72
70,343,41,93,921,797,108,83
80,295,34,86,816,822,62,73
81,266,28,81,773,827,77,74
82,245,21,63,768,846,77,76
84,210,19,55,629,711,88,88
87,146,18,34,471,609,81,81
71,118,16,29,376,569,93,80
67,115,17,28,338,538,79,78
69,118,17,28,283,516,81,87
56,106,19,26,280,519,72,82
55,105,18,25,287,499,75,75
52,104,20,26,265,483,61,69
55,107,20,28,279,494,72,74
53,100,20,28,286,464,79,73
57,95,19,28,275,442,81,67
58,94,19,27,285,471,77,72
60,90,17,26,285,470,94,76
57,88,17,23,274,457,92,76
63,90,17,26,285,474,85,70
64,88,17,27,276,458,85,73
63,136,18,44,366,496,91,65
78,239,18,59,626,752,80,68
82,278,26,91,671,770,75,66
81,299,31,97,720,784,78,62
79,315,32,101,808,933,83,70
78,323,31,99,810,925,83,71
68,261,30,92,690,781,96,64
66,224,25,61,673,790,102,97
63,198,19,49,628,783,102,104
73,177,18,40,523,612,108,96
80,131,18,32,465,590,117,101
77,124,19,31,380,585,102,108
74,123,18,31,335,574,95,79
79,119,17,33,314,587,91,72
71,113,18,33,295,576,84,86
65,110,20,32,281,551,69,83
64,108,20,30,264,476,77,75
72,103,21,29,262,438,81,86
76,103,21,26,274,407,79,83
80,103,20,25,271,409,90,74
81,104,18,23,269,423,108,81
78,103,19,24,276,408,103,82
88,108,20,25,271,413,100,72
79,105,19,26,265,407,102,71
74,146,19,38,388,409,101,68
71,245,22,59,698,869,82,60
80,291,22,82,731,1116,86,64
75,472,23,137,792,1428,85,63
81,506,24,145,875,1487,84,65
84,508,25,145,874,1522,66,66
90,473,23,139,701,1336,64,64
85,449,24,127,683,1157,77,60
83,254,22,67,634,755,85,60
77,189,21,50,528,629,89,60
72,152,22,43,450,533,88,63
72,139,20,36,370,462,85,61
74,128,19,36,335,434,65,58
72,118,20,32,288,389,57,61
71,105,18,29,242,393,68,59
68,108,17,30,257,462,70,53
61,105,17,31,245,544,70,59
56,105,16,29,231,554,77,64
51,104,16,29,222,573,72,62
50,106,17,26,225,565,57,61
50,104,18,23,191,507,71,55
50,101,19,22,194,436,79,53
50,107,20,23,322,397,74,46
44,108,20,26,417,384,77,44
45,103,20,28,470,429,74,52
46,102,21,28,503,423,62,53
46,104,21,30,519,398,86,59
47,105,20,32,461,411,84,60
48,102,20,29,379,395,81,59
48,98,20,28,305,332,81,55
54,98,19,28,256,382,84,72
50,96,21,25,218,387,47,68
44,88,22,21,191,369,48,68
51,90,21,23,200,403,53,73
52,94,21,23,205,413,59,74
47,89,20,23,182,381,54,64
48,91,18,24,200,406,56,62
51,93,17,25,214,469,65,61
41,97,16,24,215,513,78,62
36,96,19,23,222,521,77,60
34,103,19,22,234,539,76,55
48,104,20,20,233,540,76,51
44,104,20,21,238,546,69,54
59,150,23,39,435,658,88,58
67,254,24,69,769,915,90,59
72,372,33,87,1027,945,88,61
64,392,33,91,1114,1004,90,61
74,398,32,94,1129,1037,92,68
68,384,31,88,1077,951,59,59
67,330,29,72,888,720,53,59
63,187,16,50,589,692,53,55
66,139,17,43,401,654,103,67
57,127,20,38,365,584,101,55
56,122,19,38,339,573,101,55
55,111,19,32,299,637,102,58
59,104,21,32,261,626,105,62
55,104,20,31,262,577,54,46
55,102,19,28,261,562,68,49
53,102,19,27,250,554,69,47
54,101,18,24,243,490,67,41
52,104,17,21,261,490,62,37
54,103,17,22,252,526,64,40
52,104,16,22,234,604,70,58
50,103,17,22,247,623,72,64
40,98,20,22,232,610,71,64
38,95,22,21,210,609,74,64
40,165,21,43,456,814,71,66
42,298,24,92,687,1002,54,51
58,333,29,117,743,1023,62,54
63,366,31,125,825,1076,87,62
66,391,29,130,909,1094,87,69
62,374,29,126,849,958,88,66
65,285,27,97,719,728,87,67
49,252,22,69,693,728,78,59
40,205,18,54,608,730,51,51
37,157,17,41,486,768,49,43
41,140,18,37,441,749,55,51
42,129,18,33,389,748,54,60
46,111,19,23,337,728,59,63
48,103,20,22,336,659,57,66
51,95,21,21,333,590,57,67
55,96,20,20,325,590,61,63
54,97,22,24,331,647,61,54
66,95,21,27,325,631,74,64
72,100,20,28,314,640,78,64
71,104,20,29,328,669,79,59
76,101,20,30,327,663,79,64
78,105,18,28,316,668,82,68
67,103,18,28,328,702,75,57
65,171,17,45,550,805,79,60
63,329,18,82,780,921,83,69
48,346,27,89,827,956,80,65
41,396,31,100,886,974,77,60
41,410,31,104,950,969,72,61
35,392,31,99,865,905,62,65
36,280,30,73,711,821,55,69
42,264,23,65,697,825,61,75
51,181,17,47,639,733,64,78
57,149,19,37,550,765,61,80
56,136,21,32,524,756,60,71
61,119,22,27,449,732,67,67
59,105,22,26,382,683,56,64
56,99,23,23,355,703,71,71
47,94,23,22,331,644,72,69
47,91,22,23,317,601,73,70
47,94,22,22,327,618,69,66
48,90,22,22,323,617,66,61
56,90,21,22,317,618,51,50
67,91,20,20,313,647,74,69
68,90,19,19,313,674,77,68
73,151,18,37,496,777,76,68
71,283,20,59,702,953,84,70
63,313,23,83,768,1021,120,83
55,360,26,109,783,1097,106,67
76,424,27,130,827,1243,109,75
78,420,28,129,776,1149,111,82
82,357,27,124,648,1053,108,92
88,338,27,110,638,982,71,87
89,290,24,86,655,904,87,99
74,192,22,50,617,690,82,96
69,166,21,40,562,704,88,91
63,140,22,33,511,649,91,85
62,123,21,28,429,647,86,79
56,163,22,44,485,717,69,73
67,339,24,107,748,919,68,68
64,368,28,130,802,935,62,65
68,405,27,143,813,916,78,61
66,452,26,161,815,898,80,63
73,469,28,167,760,794,83,52
68,386,30,143,468,474,84,57
71,381,34,129,339,354,89,67
68,355,36,119,271,293,74,67
69,324,40,104,221,349,72,69
67,306,38,91,398,549,69,68
59,299,36,84,575,670,66,68
58,286,28,77,698,776,66,61
57,280,25,70,769,839,62,60
63,244,19,54,809,833,66,57
59,208,20,47,749,740,69,62
66,166,20,38,635,681,68,67
63,128,21,32,520,600,61,64
64,107,21,29,431,561,64,61
78,101,21,22,373,558,60,59
78,101,20,20,350,566,63,61
80,99,19,23,347,582,63,69
82,100,19,25,339,656,62,78
85,99,18,28,350,690,57,80
68,103,19,27,351,725,60,82
69,102,17,29,360,766,65,81
67,105,17,28,369,760,73,84
68,109,15,27,368,705,72,76
67,108,16,24,361,669,77,86
74,111,17,28,371,648,75,84
76,109,20,27,374,604,67,89
77,152,22,44,471,647,80,77
77,275,26,75,705,863,79,82
78,328,39,81,993,892,73,69
71,416,45,88,1173,880,89,73
70,438,49,92,1223,870,88,65
66,445,48,93,1239,854,70,67
61,402,45,77,1148,672,75,61
57,368,37,75,944,661,111,86
54,275,29,68,730,698,104,85
58,240,20,62,638,718,106,84
58,202,20,51,545,682,108,79
63,161,21,40,503,665,108,84
58,143,19,37,452,650,93,68
57,128,20,31,406,624,86,72
48,120,20,31,404,629,83,73
41,112,19,29,381,625,82,72
30,109,20,28,355,589,77,65
40,110,19,28,347,621,55,58
46,109,20,28,341,618,69,54
45,114,20,30,328,599,78,55
60,115,21,30,329,630,76,60
64,109,21,29,319,622,73,62
63,103,20,25,295,559,69,56
61,103,21,24,302,572,56,49
64,154,20,47,360,628,89,59
55,324,22,98,577,775,94,57
67,340,29,116,658,815,95,59
66,357,34,123,734,851,96,60
71,371,34,126,839,851,98,63
71,371,34,123,847,827,94,66
75,247,32,90,752,707,92,64
63,236,27,67,725,695,91,65
65,217,20,55,668,657,92,65
65,195,18,51,522,624,94,64
70,159,17,41,469,574,74,58
66,149,16,34,415,530,95,88
72,130,18,30,337,495,96,86
78,116,18,29,282,475,95,86
72,107,19,24,299,518,89,85
67,109,20,28,303,526,85,83
68,111,21,29,277,499,68,68
63,113,19,32,290,511,73,76
57,112,18,32,297,544,74,80
63,111,18,30,266,491,80,84
63,105,16,27,255,472,74,84
68,96,15,27,261,497,62,71
65,86,14,24,242,471,61,62
75,88,16,24,258,454,57,72
71,141,17,41,343,472,49,71
73,271,18,77,577,708,51,74
74,292,27,81,660,718,63,77
83,341,32,101,773,857,85,92
76,355,32,104,872,882,92,89
77,346,31,101,867,938,92,90
84,263,31,77,777,827,90,82
80,245,25,73,730,803,86,84
76,181,17,43,641,679,80,80
83,155,16,38,499,650,85,82
93,137,16,33,464,547,88,82
95,128,15,32,388,483,89,84
95,119,15,30,350,531,89,80
102,108,18,29,291,519,72,74
97,102,19,28,283,511,67,72
91,100,19,26,288,533,64,70
83,101,20,24,278,540,66,70
79,100,21,24,272,543,67,69
74,105,19,23,272,570,73,63
82,103,19,24,265,559,69,58
81,109,20,23,256,560,70,72
89,109,19,26,265,580,68,81
97,107,20,29,260,534,72,85
92,106,19,30,275,484,68,84
92,154,20,50,363,545,65,82
102,269,22,65,614,785,78,80
103,385,24,103,740,1083,93,80
104,548,29,142,904,1384,93,83
104,559,29,143,993,1395,92,86
97,553,29,140,984,1375,90,82
92,507,27,134,879,1270,76,69
106,428,25,108,797,1024,60,59
102,179,18,43,613,556,60,53
107,141,18,38,461,523,58,56
109,123,20,29,421,508,63,56
100,115,19,25,353,438,66,57
76,102,18,24,303,421,60,56
75,98,18,30,290,417,85,67
67,93,18,31,270,431,89,69
61,97,16,31,264,459,88,69
70,96,16,33,264,465,94,78
74,103,16,34,292,506,99,82
70,106,17,28,285,542,82,72
76,115,16,30,296,581,82,66
77,126,17,32,297,572,79,64
72,148,19,37,372,611,69,55
69,164,20,41,398,623,64,45
74,169,19,45,450,610,50,43
67,216,21,58,572,712,58,39
66,320,25,85,821,929,71,44
67,337,35,86,924,923,74,41
61,399,40,94,987,971,78,43
61,411,40,98,1055,980,81,42
67,394,39,92,1024,890,72,45
66,319,37,69,888,701,67,47
71,303,27,70,784,713,76,56
85,205,19,56,686,597,71,63
86,173,19,47,542,562,76,62
81,154,19,44,471,540,74,58
84,142,21,39,362,540,67,64
78,111,20,27,275,598,59,59
66,106,20,25,243,641,68,58
66,101,20,26,228,639,60,59
74,108,22,28,237,661,58,62
73,107,20,28,267,609,58,50
72,110,21,28,265,490,66,62
75,119,22,30,294,472,74,56
72,128,22,33,318,490,73,55
79,120,20,30,307,447,76,55
77,117,20,30,282,459,80,58
79,115,18,30,280,489,72,44
74,104,20,30,242,423,51,41
71,91,20,25,198,385,68,39
64,160,19,53,376,586,91,45
65,313,19,104,686,854,91,50
63,339,23,116,733,862,99,64
64,368,27,119,815,925,100,78
63,382,28,132,921,949,92,79
52,366,29,148,901,866,67,75
58,263,29,123,731,634,82,79
56,240,27,115,716,646,76,71
64,199,22,112,643,586,76,58
68,173,20,97,487,560,77,57
73,161,19,53,424,549,77,63
63,136,18,39,362,501,59,52
64,113,18,29,295,460,52,50
59,102,18,27,258,441,65,55
67,97,20,24,252,457,58,55
66,98,22,22,252,461,62,52
67,101,21,22,251,459,63,50
64,101,21,21,241,457,71,54
62,101,21,21,241,491,60,51
52,103,20,20,242,473,61,51
54,98,18,20,221,459,63,47
59,97,18,20,212,514,67,49
69,96,18,21,217,504,55,45
69,98,19,21,222,469,53,41
64,95,18,22,235,477,57,41
60,168,19,46,452,616,71,58
58,271,20,64,693,857,70,66
45,391,20,110,785,1208,76,65
48,530,22,147,882,1461,80,65
50,538,22,149,950,1466,83,70
48,526,23,145,897,1428,66,56
55,486,22,139,759,1311,76,71
55,399,21,107,677,1019,73,76
54,180,21,44,557,629,69,77
53,158,22,39,439,628,64,72
57,135,20,32,387,614,77,73
49,116,21,27,334,567,68,51
50,107,21,27,318,544,67,52
48,107,21,26,308,544,79,52
63,101,19,25,291,538,84,53
79,98,19,26,295,530,73,53
82,95,18,27,283,523,69,53
87,99,19,23,282,548,69,51
95,96,19,26,275,556,70,59
86,100,19,27,278,583,64,65
73,100,21,27,279,606,68,65
69,102,21,26,292,622,68,64
64,101,20,25,285,605,66,58
58,173,21,43,515,787,64,57
76,260,26,60,735,1030,63,63
86,365,39,72,1107,1039,68,69
86,460,42,90,1258,1088,67,69
84,479,42,97,1302,1138,70,71
82,463,42,91,1260,1025,56,66
73,423,39,81,1174,795,63,71
58,343,25,73,849,773,59,65
64,199,18,51,615,705,63,71
66,144,17,38,527,645,69,78
73,133,18,34,460,634,76,84
73,121,17,32,390,611,71,75
76,104,17,27,357,606,68,77
74,97,17,25,340,609,69,75
77,97,16,26,333,637,59,66
66,93,15,25,331,684,57,57
67,94,15,22,330,728,60,52
68,94,17,25,333,755,81,64
76,100,17,26,345,758,88,79
72,97,18,24,353,731,88,78
79,101,19,26,345,693,85,79
71,105,21,28,348,648,87,83
69,105,20,24,355,647,67,71
58,162,20,42,546,819,50,52
60,244,20,59,789,998,52,51
54,300,26,100,820,1020,65,59
56,330,30,109,833,1008,66,61
58,349,31,112,893,1181,76,69
58,354,31,112,840,1084,77,69
60,312,31,107,667,952,76,69
71,261,26,70,667,961,64,59
70,221,22,55,667,977,60,50
68,196,19,51,595,770,76,46
70,144,20,35,523,760,85,49
71,170,20,44,596,818,87,53
59,272,20,60,744,983,90,56
58,393,21,103,817,1356,88,65
58,478,28,129,917,1545,73,65
56,512,36,136,984,1587,63,65
57,541,43,137,1026,1552,60,61
63,522,48,134,1018,1408,56,62
67,457,52,107,1012,1018,83,61
75,376,51,78,943,611,79,56
82,346,48,71,887,374,81,53
82,309,43,73,749,236,82,55
84,312,37,79,693,539,87,67
81,316,31,84,681,681,67,62
72,310,28,83,688,822,62,60
77,293,24,78,696,903,62,62
77,262,21,66,712,941,62,60
72,203,19,54,612,844,60,47
70,150,18,38,525,797,77,52
69,132,16,31,467,718,104,70
55,121,16,29,424,665,104,69
51,113,17,26,396,656,105,71
53,110,17,22,379,656,104,71
52,109,19,21,376,662,92,69
59,107,18,21,372,677,79,57
62,110,19,20,372,711,85,70
63,106,21,22,379,714,92,73
62,152,21,41,447,757,91,78
69,332,25,97,691,863,88,76
71,341,36,109,761,877,94,72
68,355,39,120,790,850,86,57
66,384,42,135,802,825,77,53
70,375,44,141,774,763,86,55
64,358,44,147,621,609,85,54
55,437,37,161,774,699,60,52
70,469,37,163,742,659,65,54
71,462,36,156,711,644,72,58
76,465,34,150,790,773,66,49
82,406,31,119,841,849,82,63
85,326,30,92,678,729,91,69
75,294,24,79,749,807,91,75
85,347,25,92,811,1100,89,76
79,463,35,114,831,1220,90,91
93,479,43,114,876,1165,79,93
96,495,52,112,963,1152,71,90
95,487,56,108,993,1101,68,87
91,449,57,94,990,791,64,86
96,325,55,63,911,361,62,70
81,291,51,66,794,266,60,54
75,267,44,72,628,179,60,56
73,346,40,88,634,466,67,61
74,357,36,91,676,656,72,60
68,353,31,88,716,752,71,59
66,328,25,80,717,825,69,56
75,310,20,70,739,895,65,52
77,195,16,47,621,825,80,47
78,132,14,32,525,739,78,48
75,121,17,32,441,728,75,50
78,124,17,31,399,673,72,50
81,123,20,29,365,619,86,54
82,116,23,30,361,591,76,53
83,116,23,33,322,550,77,54
83,121,23,30,321,469,79,54
82,117,24,31,325,480,79,56
72,115,22,32,317,480,81,63
72,155,19,47,359,537,73,61
66,245,19,62,604,692,90,63
78,284,27,98,660,751,93,64
74,323,31,115,706,762,94,68
72,327,36,122,736,776,85,59
75,391,39,151,723,738,81,62
73,473,39,172,706,797,70,59
57,548,36,171,745,827,66,56
56,547,33,165,794,858,66,50
58,550,28,161,823,868,69,57
59,503,25,132,883,910,69,51
70,388,23,94,780,781,71,68
73,235,19,61,707,710,70,70
83,184,18,46,613,661,69,69
81,159,18,40,528,619,62,64
80,137,17,32,389,566,63,62
93,121,16,27,340,516,63,59
92,110,17,23,317,513,70,68
88,107,17,24,275,511,73,69
92,112,18,25,282,516,74,68
103,109,20,25,277,480,76,68
89,105,21,26,255,488,76,56
96,104,22,26,256,494,76,51
92,105,23,29,261,487,82,53
88,105,21,28,256,491,84,61
76,108,22,29,271,552,94,65
66,104,20,28,277,558,87,63
55,102,20,28,271,540,79,54
61,101,20,24,276,556,86,63
60,146,20,43,345,593,88,64
58,245,17,59,605,766,74,63
58,296,19,85,658,1024,78,68
58,462,20,136,733,1316,85,71
50,483,20,142,879,1455,71,62
55,482,22,140,897,1438,65,54
47,444,23,134,784,1352,66,54
61,415,23,120,757,1175,78,63
68,216,22,57,697,837,86,66
71,168,22,42,515,557,84,64
72,133,19,31,437,575,85,65
74,121,18,29,365,539,87,67
66,113,18,26,330,514,69,54
72,107,17,25,308,511,68,58
74,102,17,25,279,615,76,67
69,100,18,26,287,683,76,66
67,95,19,26,286,715,81,69
73,96,18,27,280,728,80,67
61,99,19,28,289,761,63,56
56,99,20,28,302,676,76,50
57,97,19,28,290,580,81,58
59,97,18,29,299,542,76,52
51,96,20,27,295,499,76,55
50,97,21,28,276,428,76,59
50,136,21,40,343,499,67,68
50,216,21,52,639,792,80,84
53,234,35,60,787,824,79,90
51,326,41,69,906,842,78,90
49,343,40,72,989,934,80,88
45,348,39,70,999,922,71,81
43,309,39,63,867,728,67,76
40,302,28,56,762,696,66,66
34,202,18,46,629,697,69,65
41,173,18,42,504,574,68,65
54,128,18,33,437,518,66,66
59,114,17,30,378,464,50,45
59,102,16,30,316,454,83,53
60,94,19,29,288,416,81,53
56,98,18,25,259,417,81,54
50,128,19,30,309,523,82,52
46,147,19,32,355,607,81,49
50,169,21,36,399,660,56,42
57,170,20,39,407,727,65,48
59,166,22,40,410,740,65,45
64,147,21,36,368,674,65,53
65,128,22,33,317,590,63,54
63,95,22,30,249,525,55,54
69,100,21,28,243,436,77,55
71,172,20,50,417,564,85,55
66,266,21,69,756,935,90,62
63,346,24,113,810,962,92,71
71,360,24,121,835,971,92,73
68,377,25,124,938,1000,76,72
67,371,25,122,933,953,83,84
68,318,26,113,734,643,81,78
73,235,23,69,697,617,83,72
60,223,24,58,692,660,83,70
55,193,22,51,556,674,76,68
58,156,23,38,455,665,67,59
56,144,21,36,375,605,73,64
62,139,22,35,358,590,70,67
64,127,21,29,335,526,71,67
60,121,21,28,327,434,86,73
58,118,20,27,331,360,89,71
55,113,20,26,336,367,84,64
45,106,20,25,308,351,84,57
47,100,20,23,272,321,83,61
44,102,20,25,255,402,65,51
52,100,20,25,237,429,72,53
52,95,21,25,208,417,72,52
51,99,19,26,237,455,73,52
48,103,18,26,243,469,75,48
51,102,19,23,235,449,75,51
46,161,19,45,449,560,51,45
47,253,20,61,722,948,57,40
46,296,21,89,757,1032,55,39
45,378,23,121,786,1191,58,47
43,405,23,128,880,1252,57,43
42,396,24,124,848,1213,64,46
47,349,22,117,673,971,69,46
48,316,21,98,645,905,75,53
49,214,19,55,623,782,76,44
51,153,17,38,483,669,87,54
47,120,18,32,380,699,83,52
39,112,19,29,310,690,70,55
39,101,20,26,261,697,89,58
39,93,20,26,229,596,84,60
41,95,22,25,238,619,74,52
47,93,22,25,234,564,72,54
50,94,21,27,232,546,71,50
49,97,21,28,232,526,45,41
49,96,21,25,233,524,54,46
47,98,20,24,218,548,62,48
39,101,19,22,206,559,67,51
35,105,20,23,229,585,68,59
34,108,20,22,269,634,62,59
36,113,21,23,284,682,80,62
40,117,20,24,312,638,85,65
42,166,21,46,470,665,103,70
42,252,25,62,726,954,106,65
45,349,36,77,1055,936,109,73
48,416,42,86,1141,902,94,67
46,435,43,91,1208,924,95,64
44,429,42,86,1178,928,80,58
62,389,40,76,1053,641,77,59
61,306,31,64,734,667,77,47
65,207,20,50,600,773,78,46
65,162,19,40,443,751,67,44
67,131,18,33,392,717,69,44
51,117,18,29,362,700,70,50
54,110,18,23,339,765,68,52
44,104,19,23,316,667,66,52
41,102,20,24,315,672,67,55
39,103,19,24,324,733,54,52
43,99,19,26,309,727,55,48
40,102,19,25,303,644,55,54
42,102,17,25,320,656,52,55
42,101,19,22,312,653,57,58
44,101,20,24,313,616,55,56
40,101,20,22,323,624,51,56
36,95,20,22,309,607,50,48
42,160,19,41,521,770,70,50
45,312,20,90,827,1030,64,45
45,354,27,112,880,1032,65,46
47,402,30,125,927,1033,66,43
47,420,31,129,994,1076,65,41
37,410,31,127,940,968,45,35
37,314,29,99,733,724,55,45
33,266,23,74,689,716,54,45
32,191,19,51,646,718,69,48
36,149,19,40,555,663,66,48
48,117,20,32,483,662,71,52
48,112,20,29,425,658,62,40
48,113,19,29,396,676,69,43
53,108,19,28,364,684,58,43
51,101,20,26,347,650,66,44
39,108,19,25,349,692,61,40
37,105,19,24,350,720,62,39
38,98,18,24,338,693,57,36
38,99,18,23,339,687,73,37
43,99,18,23,344,691,71,34
42,89,20,23,339,631,72,35
43,90,18,23,337,595,75,35
45,164,20,43,544,750,73,33
42,344,20,105,762,904,53,29
44,382,19,126,818,931,63,35
46,418,20,137,856,942,66,35
58,431,20,139,925,957,64,40
72,424,20,137,884,898,68,44
74,302,20,98,739,757,75,51
76,259,21,71,706,726,77,50
81,207,20,48,687,759,74,55
94,179,21,41,599,739,77,52
86,153,21,34,543,694,81,51
87,146,20,32,495,657,74,44
85,134,20,26,462,662,62,43
80,125,18,28,434,648,60,42
59,124,18,29,420,649,57,43
68,161,18,45,548,728,57,58
73,267,20,67,815,1033,58,58
72,315,28,103,824,1029,53,57
81,356,34,117,849,1001,49,52
80,379,37,132,859,983,54,52
71,382,40,141,772,889,68,41
73,361,40,149,469,466,72,42
77,358,36,140,426,386,75,44
70,343,31,142,331,326,78,48
70,351,32,138,267,237,76,45
71,423,29,137,447,505,61,39
60,414,28,121,623,701,56,38
58,385,27,107,717,817,59,47
53,362,26,87,776,873,56,44
54,332,21,73,827,939,54,47
63,198,21,42,742,833,46,51
61,128,21,29,617,760,58,55
57,116,21,24,530,714,54,46
56,113,25,24,465,700,51,47
55,102,25,24,405,648,49,48
40,97,26,25,388,657,55,48
42,97,27,25,370,593,53,48
52,94,26,27,366,560,69,58
52,95,24,27,362,549,74,61
53,94,23,25,348,566,78,59
63,94,21,27,359,582,77,57
62,91,20,25,365,587,69,52
57,91,20,23,349,584,61,41
66,92,18,23,361,585,79,60
63,94,19,22,370,599,83,61
50,102,21,22,366,609,83,60
52,160,19,40,495,695,83,61
59,246,24,54,605,775,78,61
55,413,31,105,792,1232,61,40
56,516,41,126,925,1384,52,43
61,591,44,140,1023,1418,68,56
58,586,45,139,988,1404,75,58
54,564,42,135,957,1365,74,58
60,462,37,102,839,979,70,60
69,352,25,78,701,739,87,71
70,203,16,47,557,656,76,64
74,179,16,42,525,591,72,64
75,155,15,39,483,601,73,63
71,137,17,36,439,597,73,62
63,117,18,31,406,586,57,48
57,114,19,28,391,618,50,43
56,115,18,25,382,647,52,47
55,106,17,22,362,622,61,54
56,107,17,21,337,610,69,53
60,110,18,22,336,622,64,50
62,105,17,23,340,603,66,51
65,113,18,24,346,592,71,50
62,118,20,25,344,592,64,53
54,117,20,24,349,588,69,57
56,118,19,24,343,574,75,57
56,166,21,42,410,615,79,58
50,308,24,81,639,693,69,54
51,331,31,85,798,748,70,44
53,369,36,92,836,765,72,44
49,407,39,109,890,813,83,56
46,406,38,107,893,806,79,56
46,327,36,87,788,815,83,58
52,318,30,86,703,824,83,61
52,278,23,80,662,791,68,57
55,219,18,57,590,727,60,45
59,191,17,49,541,674,63,41
60,159,17,39,467,576,63,40
54,128,18,33,329,517,64,40
58,119,18,29,315,538,76,54
57,110,17,29,306,538,73,55
54,106,20,27,279,556,70,59
55,114,18,29,304,581,67,58
52,114,17,27,299,547,64,55
52,117,18,28,295,552,88,53
49,125,20,28,302,565,86,53
52,124,18,29,309,557,86,52
49,116,21,28,278,499,87,53
48,110,21,27,282,478,87,53
43,98,20,27,276,458,64,46
42,136,20,38,345,525,64,43
39,240,22,55,608,754,65,42
38,308,22,108,664,781,66,40
45,323,26,112,724,806,68,38
46,341,27,117,817,943,63,41
48,352,26,117,825,940,71,50
45,297,25,110,705,806,74,58
50,229,23,59,680,804,73,58
47,211,18,52,633,796,71,59
62,186,17,40,514,651,62,52
62,129,18,27,459,593,55,46
62,118,18,28,394,565,68,50
60,109,19,28,345,531,70,49
63,109,18,28,317,504,71,51
60,103,18,26,316,505,76,57
60,102,20,26,308,507,73,60
64,99,20,25,289,468,53,49
68,99,20,24,296,480,53,50
63,98,19,23,294,480,51,46
54,95,21,27,279,448,89,57
56,101,19,27,288,510,91,55
53,101,19,24,287,504,98,54
47,98,19,24,268,501,96,53
50,96,19,26,296,536,102,58
57,146,17,36,394,594,72,50
55,236,16,55,663,798,68,53
55,264,16,74,702,918,59,54
54,399,19,124,752,1174,58,55
60,420,19,130,895,1292,59,52
56,424,21,130,914,1276,55,51
56,382,22,124,801,1176,67,48
63,366,22,114,787,1125,73,47
66,216,20,57,767,878,75,48
60,171,19,39,583,662,65,47
60,124,17,30,489,642,67,45
59,113,18,26,390,546,53,38
55,104,18,26,349,485,50,40
57,98,19,24,286,423,49,39
59,98,20,27,276,495,66,40
54,94,19,26,267,506,64,38
55,96,22,27,259,531,73,41
50,98,20,27,263,556,69,51
51,100,22,25,264,574,73,53
47,104,22,23,270,519,74,55
49,106,22,25,278,514,74,56
46,109,18,25,267,531,69,54
50,142,21,34,363,576,70,46
48,154,20,40,408,602,68,46
47,157,22,41,425,617,54,42
45,196,23,54,527,686,56,43
48,267,25,67,774,971,60,42
53,268,35,67,927,934,58,44
48,360,41,75,1041,915,61,41
47,375,40,78,1100,989,60,41
47,379,40,76,1090,987,57,34
47,339,39,69,972,770,87,43
37,328,29,66,814,781,89,38
64,219,20,55,642,768,89,44
64,189,18,51,523,657,90,43
64,138,19,38,446,576,93,47
62,120,21,33,342,438,61,39
68,118,21,32,291,380,64,41
46,109,22,29,271,369,59,36
46,107,23,27,259,431,55,35
48,106,22,27,247,439,51,33
49,105,21,26,247,562,47,34
42,108,21,26,262,579,53,36
38,112,21,26,277,580,68,34
40,109,20,26,291,544,71,37
39,117,20,27,307,540,69,37
39,117,21,28,308,416,73,40
37,111,21,26,273,416,70,41
49,107,21,26,264,441,60,44
46,153,21,43,384,703,61,43
46,241,24,60,703,942,65,47
46,318,28,112,748,966,66,46
44,349,30,122,785,968,65,46
28,370,28,127,912,1054,59,42
35,373,28,124,910,929,61,42
37,329,26,119,762,759,74,40
38,261,19,72,743,771,75,41
41,218,15,53,709,752,78,47
41,185,17,42,544,629,82,49
41,148,17,34,475,648,80,50
41,130,20,26,341,602,62,45
40,123,20,25,281,555,61,45
44,123,22,26,265,550,75,50
43,123,20,25,268,551,73,51
40,115,21,26,251,497,72,51
43,114,19,28,250,513,73,52
43,106,19,27,239,508,75,50
37,104,21,29,239,506,54,39
38,98,22,27,208,489,61,41
44,98,20,27,207,492,69,46
40,102,20,29,213,534,76,49
39,102,19,29,218,561,69,50
45,104,18,29,238,574,71,48
45,103,18,30,244,590,61,44
40,105,18,28,242,608,61,42
39,174,18,44,468,659,54,38
39,237,19,57,685,831,52,36
34,302,20,86,720,986,53,34
39,384,21,103,805,1091,77,43
42,397,21,106,844,1076,68,40
47,376,22,102,780,1014,67,44
52,342,21,94,627,889,68,45
53,288,19,69,594,715,66,43
51,165,17,41,486,572,39,37
54,129,18,30,423,586,63,50
48,111,17,24,352,537,62,46
42,103,17,23,310,504,63,45
39,98,19,22,296,509,63,48
40,91,21,23,280,520,68,52
32,95,21,26,276,526,59,43
34,96,21,27,284,551,85,52
33,101,21,28,300,576,86,54
34,101,19,28,298,674,90,56
34,109,17,27,326,672,85,49
32,105,17,24,325,671,79,48
33,107,15,23,331,699,53,41
36,106,16,23,325,729,60,47
40,112,17,24,340,685,66,56
39,155,18,41,468,713,69,59
40,263,22,59,740,954,68,59
42,379,36,79,974,1030,68,60
44,490,42,99,1153,1021,78,62
41,506,43,102,1211,1067,71,53
44,506,43,99,1182,1050,74,50
47,463,42,91,1056,845,74,50
47,376,31,76,862,781,77,50
55,214,21,48,615,781,66,42
56,169,19,42,493,682,65,42
58,131,21,37,459,674,57,43
55,117,20,34,412,677,70,45
56,106,20,29,367,630,79,50
46,102,20,27,342,609,82,50
45,98,20,23,329,624,81,51
42,93,17,21,320,620,83,51
47,93,18,22,328,594,82,50
54,93,18,22,338,640,69,44
54,92,18,21,348,656,58,42
53,98,18,22,362,654,68,50
50,101,21,22,369,612,70,52
49,99,20,23,366,651,72,52
45,108,20,24,371,625,72,52
46,165,20,44,577,786,75,54
48,339,23,92,859,921,68,44
51,373,30,101,949,969,75,51
52,421,34,111,984,944,64,49
45,437,34,114,1067,950,64,48
43,432,34,111,1023,868,66,49
51,317,32,77,833,762,75,58
47,283,24,67,751,741,77,52
47,215,21,52,732,769,76,58
46,176,21,45,607,758,82,63
48,140,21,37,511,708,94,64
51,134,21,36,458,696,89,58
51,118,21,30,411,723,80,56
52,102,21,25,369,712,79,55
53,110,20,25,366,718,77,51
54,107,21,24,362,740,63,55
42,103,20,23,351,698,55,53
40,103,22,24,360,664,57,56
39,101,19,25,340,654,56,54
39,93,19,25,327,618,82,62
38,98,20,28,346,586,79,56
42,99,22,27,336,598,82,58
47,96,21,27,337,596,80,56
47,92,21,26,360,599,81,52
48,154,21,42,527,730,52,41
52,325,20,103,803,877,73,54
49,364,20,126,865,911,72,62
47,405,25,134,905,919,79,66
43,421,25,137,964,944,78,69
42,420,25,136,942,928,77,69
36,308,25,97,743,758,64,62
33,270,23,68,705,784,65,58
33,212,19,51,678,818,62,62
33,182,18,43,590,803,61,61
33,139,19,34,499,741,59,62
33,135,18,36,466,781,48,57
37,121,19,30,420,699,68,59
40,106,19,28,388,626,81,57
41,105,19,27,394,636,81,55
42,106,20,26,399,629,84,54
45,106,20,23,405,615,85,55
43,103,21,25,419,636,72,57
39,111,22,24,403,639,53,52
44,108,22,25,396,596,56,53
45,104,22,24,394,579,78,58
51,164,21,40,478,655,79,60
51,343,22,90,648,776,80,53
50,353,27,92,720,824,90,55
55,415,29,113,777,891,88,54
61,424,29,116,821,914,72,53
56,416,30,115,811,879,76,54
61,296,28,83,717,782,71,59
62,288,21,82,685,756,65,56
55,196,20,51,642,698,67,57
49,179,21,43,586,655,61,53
57,151,20,35,535,609,52,50
53,129,21,28,491,593,70,56
59,117,22,26,434,564,87,59
61,108,21,25,413,580,87,61
66,103,20,27,414,608,89,62
59,106,18,28,409,643,94,65
59,112,17,28,402,644,81,51
58,109,18,28,401,660,54,47
61,100,17,25,370,616,54,42
51,105,17,25,365,602,65,47
55,101,17,24,360,574,58,40
52,140,18,41,416,580,59,40
47,299,18,62,559,777,73,42
55,321,22,84,648,877,74,49
57,359,25,109,689,1019,67,47
51,431,27,136,710,1270,77,50
54,482,28,150,721,1435,79,53
55,415,28,145,661,1338,83,59
41,408,26,135,636,1286,80,52
43,382,23,117,646,1186,84,53
46,304,20,85,642,940,79,54
44,192,19,48,596,640,88,53
43,167,18,40,552,622,72,48
46,141,17,35,489,598,81,56
51,120,17,28,404,572,73,51
49,103,16,24,370,514,69,47
53,100,18,24,339,494,65,51
52,100,17,26,307,494,81,61
49,97,16,28,298,487,75,54
42,93,16,27,291,450,76,54
39,95,16,27,274,463,75,56
33,101,15,27,285,484,80,56
30,102,18,25,298,487,85,54
29,103,18,23,288,506,90,62
29,105,18,25,289,634,89,62
30,107,18,28,296,691,90,61
31,142,19,50,349,710,86,59
34,242,28,66,572,875,77,54
43,350,40,76,949,883,71,47
48,403,46,82,1116,825,73,51
53,451,51,90,1170,802,86,55
52,455,51,83,1178,783,82,54
53,419,45,74,1119,619,77,50
53,342,36,66,867,631,78,50
45,284,28,60,664,640,84,48
45,203,19,47,562,645,76,52
46,164,19,39,509,652,70,52
51,142,19,34,445,648,63,53
51,118,20,30,352,606,67,58
57,105,19,25,310,565,88,77
54,100,18,24,316,543,83,78
56,102,18,26,315,569,87,81
50,108,18,28,295,540,92,82
48,116,18,28,317,566,87,80
42,116,18,27,312,599,79,66
44,114,19,27,296,570,86,62
43,111,20,26,320,521,89,70
44,106,18,24,322,511,85,68
49,102,18,22,295,477,88,70
50,98,20,22,303,436,72,70
49,136,18,35,392,434,74,73
48,233,18,50,613,564,71,65
53,300,27,101,669,614,76,79
49,347,33,124,726,643,88,79
47,362,34,133,748,658,87,81
46,368,34,135,795,826,79,76
55,344,35,134,717,774,73,73
50,296,28,103,714,759,91,61
47,249,21,76,703,802,86,60
50,229,18,60,681,794,84,60
56,199,19,49,585,615,85,61
50,146,17,35,493,591,88,66
56,169,19,44,491,692,68,63
57,271,23,59,646,721,66,61
60,383,35,82,876,826,79,65
56,461,44,93,1072,839,76,72
52,488,50,97,1186,846,74,69
54,512,53,97,1231,746,84,73
61,510,54,100,1214,712,74,71
66,444,47,86,1159,682,61,61
66,381,39,80,1037,701,67,63
71,350,32,77,930,722,86,74
74,302,25,72,854,739,74,74
72,213,18,52,745,689,73,79
72,184,17,46,572,582,72,84
77,140,17,38,462,535,87,92
76,128,17,35,379,479,71,86
71,116,16,33,326,554,71,85
68,114,17,32,296,568,90,82
63,120,18,30,285,575,99,89
61,141,19,32,340,635,83,82
68,167,22,38,398,660,81,85
73,173,23,38,406,571,93,89
72,172,24,37,402,540,84,92
73,171,23,40,404,572,80,85
74,151,21,34,334,524,80,79
66,112,19,27,256,494,88,75
76,99,18,27,244,530,74,70
75,91,18,28,235,561,68,63
78,91,16,26,230,527,70,62
74,150,19,43,388,636,76,59
78,305,20,97,733,913,79,63
73,349,22,120,774,921,89,61
80,381,26,126,846,943,87,66
83,388,28,127,952,967,84,63
83,390,26,127,930,909,93,72
81,295,27,94,745,671,83,66
75,250,26,64,739,672,80,68
73,209,21,54,685,631,83,67
66,199,19,52,540,591,84,69
63,161,18,40,509,565,65,57
57,145,18,36,443,520,66,65
55,136,16,34,381,465,65,62
56,121,18,30,330,420,60,57
56,115,19,26,312,408,59,55
65,114,21,26,275,402,60,60
70,112,22,24,234,389,59,49
68,110,22,24,213,395,70,57
63,113,19,24,215,394,71,63
74,109,20,26,195,396,67,80
70,106,19,24,189,385,67,78
73,105,20,24,207,373,77,79
85,108,19,24,250,390,61,73
87,108,20,24,297,405,63,71
81,109,20,23,390,412,64,62
88,115,19,23,414,433,64,62
85,181,17,45,556,619,57,62
75,264,17,59,739,855,51,63
74,449,19,113,809,1196,54,68
72,464,19,116,853,1206,72,64
61,475,22,119,871,1212,77,65
59,453,23,113,796,1140,75,61
58,409,24,106,628,976,74,60
57,193,22,48,522,529,71,51
55,153,23,40,374,504,59,46
62,107,20,27,296,459,54,46
66,116,19,29,275,456,53,50
70,115,19,26,242,451,52,52
71,104,19,22,207,447,50,53
70,102,18,23,217,467,41,53
65,104,17,23,247,476,82,58
66,95,16,23,241,553,84,61
65,101,15,24,263,621,85,60
60,103,18,25,264,648,87,57
65,105,18,25,258,697,110,67
71,102,20,27,265,692,85,70
70,96,21,26,269,656,84,69
66,93,21,25,258,668,86,68
69,93,20,25,271,664,86,74
69,166,20,46,480,790,59,64
72,274,22,68,757,1019,60,58
77,419,30,87,1081,1041,98,64
84,435,30,91,1132,1026,95,69
89,438,31,92,1139,1007,93,69
85,419,31,84,1080,892,91,77
77,363,29,69,912,653,87,74
71,182,19,42,495,603,42,68
65,136,19,34,367,556,41,65
59,125,19,31,338,561,89,72
60,116,21,28,306,619,92,64
66,103,20,22,279,626,93,69
68,99,19,21,260,612,93,67
65,98,19,20,264,617,93,65
66,97,18,18,276,651,71,60
74,104,17,20,273,599,73,55
73,113,16,21,298,600,79,57
72,115,17,23,310,612,82,61
74,112,19,23,308,594,81,64
78,112,20,25,320,575,64,56
71,101,20,25,331,565,61,59
69,93,19,25,314,616,69,57
67,155,19,41,544,728,65,60
71,312,21,84,792,1031,67,61
62,332,29,96,839,1044,66,60
62,386,34,104,913,1092,60,59
61,406,35,109,961,1091,46,53
67,393,35,105,874,1104,53,56
61,294,33,77,710,859,53,54
63,274,26,62,681,851,59,58
68,194,19,50,598,800,60,59
75,152,18,36,531,760,59,63
74,140,16,31,496,656,80,83
80,128,16,30,448,668,83,86
81,121,17,28,412,642,83,85
78,121,17,26,377,692,83,84
75,115,20,26,382,708,82,85
69,110,20,27,384,699,59,63
65,102,21,26,349,692,57,58
64,102,19,25,347,704,54,72
64,96,20,24,343,630,73,81
62,95,18,23,333,597,75,80
76,97,20,23,343,572,79,90
77,151,20,46,532,685,85,93
81,262,20,68,797,992,90,84
81,330,24,107,835,1013,82,81
83,355,27,118,846,1004,80,81
70,377,27,123,963,1202,76,62
77,383,28,121,932,1165,91,65
72,328,28,112,783,985,92,60
78,264,24,74,777,987,87,67
93,230,19,57,782,1001,85,70
97,198,19,46,650,794,102,82
92,149,18,32,565,747,105,85
97,127,20,27,481,661,101,85
96,117,20,28,443,640,102,86
82,111,21,26,414,640,105,88
78,101,21,21,378,627,97,82
82,151,22,41,482,725,76,80
75,327,24,88,795,917,81,87
79,350,34,97,896,941,82,80
76,362,40,103,909,931,82,72
79,380,42,116,912,900,70,66
75,378,45,124,868,791,61,58
79,265,45,110,577,497,64,67
76,283,42,118,364,357,78,79
82,294,38,128,306,300,74,86
80,316,36,135,276,230,81,92
79,326,32,126,426,469,91,98
71,340,29,118,579,618,84,89
73,318,24,104,698,744,69,74
67,301,20,86,748,824,70,68
66,257,19,57,784,877,77,72
65,230,20,50,729,813,69,73
78,181,20,40,630,750,89,83
77,156,21,32,517,670,91,86
74,141,21,30,472,618,96,97
72,128,21,27,431,606,84,90
73,112,19,24,398,581,82,85
63,111,19,26,408,581,62,73
55,105,20,27,404,584,79,74
61,108,19,29,389,591,76,59
68,106,20,28,392,576,76,66
71,150,23,45,471,659,78,63
72,325,22,97,726,877,80,66
70,361,23,113,782,899,62,68
72,381,30,116,800,890,72,65
68,389,33,118,812,893,73,56
66,404,35,121,796,845,74,59
65,310,36,91,668,690,73,57
68,289,34,74,699,714,97,66
62,278,29,70,743,760,87,70
68,283,23,72,753,772,92,75
72,297,18,67,807,843,95,82
76,315,32,65,875,781,96,85
80,389,41,76,1052,719,71,75
83,426,48,79,1125,660,77,73
79,430,52,78,1153,613,71,70
71,404,53,72,1145,543,61,59
75,430,46,98,1083,529,64,54
71,358,44,103,839,497,73,55
64,313,39,114,671,462,69,53
63,331,36,130,590,445,70,56
64,351,37,146,472,311,77,56
57,327,36,144,306,210,73,63
57,335,30,141,270,177,64,61
61,405,31,147,393,390,68,65
62,386,28,132,504,553,66,60
64,364,25,114,602,639,61,65
65,327,24,95,707,735,67,64
65,317,23,85,784,834,70,64
62,207,17,48,744,809,63,62
56,192,17,45,676,738,65,62
53,170,16,41,598,708,67,61
46,145,16,36,486,658,70,72
43,124,16,32,383,599,64,71
44,109,16,30,348,571,66,70
49,103,16,29,348,574,68,70
66,98,17,27,342,556,65,65
69,95,16,23,343,532,52,46
68,94,15,23,331,520,57,44
68,95,16,22,327,507,50,46
70,91,15,25,304,483,80,57
63,96,15,26,296,465,82,59
65,95,16,28,288,529,83,56
75,100,15,28,296,574,82,55
78,97,15,30,294,590,84,52
75,109,15,27,297,610,55,46
75,148,16,40,346,670,49,46
73,251,19,51,502,750,56,48
75,382,28,88,709,1114,81,60
73,493,37,116,870,1303,85,65
77,562,43,133,976,1383,86,68
79,561,42,132,989,1364,93,70
83,533,41,130,945,1327,88,73
72,450,36,108,830,1008,67,72
71,332,27,80,684,769,66,69
65,191,18,46,531,623,62,63
58,164,18,40,484,650,54,59
49,131,18,35,434,603,54,55
49,115,17,34,383,618,48,42
45,100,18,27,345,591,39,41
43,95,19,26,317,583,62,46
38,94,18,23,318,573,68,51
39,91,19,23,311,541,68,51
37,90,19,22,292,505,71,53
38,84,18,23,302,509,72,57
37,88,17,23,307,495,62,53
36,98,18,25,296,546,72,65
40,108,19,26,313,604,79,68
43,109,21,24,310,630,78,69
41,109,21,23,284,610,78,65
55,151,22,43,378,627,70,64
57,294,28,81,609,673,62,51
57,324,36,88,713,652,59,55
62,417,39,102,776,680,55,56
65,436,39,108,837,677,56,60
59,428,39,103,825,670,57,58
64,349,34,79,720,589,52,53
72,324,25,72,634,592,65,47
69,195,18,52,572,576,68,42
75,148,18,41,491,590,68,41
72,132,18,37,444,594,66,41
65,119,18,31,365,582,63,43
60,111,18,30,334,604,53,40
62,102,19,28,302,577,58,50
61,112,18,28,288,558,62,52
64,113,18,27,311,555,62,55
66,112,19,27,301,542,59,55
64,109,20,24,302,482,49,56
64,112,18,27,311,479,56,69
58,105,19,26,314,493,59,68
56,105,20,27,305,486,62,79
59,100,19,27,302,460,62,82
60,99,18,27,282,448,63,83
55,145,20,39,384,536,56,68
57,248,20,55,684,851,54,68
58,318,21,104,712,867,56,54
63,336,20,112,751,879,58,57
58,357,20,117,859,992,63,55
60,367,18,116,871,958,68,59
62,316,18,111,733,828,64,63
63,246,17,67,728,826,61,69
56,227,18,52,705,826,60,63
57,217,19,50,628,749,58,65
57,181,20,47,590,780,68,72
54,175,20,46,520,683,69,67
60,175,21,47,487,698,71,64
59,169,22,47,469,672,79,75
57,136,22,38,382,607,85,80
63,162,21,44,411,615,71,73
60,304,22,80,723,898,69,76
72,311,32,89,778,878,69,72
73,345,39,99,807,901,76,63
74,377,42,115,829,915,68,58
73,393,44,127,795,852,74,59
82,327,47,122,499,446,77,58
73,360,41,132,388,374,77,69
81,370,36,139,296,289,74,72
87,376,33,134,211,184,77,70
91,377,30,132,138,124,79,68
91,371,24,122,478,445,74,67
88,376,23,110,695,635,70,56
83,348,22,96,798,789,60,51
90,315,21,85,847,897,60,52
91,277,20,64,885,932,51,67
85,248,21,58,776,853,56,70
84,178,21,44,603,750,59,72
88,157,18,34,469,602,60,84
89,140,17,28,391,452,65,89
86,128,19,27,307,474,79,84
90,139,21,31,326,542,82,107
92,135,21,29,311,522,83,109
92,129,22,29,303,523,86,106
78,125,23,30,307,532,82,104
75,122,22,31,306,478,71,102
67,99,20,28,226,381,68,84
61,87,22,28,217,403,82,86
56,93,21,27,240,451,84,79
67,100,20,26,225,491,80,79
64,105,19,24,234,557,79,96
66,105,19,24,234,549,82,92
71,110,17,21,237,542,66,91
71,161,20,41,411,640,60,87
64,233,23,55,711,852,61,82
73,337,35,75,927,921,76,70
75,468,40,95,1131,940,71,64
70,492,41,100,1262,1020,74,63
70,489,40,98,1251,986,71,75
76,465,39,92,1144,825,73,77
75,398,29,76,999,728,54,69
73,231,20,49,771,710,52,74
73,179,19,41,543,683,44,76
73,138,19,32,453,631,40,67
70,110,18,30,360,577,60,88
62,100,18,32,298,556,66,107
66,95,18,30,276,551,71,116
68,83,17,28,271,472,71,113
71,91,16,27,271,505,73,113
73,92,17,25,259,505,62,100
73,93,16,22,264,509,62,87
71,96,18,21,283,566,67,81
74,99,18,21,263,529,69,88
74,101,19,21,256,499,70,88
74,104,19,23,297,545,67,85
80,108,20,25,298,539,61,89
80,110,22,25,294,484,88,81
80,164,21,43,523,618,91,78
73,280,24,75,757,812,90,78
72,321,33,97,801,815,90,93
71,337,39,106,815,816,96,81
66,367,39,110,898,837,76,82
65,362,38,109,849,806,74,78
67,288,37,92,694,658,76,78
59,244,30,69,650,634,84,65
54,224,22,53,649,681,92,80
54,174,20,45,531,682,85,78
52,134,21,33,443,634,87,75
53,121,21,28,387,594,86,78
57,121,21,25,376,614,77,79
54,115,21,26,350,592,57,61
53,113,20,23,365,601,68,63
51,116,20,25,376,610,64,67
47,114,19,25,375,625,63,63
48,113,20,25,362,612,62,62
58,111,20,25,367,589,69,63
64,107,20,26,351,580,69,61
69,105,19,25,336,573,64,59
70,167,18,46,569,726,64,61
67,324,17,99,814,943,63,62
70,364,23,124,861,961,67,64
67,415,23,137,913,972,90,82
62,432,25,140,985,1001,93,87
72,423,25,136,919,945,97,88
72,319,25,104,748,756,101,85
60,276,21,73,716,743,93,82
61,197,19,47,667,759,74,72
62,155,21,38,585,741,71,66
53,124,20,30,517,697,67,65
59,120,20,28,489,680,64,62
59,110,21,25,464,683,66,70
63,98,22,23,448,683,52,62
68,103,21,20,415,668,51,61
69,97,22,21,393,640,58,64
66,92,22,23,373,628,63,66
68,96,21,27,372,617,121,76
59,98,20,26,347,555,124,74
50,90,21,26,355,534,130,77
40,96,18,27,363,530,128,73
43,98,19,26,349,530,130,75
43,158,19,44,535,752,82,56
45,321,19,105,757,935,78,54
47,350,27,112,816,978,69,51
50,397,32,121,862,1009,67,46
43,417,31,127,923,1052,54,40
46,405,31,123,865,949,61,43
44,298,30,78,715,793,57,43
46,274,23,71,683,770,60,43
47,204,18,53,648,753,57,46
53,161,19,38,567,693,56,49
51,144,19,36,526,639,46,53
53,138,21,33,483,644,46,53
52,114,20,28,430,630,44,57
49,105,20,27,406,608,48,89
43,102,20,27,393,610,53,89
46,160,18,47,543,773,52,88
48,262,21,64,799,988,57,88
51,338,27,115,837,1003,57,85
52,369,30,129,845,989,57,66
51,427,30,146,855,976,59,74
43,425,30,147,762,832,54,72
42,403,29,157,476,490,56,73
39,384,23,134,560,664,69,82
37,389,19,126,694,799,66,83
38,346,19,111,801,912,60,75
40,386,18,111,839,939,60,74
47,431,19,113,872,1233,62,80
51,502,21,132,805,1388,56,74
55,560,26,149,793,1501,60,73
55,560,26,148,744,1477,89,94
62,527,28,144,735,1482,89,99
58,473,27,123,766,1296,90,93
54,361,25,93,776,1035,84,90
56,213,19,50,678,785,88,109
59,181,20,41,617,726,67,94
52,155,19,33,570,675,71,90
51,133,17,30,494,641,63,91
61,118,16,23,452,611,65,107
59,109,18,23,415,579,61,79
59,108,17,22,393,575,68,78
66,105,17,22,393,602,69,78
75,104,18,23,375,632,70,77
68,105,19,23,358,658,70,54
71,108,20,25,365,660,65,50
71,108,20,24,370,662,67,53
67,110,22,23,377,677,59,49
59,108,24,24,391,653,76,62
55,102,24,23,390,638,76,61
55,152,23,41,483,850,82,69
53,289,29,67,690,1044,71,65
56,345,39,71,976,1045,72,67
62,388,45,78,1036,1025,59,57
63,428,48,89,1073,1059,66,71
62,422,48,85,1053,924,59,77
68,353,45,70,970,818,55,77
73,307,35,70,724,830,63,76
67,260,27,63,684,814,56,73
70,192,21,48,630,798,60,77
66,170,20,43,601,771,65,66
66,149,19,40,535,636,67,68
59,137,19,33,472,598,60,73
60,118,20,28,388,620,59,74
60,116,19,27,369,553,55,72
74,111,19,27,364,533,55,72
69,110,19,27,353,517,54,74
66,102,20,27,341,518,55,69
65,105,19,26,333,569,56,67
65,98,19,24,330,582,57,64
49,98,19,22,332,625,60,62
49,96,19,21,334,612,59,56
52,145,19,41,378,804,66,61
55,320,20,93,513,940,64,63
51,335,30,100,603,961,57,53
51,406,32,109,683,970,49,51
56,428,31,113,712,970,62,64
51,424,32,110,721,837,59,59
49,322,32,74,675,667,66,67
54,311,23,66,615,634,66,72
51,211,20,50,523,570,79,81
49,164,21,40,472,575,72,72
55,137,18,34,419,546,68,72
56,118,15,28,338,502,61,62
59,113,15,24,296,471,64,56
65,119,16,24,301,485,63,76
61,118,15,24,315,488,61,79
56,118,15,23,309,466,64,81
56,111,15,25,328,474,72,85
54,108,16,25,328,472,74,92
57,97,15,26,305,441,61,75
60,97,17,26,306,455,63,75
65,92,17,29,306,454,59,73
66,92,16,29,275,428,53,74
62,94,17,29,281,440,52,67
59,138,19,45,345,495,68,81
64,227,18,63,595,760,73,78
68,310,24,92,660,797,75,80
73,327,31,95,721,824,73,80
72,337,31,98,813,877,72,79
70,344,29,96,818,872,62,69
72,299,30,87,697,697,64,70
67,221,26,55,659,700,66,75
63,203,19,50,624,693,66,78
62,188,19,44,512,635,66,79
60,143,20,33,466,659,62,85
50,128,19,27,412,651,53,82
68,120,18,26,378,631,74,78
67,110,18,25,328,640,77,74
74,105,16,27,314,636,73,78
73,106,18,27,309,565,77,69
78,111,19,27,297,516,86,73
60,108,18,28,305,500,69,69
58,103,19,27,302,449,65,69
59,100,19,26,295,439,67,64
61,104,16,26,310,479,63,55
56,96,16,24,294,486,53,52
56,91,17,22,279,527,50,54
56,96,16,22,292,588,59,59
48,136,16,36,372,615,61,57
46,237,18,52,645,835,59,57
41,292,20,80,698,1049,60,56
40,435,20,121,759,1344,65,61
36,455,21,126,852,1466,56,53
34,456,23,125,879,1470,55,56
37,414,21,120,741,1355,58,53
48,381,20,104,716,1209,54,59
43,205,19,52,665,848,48,50
44,153,19,38,552,563,46,50
42,119,17,31,450,513,45,45
39,107,19,26,380,486,43,47
28,99,21,24,337,426,43,37
38,96,20,24,317,385,39,37
43,96,20,24,285,397,42,38
44,93,18,25,277,392,43,41
46,89,18,25,276,422,42,38
48,98,16,25,269,437,48,45
51,95,17,23,259,449,46,58
64,105,17,23,273,438,62,68
71,147,18,30,362,530,61,74
73,162,17,32,391,545,66,80
74,174,18,35,426,572,70,79
69,178,21,39,438,563,71,70
54,209,21,53,545,708,56,64
50,282,22,70,784,942,85,60
46,326,37,74,1077,944,84,53
51,401,42,81,1202,932,82,56
49,418,41,85,1275,985,82,58
53,422,42,83,1281,934,87,56
56,372,40,69,1165,673,58,51
56,336,27,65,914,666,59,56
53,235,18,56,737,681,55,47
55,202,18,48,602,605,56,45
55,155,17,37,484,534,49,42
53,133,17,31,374,469,48,40
57,109,18,30,310,422,53,46
65,106,18,27,278,389,52,57
66,105,17,29,263,396,66,66
67,113,17,30,288,487,66,71
65,120,18,33,318,539,66,70
65,121,17,32,299,549,67,69
54,122,18,32,316,546,66,62
54,120,18,31,320,542,54,53
53,113,19,29,296,446,57,58
49,110,19,25,270,394,74,65
46,118,19,26,282,400,66,61
52,112,19,25,247,369,67,62
52,109,19,22,223,365,66,63
50,163,18,41,387,498,69,57
54,262,22,74,744,796,54,56
52,320,24,108,788,827,58,61
48,335,23,118,842,869,54,61
44,353,24,123,938,916,53,62
50,347,24,121,929,890,58,62
50,285,21,106,724,673,59,59
58,221,20,72,699,662,55,56
64,201,21,56,655,658,72,71
71,172,22,42,517,610,73,72
75,143,22,34,440,573,65,72
74,127,21,29,360,566,68,73
71,118,21,25,319,624,67,67
72,111,21,25,281,585,56,56
80,101,21,23,260,573,55,56
76,106,20,25,280,604,63,59
74,109,21,24,283,582,62,55
74,109,21,26,296,514,63,56
70,117,21,28,310,543,58,56
57,121,20,29,319,570,57,52
52,109,20,25,283,626,49,53
64,110,21,25,288,641,55,56
78,104,21,24,254,611,81,64
77,100,21,21,227,578,86,68
79,165,21,39,464,705,87,71
85,264,20,60,687,829,89,71
85,308,23,80,738,865,88,68
74,388,23,109,806,1064,79,66
75,412,23,114,902,1078,103,69
74,397,23,109,849,1021,104,68
71,344,24,102,715,882,102,66
70,308,20,88,685,899,103,73
67,199,20,47,611,754,93,74
69,144,19,35,485,759,60,63
65,122,20,34,410,699,57,62
63,109,21,28,351,665,74,63
64,97,20,23,305,550,68,64
60,93,20,23,293,427,68,58
68,86,20,22,257,444,88,61
75,91,18,22,259,483,97,69
73,91,18,23,256,529,91,64
68,94,19,23,253,567,90,54
70,97,19,24,271,588,92,53
64,96,20,23,274,578,79,53
60,103,21,23,279,588,74,44
60,111,21,23,323,589,75,43
65,108,21,24,326,597,73,45
76,112,21,25,337,595,79,51
79,179,19,44,558,725,72,44
77,266,23,62,779,928,64,40
77,472,32,107,1045,1179,56,43
77,488,32,109,1083,1195,74,54
66,499,32,112,1103,1220,65,53
60,480,33,107,1031,1153,69,54
62,438,31,98,895,1010,69,54
66,199,22,46,564,700,70,53
61,153,21,41,495,655,59,41
75,112,22,32,456,639,66,78
81,113,22,31,424,681,64,84
80,109,21,26,379,667,69,90
81,107,20,24,359,703,73,97
90,106,21,22,362,717,66,98
88,104,21,24,342,684,84,94
81,104,20,29,346,645,84,94
94,103,21,29,363,662,87,97
94,104,20,30,370,636,80,92
88,108,20,30,378,666,84,90
85,108,20,26,395,677,63,68
85,108,20,23,386,645,88,78
79,109,19,24,380,655,83,80
76,176,19,42,577,798,108,89
78,303,26,78,840,923,106,90
80,352,33,84,1032,952,107,89
83,428,38,96,1090,1009,90,78
80,447,38,101,1150,1026,88,77
84,430,38,95,1088,943,66,69
90,355,33,70,911,803,72,73
84,312,26,65,705,744,72,80
85,203,18,48,629,740,70,81
80,153,18,37,514,721,80,81
83,134,20,33,467,679,72,82
79,133,20,32,449,721,72,83
78,126,20,30,446,765,69,74
77,117,20,28,448,733,67,74
76,115,20,26,446,699,68,68
72,114,18,26,445,736,76,66
68,111,18,27,464,712,69,61
65,109,18,24,423,710,70,57
62,103,18,22,407,699,70,54
66,108,20,23,420,716,63,48
63,108,20,24,417,673,63,49
58,101,19,23,388,643,73,66
64,151,19,36,510,706,73,67
63,345,24,100,740,852,77,73
58,365,30,115,799,879,86,76
67,433,35,127,842,900,85,73
74,455,35,131,892,931,79,63
69,449,35,130,851,873,80,63
67,332,32,92,693,752,77,81
79,316,25,74,643,728,73,84
69,218,18,52,598,725,64,86
67,176,21,42,540,726,61,88
69,155,20,36,517,762,58,90
78,144,20,36,484,745,83,73
72,131,19,33,464,729,83,77
70,123,20,30,455,701,85,76
68,112,19,28,447,659,85,75
92,113,20,29,452,597,93,81
88,110,20,25,421,576,82,74
84,107,21,24,417,565,73,61
87,106,20,26,415,560,72,61
86,103,18,25,391,594,73,77
65,93,18,23,376,616,71,69
63,94,19,23,399,622,57,74
62,141,18,43,470,682,57,84
63,335,17,103,619,766,55,83
66,365,21,119,688,772,66,74
61,428,23,130,747,793,66,75
60,442,22,134,774,814,65,74
58,438,23,130,759,783,74,66
56,325,23,91,685,721,76,66
65,299,21,70,651,710,68,54
61,202,19,48,594,679,60,53
62,168,21,38,558,662,66,49
64,147,21,33,518,639,63,55
67,129,21,27,463,615,71,61
63,112,20,24,424,589,68,60
77,111,20,23,398,567,90,77
76,109,18,26,382,537,86,76
77,108,18,27,372,571,80,69
77,103,19,28,346,563,72,68
76,103,21,28,334,555,73,71
65,102,22,28,349,573,68,65
70,104,22,27,365,591,68,64
66,106,22,27,367,554,74,67
66,102,20,24,378,555,76,62
59,138,19,37,451,571,74,63
60,247,17,58,621,728,55,51
51,263,23,67,684,741,58,52
50,317,24,86,719,801,61,48
43,330,27,98,739,903,60,59
42,342,28,111,718,1064,75,64
40,339,29,118,599,1223,76,64
46,417,28,134,549,1391,74,64
49,422,36,131,568,1456,71,67
60,450,36,127,703,1485,71,67
65,456,35,119,795,1395,87,65
64,413,35,103,856,1193,85,63
63,324,32,75,865,982,88,69
61,263,25,59,834,823,89,67
51,197,22,48,722,656,89,61
47,130,22,32,591,591,68,60
51,125,23,29,471,575,66,65
45,122,22,27,421,583,58,54
45,121,19,27,388,577,51,50
54,110,19,27,344,556,53,48
52,102,19,26,341,554,54,41
54,95,19,24,325,496,56,41
64,95,18,25,294,437,60,44
66,93,19,24,297,472,63,47
57,111,20,26,322,525,59,48
56,114,19,24,306,529,53,48
55,114,18,26,336,578,61,48
47,115,19,25,354,634,59,52
52,112,18,25,333,630,58,52
51,99,15,22,317,607,58,59
51,140,17,41,373,620,70,65
51,235,20,57,595,751,66,63
52,260,29,89,654,757,69,65
57,317,35,100,716,768,69,69
66,340,38,115,731,769,68,64
67,350,38,116,812,889,90,70
65,320,37,114,723,801,92,67
64,306,30,92,714,811,89,61
61,252,22,80,691,812,111,69
56,221,18,57,681,826,113,71
57,181,17,45,556,708,86,58
61,170,19,40,502,671,88,62
61,285,21,58,604,765,90,68
60,388,22,92,634,1133,105,64
61,475,26,118,740,1422,105,62
60,563,35,139,881,1584,114,70
60,595,38,144,1016,1641,109,67
63,556,39,138,978,1601,114,64
59,499,38,121,966,1367,73,60
57,422,36,97,907,1054,70,59
54,302,27,65,795,778,56,49
54,209,20,47,589,639,58,49
68,182,19,43,490,557,50,62
70,147,19,32,427,512,62,65
72,127,18,29,370,491,61,65
75,111,18,27,299,456,65,68
77,99,18,25,288,435,71,76
66,93,16,25,289,461,65,66
60,90,18,24,282,449,56,62
60,93,18,24,276,446,67,68
54,98,18,23,280,450,66,71
71,103,17,24,283,475,59,65
75,114,19,25,286,466,60,70
80,115,19,25,294,471,61,78
83,112,18,26,298,465,62,74
87,109,20,25,294,450,58,68
76,101,21,26,296,424,61,69
73,142,22,40,415,527,64,63
71,307,26,83,694,771,71,50
69,313,34,94,732,779,74,63
82,386,38,105,854,879,75,69
79,400,38,107,935,901,88,71
74,395,36,104,901,846,90,71
77,291,33,75,749,661,86,71
75,291,24,65,740,677,76,61
67,183,16,44,615,565,95,61
68,155,16,41,481,516,81,57
73,127,16,33,457,503,81,70
78,117,17,32,417,437,75,74
85,136,17,34,415,532,81,77
84,160,16,42,448,581,70,78
83,163,19,40,464,587,75,81
83,194,21,55,535,678,105,79
83,260,20,69,768,923,109,82
76,277,37,70,976,863,110,79
73,372,44,79,1190,839,106,75
77,397,50,84,1221,850,107,83
79,408,50,80,1299,918,73,75
74,390,51,75,1232,753,81,83
77,377,41,76,1114,818,82,91
79,274,34,63,870,824,79,89
92,238,23,56,816,811,89,92
88,193,20,49,638,677,89,92
87,148,20,37,494,587,81,82
85,128,18,25,334,457,72,79
81,127,17,25,296,433,74,81
63,120,16,28,298,474,78,69
65,122,16,29,296,489,84,76
61,123,16,30,297,518,88,74
59,119,18,29,302,534,92,68
73,120,18,28,298,523,101,74
71,120,22,26,292,500,93,79
72,118,21,26,278,450,93,73
75,117,22,25,270,436,89,72
77,115,22,28,258,415,91,77
68,107,22,30,237,394,101,83
66,107,22,30,223,400,98,81
66,102,23,28,214,405,93,81
69,98,24,28,212,432,92,83
77,166,23,42,423,582,91,78
72,235,24,54,727,902,67,64
74,338,24,104,764,906,88,71
73,356,26,109,798,916,90,78
71,387,26,113,951,1061,90,79
60,386,27,112,953,1046,85,82
60,354,25,109,797,857,90,81
68,260,22,62,787,920,67,75
78,235,18,54,768,939,72,70
76,185,17,48,578,787,73,73
78,136,19,36,453,719,79,70
79,119,20,29,374,639,71,72
68,110,21,27,324,518,76,70
61,107,21,25,289,446,73,65
58,96,22,21,274,389,86,66
69,98,20,22,270,414,84,64
71,102,21,22,251,546,83,67
76,103,21,22,250,562,76,72
71,102,20,21,256,583,73,72
75,106,19,22,261,589,51,62
63,103,20,22,265,593,47,61
62,104,17,21,284,506,60,69
57,105,16,20,273,508,66,59
55,106,17,22,266,541,69,61
50,106,16,23,271,559,68,62
54,162,17,38,457,669,68,66
55,235,18,51,731,928,63,51
63,298,19,75,804,1162,76,65
63,443,20,119,853,1370,80,63
73,466,20,124,955,1476,82,71
83,464,18,124,950,1434,81,70
86,435,19,120,800,1292,76,71
85,394,19,107,745,1085,69,59
93,223,18,54,722,802,74,68
94,172,19,42,587,599,74,77
84,129,20,31,469,588,88,84
91,114,21,25,400,580,88,84
88,111,22,25,371,596,79,81
84,104,23,24,308,578,70,71
77,98,23,23,309,586,69,54
77,95,21,21,307,626,56,48
69,90,21,21,297,642,74,49
71,96,19,24,319,668,72,50
69,97,18,24,324,698,69,56
69,94,18,24,317,696,69,53
69,101,19,25,323,660,65,54
66,98,19,26,333,610,63,66
65,94,20,25,319,602,65,67
61,96,19,24,447,664,65,62
59,157,20,42,602,879,64,70
65,256,22,64,908,1127,67,68
70,330,32,76,1134,1155,49,55
70,399,39,84,1190,1134,61,57
70,417,39,87,1207,1184,57,65
72,416,39,86,1176,1046,62,71
68,372,38,75,976,790,64,71
63,316,31,65,731,810,65,70
68,228,20,55,664,847,58,69
76,195,23,52,569,688,74,76
74,156,24,43,503,725,81,66
69,134,24,36,480,706,76,61
73,114,20,30,445,746,77,70
68,104,20,28,415,748,71,72
60,97,17,24,401,755,62,62
60,92,16,21,408,724,54,76
64,95,17,23,413,755,56,80
53,105,19,26,433,661,56,71
54,105,19,27,452,698,60,72
56,110,20,27,450,711,65,75
67,112,20,27,438,677,64,62
65,113,23,25,436,625,66,59
70,160,22,41,571,747,68,69
73,298,24,82,825,932,70,89
80,326,31,100,877,950,59,85
74,355,36,110,876,934,84,84
76,380,38,122,873,930,93,94
76,377,38,121,838,861,109,112
80,303,37,101,668,669,106,94
74,302,31,92,702,722,111,97
78,312,24,87,837,864,110,108
78,315,24,76,834,886,111,110
72,313,28,81,765,840,102,90
65,313,31,89,673,807,102,91
81,307,31,96,552,874,124,93
80,303,31,105,272,976,113,82
82,329,29,118,305,1180,110,69
93,356,28,117,626,1338,102,68
101,386,33,117,697,1332,107,70
90,388,38,106,744,1229,118,81
87,368,42,91,783,1037,116,77
92,320,44,67,786,768,111,76
86,272,46,56,571,423,114,79
73,254,42,51,563,307,108,77
76,257,39,65,532,253,63,65
78,381,36,88,638,512,61,68
68,394,31,93,689,653,62,71
70,399,26,94,747,772,58,64
75,366,24,86,724,825,60,70
66,345,20,75,727,875,61,79
67,177,18,42,614,804,70,77
71,131,17,31,550,729,66,75
65,119,17,29,486,662,66,77
63,114,16,27,449,686,64,72
70,114,18,25,428,707,75,76
80,116,19,26,422,689,63,78
79,116,22,25,401,685,62,80
80,110,22,23,387,680,59,78
82,114,23,24,395,642,64,88
76,105,21,25,377,595,52,74
63,107,22,26,367,596,74,77
59,105,19,26,380,596,78,76
66,105,20,26,370,574,81,80
60,102,18,26,363,589,82,76
61,107,19,25,383,605,80,72
59,149,18,41,454,649,74,70
62,339,21,104,619,760,81,75
58,363,27,110,703,806,81,71
65,411,33,123,758,829,80,71
66,423,33,125,804,854,78,71
76,423,33,123,804,855,78,68
76,304,31,82,728,822,71,63
77,281,26,74,677,790,74,65
73,211,21,53,632,778,74,65
70,187,22,48,571,762,73,66
69,154,24,41,527,721,75,68
69,136,25,33,470,625,70,66
65,121,25,30,426,602,68,69
62,105,24,25,388,549,66,69
64,104,23,25,368,545,68,69
60,110,22,24,352,541,82,74
59,103,22,23,331,588,86,76
61,107,22,24,336,593,93,76
76,110,20,22,350,605,94,80
75,109,20,24,369,581,100,86
81,105,21,24,365,576,81,91
81,132,20,39,390,538,77,89
82,301,21,66,527,652,74,86
69,320,24,78,607,688,75,88
68,339,25,91,638,729,81,95
60,388,29,115,666,898,79,83
57,426,29,126,716,1124,84,92
56,341,28,116,676,1070,81,90
65,339,26,111,659,1086,80,83
72,328,25,102,670,1078,61,66
76,276,21,76,693,985,62,83
79,200,21,47,635,741,58,76
74,199,20,48,585,726,62,76
69,340,23,97,672,761,84,77
69,337,32,105,663,757,86,80
64,352,34,116,635,702,85,59
61,381,39,132,650,680,84,62
71,395,41,143,658,680,82,73
87,302,41,129,494,529,66,68
90,343,35,136,416,430,64,68
89,337,33,134,353,366,60,68
92,336,30,129,289,284,59,61
94,331,27,117,468,420,67,62
79,334,23,107,614,558,70,73
70,297,22,91,699,658,74,73
72,287,23,79,764,707,77,75
81,263,16,64,775,722,78,78
80,278,24,65,757,885,71,72
83,366,37,73,918,845,58,66
82,496,43,97,1081,843,58,80
83,503,43,99,1070,830,56,79
78,502,43,99,1097,861,58,82
75,484,40,95,1055,660,60,78
70,396,29,82,847,703,71,78
72,200,20,49,554,678,69,76
78,173,18,42,495,670,72,79
77,148,19,34,410,642,71,76
73,131,19,30,358,601,66,80
71,114,20,26,297,516,54,76
72,101,19,26,269,535,86,69
58,101,18,26,289,620,90,66
58,97,18,26,296,647,92,62
60,95,15,28,299,668,96,62
60,100,15,27,312,690,109,61
60,106,17,28,312,658,91,60
63,101,18,26,298,576,93,62
62,102,19,27,300,538,94,64
56,101,20,25,292,507,94,58
66,102,20,24,280,466,76,54
66,146,19,35,364,476,70,51
66,256,20,60,635,805,63,58
66,287,29,82,683,824,64,54
67,311,32,86,718,830,65,63
84,323,34,89,813,951,64,61
87,337,34,92,828,961,62,60
86,266,34,78,682,760,71,61
86,240,25,56,671,789,69,61
85,210,21,51,647,780,62,61
58,192,18,46,531,662,68,64
53,131,17,31,462,655,80,75
54,133,17,29,409,636,73,67
63,118,18,26,351,589,73,69
67,113,16,26,332,596,81,65
67,113,18,24,329,551,84,72
66,110,18,23,311,501,81,63
63,103,19,23,314,451,77,62
53,100,19,25,310,421,90,67
62,101,19,23,295,405,86,69
79,95,20,24,286,405,105,67
83,95,19,24,280,383,99,62
82,91,18,25,259,365,100,73
78,93,18,23,255,372,91,66
70,93,19,26,268,358,97,64
55,141,19,40,375,465,81,58
57,267,19,72,674,828,82,57
58,327,25,100,724,844,78,45
62,337,32,102,754,850,114,61
61,342,32,102,825,908,109,59
56,347,31,100,837,884,106,66
45,283,32,86,734,723,109,66
51,223,27,55,728,749,110,66
65,222,20,53,712,755,70,55
69,223,22,56,639,696,66,55
70,187,23,49,565,664,61,47
72,157,23,40,410,514,54,53
70,138,25,34,329,465,60,57
58,113,23,33,304,441,51,51
59,100,22,28,285,426,49,54
59,107,20,30,299,429,45,56
60,110,18,30,300,401,49,51
59,119,16,31,311,396,42,50
58,118,16,27,289,397,43,52
55,113,16,27,276,452,45,56
57,111,18,26,261,457,51,54
63,112,18,25,262,454,48,52
65,102,18,26,235,436,66,60
64,106,18,27,244,463,77,62
61,100,17,26,233,394,83,60
63,103,15,26,244,416,80,62
57,148,16,45,376,543,82,62
56,239,17,60,695,919,81,56
58,330,21,87,794,1209,77,64
67,484,35,119,945,1388,73,72
65,502,35,123,1065,1485,73,75
61,503,35,122,1072,1466,75,79
59,470,35,117,938,1309,68,76
56,411,33,98,880,1050,71,75
50,211,18,56,729,811,90,85
54,165,20,46,539,600,92,84
64,121,20,33,445,542,98,88
70,111,21,28,369,441,95,89
69,109,22,26,308,413,87,82
68,109,22,22,283,386,66,61
66,101,20,20,276,434,67,58
73,100,19,21,256,433,60,54
69,103,19,20,245,437,58,52
72,110,16,21,268,479,68,58
85,120,17,23,299,552,69,56
84,124,18,24,300,534,66,56
74,126,18,22,317,589,74,57
71,130,18,24,358,623,73,54
79,125,19,25,348,586,65,48
64,119,20,29,343,582,64,50
71,184,19,47,522,660,65,50
66,275,20,67,753,921,57,49
71,310,30,81,829,915,59,59
72,339,37,85,848,913,57,61
71,361,37,88,920,901,68,70
64,347,38,83,870,859,64,70
64,281,37,70,695,530,61,70
63,242,30,53,606,515,61,63
47,202,21,49,591,556,72,64
50,161,21,38,463,592,65,52
54,121,21,31,383,587,67,50
63,120,21,28,363,585,65,47
61,116,19,28,336,583,77,54
65,109,19,24,304,555,77,51
67,104,20,23,290,514,86,59
71,106,19,24,283,481,88,60
70,101,20,25,262,531,89,62
73,99,22,25,236,523,99,68
80,102,21,25,240,524,96,68
85,103,21,24,253,517,88,66
80,103,21,23,251,516,84,63
77,104,21,20,257,468,81,59
76,99,20,18,261,477,76,49
69,101,20,19,257,478,75,54
57,169,20,41,495,655,76,50
61,301,20,81,738,905,77,53
62,361,20,107,786,928,89,61
64,388,24,117,817,927,80,58
67,408,25,121,891,949,77,57
66,395,24,118,839,857,78,59
59,310,24,97,681,670,77,57
60,239,23,68,646,653,62,46
57,200,17,51,626,664,49,44
61,160,17,41,540,681,77,49
61,130,18,33,465,671,79,49
63,124,16,30,409,609,79,54
60,120,18,30,393,621,81,57
63,114,18,28,371,629,84,56
60,106,18,27,348,605,68,54
65,108,19,26,347,606,70,52
65,101,20,28,354,621,69,53
63,101,20,28,337,619,86,56
61,99,20,28,349,614,84,58
68,94,22,27,356,604,80,56
66,92,21,26,345,582,84,61
66,96,20,25,342,586,84,56
68,159,20,44,571,778,72,58
68,320,20,85,762,941,73,56
58,354,24,95,821,968,74,50
62,405,29,111,858,1022,64,46
63,420,29,115,917,1038,66,50
65,413,29,110,863,918,70,43
66,308,29,84,725,816,72,51
66,273,26,74,702,821,66,53
62,197,20,45,679,799,62,51
62,162,20,34,608,779,80,54
57,130,20,31,516,753,76,58
72,123,20,29,478,701,82,55
71,114,21,26,404,666,88,62
68,100,23,27,369,619,89,60
70,100,23,26,352,621,71,53
70,94,23,24,345,625,64,49
61,92,22,23,338,590,55,46
60,96,20,23,344,626,60,38
65,94,19,22,336,611,61,40
68,90,17,21,335,590,64,46
82,92,17,24,334,609,69,57
73,158,17,44,541,958,69,61
78,282,16,60,728,993,68,61
74,331,18,86,795,1176,75,71
70,439,20,121,818,1428,80,67
55,499,19,137,864,1594,79,61
54,498,19,134,803,1432,76,58
49,449,21,130,696,1412,69,58
50,422,18,116,666,1283,66,50
48,316,18,81,679,1018,75,57
51,212,18,50,642,722,75,61
52,173,17,43,584,700,78,58
63,148,16,37,523,658,89,68
70,128,18,32,468,636,84,73
72,108,17,28,413,583,82,68
68,102,17,26,376,589,79,61
65,93,18,24,359,580,76,63
52,92,18,24,355,591,76,57
40,87,18,24,347,610,78,48
52,87,17,19,336,611,64,50
59,86,17,29,580,608,66,53
63,102,17,35,845,584,63,54
69,109,18,37,931,572,75,60
68,110,18,38,975,563,77,59
62,112,18,39,974,601,77,61
73,118,20,33,857,586,78,60
75,119,20,27,620,596,91,59
85,112,21,24,484,592,70,55
95,110,21,23,410,577,74,61
98,112,23,23,434,554,75,59
88,104,22,23,440,556,78,60
88,99,22,23,418,561,75,66
85,100,22,22,418,560,75,63
88,94,21,22,405,548,67,60
87,90,20,21,380,536,70,57
91,98,21,23,375,535,65,55
87,92,21,23,364,539,50,46
83,92,20,23,348,570,47,52
68,96,20,24,362,612,49,51
62,93,19,25,362,620,61,61
56,97,18,23,365,630,71,62
62,150,18,38,459,718,80,67
63,257,19,61,629,911,83,63
64,364,22,89,748,1217,87,66
67,492,30,122,870,1457,82,58
72,550,38,134,959,1495,73,61
68,552,39,134,968,1459,68,57
63,523,39,128,897,1350,66,53
66,465,37,112,835,1082,60,46
63,332,32,77,720,730,60,48
74,222,20,53,606,646,64,46
72,190,20,45,537,639,65,48
71,154,21,40,486,600,70,54
70,125,21,31,410,551,78,59
72,112,21,28,377,558,71,57
59,107,20,27,353,566,76,59
68,104,21,27,340,565,69,57
67,102,19,25,345,584,68,54
65,101,19,27,343,597,69,55
61,102,17,28,350,572,76,59
59,103,18,28,345,548,66,54
48,97,17,26,332,525,68,54
45,103,18,25,318,502,67,51
40,104,18,24,316,502,52,46
47,106,18,22,317,505,40,42
56,149,20,37,372,544,48,49
58,270,21,67,606,740,50,47
63,281,31,78,691,777,70,55
65,332,36,86,753,782,71,52
59,351,40,94,798,814,74,54
50,357,40,92,885,827,77,51
48,293,40,76,780,703,80,56
42,292,32,67,760,724,61,49
43,240,26,59,722,745,68,55
48,217,20,48,676,715,87,57
55,183,18,41,530,681,81,56
55,156,18,36,476,646,76,51
56,140,17,34,381,567,81,52
62,127,18,30,348,521,86,58
61,117,19,27,333,514,77,63
54,110,18,27,302,538,78,63
56,109,18,26,313,535,82,66
54,101,20,26,307,539,78,66
53,98,19,23,271,528,70,56
56,102,20,25,280,535,70,50
56,100,19,24,285,479,70,49
53,97,18,23,269,466,68,45
56,96,17,24,282,535,65,41
52,95,19,24,287,595,60,40
45,92,17,23,275,610,44,29
49,137,18,39,357,659,68,45
48,277,21,94,581,811,66,44
45,321,25,113,665,795,69,45
43,342,26,119,780,809,97,54
54,352,28,121,853,841,101,57
55,348,27,119,841,831,88,48
54,255,27,83,744,718,87,49
54,203,23,54,703,695,92,51
58,175,19,42,589,653,63,44
53,157,18,36,485,599,59,40
50,136,18,28,465,583,56,39
50,130,17,28,397,593,57,40
55,120,17,27,332,577,55,41
59,107,19,25,314,557,53,48
55,103,19,25,302,543,59,48
55,98,19,25,281,523,70,50
58,96,19,25,289,472,76,54
55,96,18,24,287,468,71,51
59,98,15,23,274,439,74,44
72,104,15,22,281,442,70,46
73,106,16,22,289,504,67,44
72,110,17,24,279,542,64,43
70,107,18,24,301,541,66,44
59,145,19,39,394,613,69,48
47,269,20,61,641,743,76,54
43,291,22,74,675,778,74,52
51,404,24,120,794,998,69,55
63,414,25,122,859,1011,70,59
68,409,25,120,841,983,67,56
63,341,25,110,715,911,60,53
67,325,23,103,700,858,57,55
68,165,20,38,583,554,57,48
60,139,20,33,468,522,62,57
56,116,20,27,429,501,65,62
56,108,19,29,358,454,63,67
58,96,20,26,312,418,59,66
71,97,21,26,270,385,64,68
72,97,21,25,273,401,65,62
71,96,21,25,276,393,59,64
73,97,22,24,258,381,74,61
72,99,20,25,267,396,77,63
55,94,19,25,263,397,74,60
60,94,18,25,245,388,71,53
62,95,18,27,240,410,73,49
63,124,17,33,315,483,62,47
62,151,18,37,389,545,62,51
56,155,17,38,409,560,63,52
56,195,17,48,504,639,57,59
55,274,19,59,734,925,63,53
64,372,31,71,988,933,59,54
66,493,39,93,1161,992,65,57
67,503,40,97,1224,1036,62,59
66,495,40,95,1216,1010,67,59
68,462,39,90,1118,783,66,62
59,385,31,80,901,780,65,58
67,192,20,49,636,661,69,53
68,162,18,41,495,563,75,60
69,142,18,35,421,510,72,54
64,122,20,27,345,444,79,55
62,99,19,25,278,324,81,55
63,94,19,26,234,305,74,51
65,89,19,23,224,361,71,43
58,94,19,23,249,391,89,57
60,97,17,25,249,383,77,55
62,107,16,24,272,443,74,56
51,117,17,26,302,484,73,58
46,127,20,26,300,476,72,56
48,127,21,26,297,516,51,46
49,129,21,25,305,553,67,50
48,121,23,25,286,520,67,50
43,110,23,22,254,472,75,57
50,160,21,42,425,536,81,63
61,322,25,92,735,784,81,59
63,335,31,101,776,797,68,56
63,368,34,108,856,865,68,59
66,381,33,112,947,898,68,57
67,368,33,108,916,875,62,52
56,245,29,71,729,679,61,51
52,237,23,62,716,717,71,54
50,181,17,48,626,649,81,62
49,153,18,40,476,641,74,56
42,136,18,36,413,641,71,61
42,127,21,33,346,618,70,62
41,108,20,24,273,539,57,59
45,115,21,24,257,527,43,50
45,114,21,25,266,507,79,51
49,111,20,22,262,499,82,46
50,107,19,22,240,458,86,48
50,105,19,23,238,446,87,49
49,97,18,23,232,454,105,53
46,93,18,23,223,431,85,60
47,90,18,23,209,394,83,63
47,87,18,23,214,401,84,61
49,86,18,23,212,397,86,59
48,86,19,21,203,382,68,52
45,89,19,20,211,415,69,40
44,154,20,45,432,578,78,43
49,287,22,81,665,790,74,44
47,304,30,88,723,848,73,49
50,359,34,106,787,926,75,50
54,370,34,108,877,945,75,58
52,359,34,102,826,880,65,52
46,274,33,78,693,712,69,52
45,263,29,73,665,737,68,47
45,186,24,43,608,646,60,46
43,160,23,37,478,610,61,39
41,137,22,32,427,591,59,39
40,119,22,29,365,592,54,37
46,103,20,26,314,495,55,41
39,93,21,25,283,483,52,39
44,95,22,24,278,517,78,57
42,94,22,22,284,526,81,61
48,92,22,21,287,510,85,62
41,94,23,20,299,526,85,59
42,95,22,23,318,561,101,64
41,93,22,22,310,511,79,47
39,95,22,23,308,606,82,42
34,95,22,22,306,626,76,38
36,92,21,24,298,605,77,40
40,92,20,25,288,607,62,47
35,150,20,39,509,761,59,50
40,231,20,55,715,917,71,54
43,388,23,97,864,1311,73,57
46,522,29,129,994,1524,79,64
46,536,30,132,1033,1524,85,60
49,528,30,131,978,1502,89,58
49,500,30,126,855,1378,75,54
47,394,26,97,737,1016,73,52
50,184,19,46,574,706,65,41
48,142,21,37,523,718,74,39
48,129,21,28,474,643,70,38
44,123,21,23,450,652,69,40
44,119,22,22,428,656,69,39
38,116,22,26,413,624,71,40
39,118,20,26,400,656,50,35
37,108,20,26,398,691,49,35
39,103,18,26,391,697,56,36
44,101,17,25,367,691,58,37
45,102,17,23,356,695,58,37
49,101,17,22,350,657,58,36
49,108,18,20,350,627,88,54
48,109,19,20,365,658,86,52
44,105,19,21,376,645,86,60
49,160,20,41,524,835,89,62
45,255,20,60,805,1075,97,64
46,276,30,68,850,1063,81,56
51,343,37,73,941,1022,80,60
53,360,37,77,1009,1188,94,61
52,363,37,76,983,1081,97,60
57,311,36,65,803,890,91,59
57,292,29,57,759,915,88,62
55,212,19,51,671,980,99,61
60,188,20,46,585,785,86,55
58,137,20,34,517,763,83,56
54,116,20,29,463,700,80,57
58,115,20,29,459,693,72,50
54,110,20,29,403,622,72,51
48,105,19,27,377,624,82,52
51,109,20,24,370,620,78,48
59,108,21,22,368,625,83,50
56,105,21,22,366,612,85,48
58,108,21,21,378,619,80,43
67,107,21,21,387,621,67,40
67,111,20,22,408,665,74,42
66,155,19,43,506,761,67,47
74,283,20,70,802,963,72,51
77,323,28,95,851,983,70,60
74,357,33,102,876,967,76,73
70,375,33,105,915,998,69,83
72,382,34,105,906,950,73,80
68,309,33,91,703,796,75,81
69,272,26,65,666,813,91,88
62,227,19,55,640,840,91,77
72,199,19,49,586,778,94,70
65,193,19,45,626,799,102,72
61,293,20,59,705,859,98,79
59,346,21,92,725,1024,84,71
61,395,21,113,719,1270,85,73
55,446,24,127,744,1497,94,87
60,480,30,138,726,1650,97,101
64,495,38,144,725,1630,97,107
71,519,43,134,851,1547,107,115
72,490,43,120,884,1376,108,116
73,464,42,113,907,1138,104,107
71,484,40,126,935,887,90,97
72,412,38,119,843,805,116,93
63,345,35,117,663,689,104,86
65,342,37,122,600,581,100,82
65,353,41,132,582,539,94,82
68,262,39,105,532,583,99,83
64,286,32,102,619,664,69,78
66,279,28,94,707,755,66,74
64,275,24,85,749,816,67,83
77,218,17,51,710,817,63,83
73,201,18,47,659,759,72,123
78,153,19,35,585,722,77,122
81,134,19,28,499,666,73,134
82,128,18,28,468,625,88,136
71,124,21,29,446,608,92,136
79,124,20,28,433,592,104,114
75,154,21,41,450,626,101,113
76,274,27,74,624,747,117,108
74,301,34,79,762,763,106,103
95,334,37,90,802,766,126,108
87,342,41,96,812,772,121,91
91,343,44,102,802,704,124,90
96,275,44,97,655,516,118,100
101,280,40,111,439,421,118,109
81,269,39,118,326,342,121,117
84,282,36,124,243,235,112,132
85,289,32,121,160,158,127,135
79,335,27,128,295,318,120,119
75,317,25,114,479,567,120,109
77,309,21,101,605,673,99,97
76,293,17,87,699,756,103,90
78,285,16,80,786,838,77,82
75,211,17,45,770,846,78,84
76,194,20,42,696,780,92,90
74,168,21,34,621,763,89,86
73,158,22,33,533,726,79,73
63,131,21,31,421,662,80,75
66,115,21,28,403,642,79,81
68,105,19,24,381,580,81,75
72,103,18,25,343,513,89,81
69,102,18,23,340,506,90,87
68,97,18,23,339,501,89,82
70,102,19,26,302,454,91,92
64,101,17,26,296,452,71,90
61,98,17,25,301,455,57,97
62,97,16,24,276,427,67,88
61,93,14,25,260,438,76,100
54,101,14,28,293,499,71,87
66,107,14,27,289,533,74,89
62,106,16,30,300,571,79,79
65,143,16,43,363,598,73,83
65,262,23,64,592,796,108,82
65,363,35,82,887,878,109,88
59,478,44,105,1129,924,117,88
64,485,44,107,1179,917,117,87
62,481,45,105,1178,917,130,88
61,434,43,95,1106,812,101,80
61,355,33,79,893,726,101,99
57,167,21,45,567,658,99,102
51,148,19,42,464,661,109,102
60,128,19,35,426,631,101,101
67,112,17,28,358,544,98,99
65,96,17,25,330,507,121,74
70,98,18,26,304,474,114,65
76,94,19,24,278,459,100,65
70,93,19,25,295,502,91,61
66,89,18,26,291,513,90,62
67,96,19,26,286,504,60,56
66,101,19,25,314,526,83,62
69,107,19,24,319,512,82,62
64,107,20,25,305,482,84,66
62,107,20,24,322,504,86,69
63,102,20,23,302,499,84,69
58,137,20,36,338,517,69,65
46,286,25,80,604,685,90,58
48,298,33,84,677,708,89,50
54,371,37,94,800,793,95,55
53,382,37,99,874,874,102,63
51,380,36,98,867,905,102,60
60,290,32,69,743,811,82,60
66,284,25,66,715,823,82,79
66,183,19,54,579,718,74,75
71,162,18,47,470,629,66,71
70,137,17,41,464,566,59,76
74,127,17,38,404,511,68,79
73,110,15,34,328,440,75,67
73,106,16,28,317,466,69,67
68,103,15,27,321,432,70,65
74,107,17,22,290,392,66,73
73,104,16,24,286,405,80,83
76,110,17,23,288,419,75,78
77,108,18,24,271,371,92,76
86,111,19,28,272,374,101,103
82,111,17,29,275,427,104,95
74,111,19,28,258,453,93,86
70,103,19,29,260,456,89,91
65,100,17,29,256,450,78,91
54,143,17,43,390,561,95,74
68,330,19,102,672,842,94,76
68,354,18,113,711,840,92,75
64,392,24,121,812,914,101,68
67,405,24,123,897,953,98,72
70,406,23,122,894,976,65,73
62,296,23,83,778,806,68,74
63,276,23,71,779,839,81,74
66,224,17,58,679,815,74,79
65,206,17,54,569,787,75,83
60,172,18,45,488,687,75,70
68,134,19,36,358,608,72,67
68,109,18,31,279,567,56,66
71,106,17,27,288,481,62,84
73,108,18,25,291,492,75,96
77,108,18,25,290,540,96,104
66,108,18,23,294,508,97,107
66,111,17,25,305,498,97,109
59,108,20,25,276,483,98,97
58,102,19,26,250,440,94,85
52,101,18,25,248,354,74,75
62,101,19,27,241,354,73,72
62,90,20,24,209,312,70,69
69,92,19,27,216,352,92,69
68,96,19,25,231,364,84,62
69,102,21,26,250,411,88,70
60,152,19,41,413,548,88,71
56,254,19,56,679,879,90,72
61,393,20,97,781,1240,71,75
59,542,24,133,928,1502,81,73
60,553,23,135,996,1508,82,65
60,551,25,134,976,1483,90,66
63,516,25,129,838,1350,89,68
58,423,23,101,764,1059,77,60
60,197,19,46,584,636,69,60
67,162,19,39,448,602,64,62
66,132,17,28,373,581,64,82
68,116,17,27,315,532,60,78
64,95,16,23,253,459,57,78
68,97,17,23,235,462,61,81
58,104,18,21,240,481,59,78
58,97,18,20,231,462,56,60
55,109,19,21,239,418,56,70
58,110,20,22,248,456,61,80
67,110,20,25,248,490,51,78
71,106,19,26,242,484,52,82
70,108,19,27,230,471,49,77
73,106,21,29,251,489,115,92
72,110,21,29,254,437,116,88
60,111,20,29,245,394,121,90
59,171,20,43,482,699,122,86
63,259,29,66,731,878,122,85
59,323,37,73,887,894,68,61
60,381,41,83,941,969,62,57
63,399,41,87,996,995,68,60
64,382,41,83,935,828,65,63
63,335,36,69,800,682,60,64
66,281,26,62,649,684,59,61
69,193,19,49,571,587,63,59
68,153,20,41,476,555,48,51
69,147,21,36,425,538,46,47
71,131,21,31,346,485,48,51
66,108,19,26,285,511,45,59
59,108,19,25,282,556,38,56
54,108,16,21,280,561,41,53
47,109,17,19,267,566,47,56
38,112,18,21,270,580,50,56
43,109,19,20,261,521,46,49
49,110,20,21,263,493,49,53
55,104,22,20,283,495,47,55
60,93,22,21,274,457,45,56
60,89,21,23,281,477,50,52
59,88,22,25,290,493,53,57
57,85,21,24,279,477,52,55
54,157,20,45,538,671,54,57
48,223,19,55,743,887,61,58
49,323,20,99,778,897,60,64
46,342,18,106,801,901,63,61
52,365,19,111,904,1034,64,65
49,367,17,110,852,966,66,66
49,335,18,106,742,835,59,62
47,241,19,66,729,840,54,55
45,217,19,55,724,851,59,62
52,179,19,43,622,720,63,57
65,123,21,28,522,671,60,58
76,119,20,27,450,623,62,71
81,123,20,26,427,614,62,73
87,120,22,27,399,607,61,74
77,117,21,26,356,587,57,74
76,171,21,41,556,741,55,71
78,293,23,80,826,968,55,60
77,308,29,93,862,974,57,60
70,333,33,101,870,960,47,47
73,368,38,118,869,934,48,63
68,374,39,127,747,784,49,64
54,321,41,120,413,421,58,65
51,351,37,126,295,300,56,65
57,363,34,129,234,229,55,69
60,368,29,125,208,186,66,60
55,359,27,115,367,392,73,62
61,358,22,109,513,533,66,59
64,322,22,93,624,685,63,56
66,289,20,79,690,747,64,52
65,245,20,60,736,840,54,51
81,219,22,53,690,805,43,46
85,170,21,32,605,764,40,48
83,151,20,28,514,685,40,47
77,136,19,26,448,675,38,45
83,117,21,25,404,603,37,36
69,103,19,23,388,589,45,36
65,99,20,26,391,565,48,43
63,97,20,24,367,591,47,52
69,97,21,24,370,610,51,55
60,92,18,22,365,622,54,60
59,89,17,22,360,624,53,66
54,88,17,20,352,640,52,66
54,139,18,37,522,758,53,61
54,272,19,70,788,949,61,70
56,284,22,78,845,973,60,67
69,339,27,99,856,1015,55,62
69,378,28,116,868,1157,57,56
68,375,27,115,853,1095,55,53
66,316,26,104,738,967,44,38
70,314,24,99,719,951,43,36
63,273,19,83,793,969,44,39
68,282,19,69,909,962,45,48
73,308,29,75,1009,945,44,52
75,351,37,74,1041,869,43,51
68,369,42,79,1034,831,43,57
64,379,43,80,1041,922,42,55
56,387,42,89,1057,886,38,55
57,414,37,120,900,853,39,55
55,377,30,126,765,849,41,58
54,384,22,134,722,837,49,53
51,405,22,145,603,605,49,56
53,385,25,139,302,271,52,48
53,341,28,111,264,192,52,46
56,400,31,115,338,397,70,53
58,376,31,102,489,633,62,53
60,343,30,84,612,765,64,50
61,314,29,76,695,853,63,52
57,297,23,70,769,928,64,52
50,188,19,43,778,913,47,47
53,179,21,39,715,816,64,66
55,148,23,32,629,737,63,68
53,142,21,28,565,676,63,69
54,126,23,28,490,631,70,72
52,108,22,23,411,586,70,71
48,97,22,21,387,562,54,54
45,94,21,21,397,590,52,48
53,97,21,22,377,591,53,49
52,98,20,21,370,551,51,44
52,100,20,23,390,573,45,38
54,104,19,25,379,584,48,44
56,106,18,24,367,556,58,47
55,137,18,37,419,594,57,43
53,266,19,58,542,726,52,49
54,315,23,83,627,875,56,48
56,382,23,111,665,1099,65,46
56,469,23,131,733,1277,67,46
49,471,24,130,745,1268,75,64
48,421,23,124,717,1218,77,61
52,393,20,111,666,1115,75,64
61,334,19,84,666,896,68,65
58,192,20,47,601,604,67,66
58,165,20,40,554,579,58,50
58,142,19,32,481,561,55,47
56,123,18,22,450,561,56,43
44,108,20,23,392,578,77,48
61,103,19,22,379,584,69,52
66,96,19,23,364,581,67,51
72,89,19,22,360,564,71,54
74,84,18,22,337,533,76,61
72,84,17,21,337,500,53,53
60,91,16,20,321,481,54,49
54,96,17,20,327,491,61,55
46,96,16,23,318,510,59,56
41,96,16,24,318,533,51,48
41,97,18,25,314,543,52,48
38,128,18,41,345,561,53,45
46,226,20,56,543,736,45,39
58,261,34,57,760,750,49,52
58,370,43,74,1045,757,49,52
58,398,48,77,1108,760,47,57
59,413,48,79,1222,947,52,58
54,390,47,79,1178,846,53,58
41,374,39,79,1076,852,64,51
44,270,30,66,817,849,66,53
44,227,21,62,742,843,67,50
42,181,20,51,522,620,64,51
42,128,21,35,456,582,65,52
45,113,20,32,407,548,57,54
44,109,19,30,378,540,56,54
42,110,18,29,355,543,55,51
47,109,18,26,338,549,54,51
48,110,17,25,334,534,54,52
42,111,17,24,311,510,49,42
44,109,19,25,307,501,48,43
45,106,20,26,316,485,50,43
39,100,19,25,312,453,54,52
43,95,19,24,293,451,60,53
48,91,21,23,300,470,64,63
50,86,19,21,286,442,63,62
54,86,22,21,263,425,65,67
54,129,21,38,347,511,66,59
49,226,21,60,585,625,65,58
45,294,28,103,655,703,58,49
42,311,30,109,710,738,61,48
42,323,28,111,837,928,62,45
47,334,27,111,853,918,72,44
48,283,27,102,763,867,68,45
46,219,18,60,722,821,65,42
46,201,16,49,690,868,68,50
45,183,18,45,551,676,70,56
47,138,18,34,484,635,61,58
47,130,19,30,416,610,60,63
48,122,18,29,396,596,60,62
47,112,17,26,365,482,59,57
42,106,16,27,330,460,54,55
39,97,18,26,333,475,55,56
44,92,18,26,311,450,63,51
44,90,19,26,303,441,77,55
43,94,19,29,315,465,72,55
53,96,20,27,344,470,72,49
51,95,20,27,332,453,69,52
48,98,18,28,348,487,67,52
49,99,21,26,335,472,53,48
51,99,21,26,325,449,53,51
44,153,22,43,403,525,68,57
44,239,22,61,661,780,70,52
40,264,26,68,718,783,69,51
41,315,30,92,753,834,72,53
45,332,31,97,830,881,77,63
44,328,30,93,827,851,63,56
45,276,30,84,688,661,59,60
46,257,29,79,654,667,51,59
48,198,22,48,629,618,45,57
43,168,21,36,533,557,61,51
45,133,22,28,471,528,62,51
47,126,21,26,411,491,61,51
46,116,18,26,378,465,63,50
41,106,19,28,348,445,65,52
42,104,19,30,351,448,43,44
39,147,21,46,452,559,42,46
34,309,21,107,674,757,43,40
35,345,20,125,705,763,43,40
36,390,20,139,738,780,38,40
34,427,25,147,749,781,40,39
38,456,30,151,747,756,41,38
46,373,30,117,690,629,45,39
48,375,30,103,744,710,40,39
47,338,31,86,771,742,43,38
49,298,26,72,790,761,40,36
45,238,20,55,751,727,43,38
43,234,20,55,642,703,44,43
42,179,21,42,545,608,46,41
49,154,20,35,445,543,47,40
46,141,20,32,388,503,49,42
45,165,19,42,468,600,54,45
42,232,20,54,771,905,49,42
40,255,29,83,781,919,54,45
44,299,34,97,809,929,52,47
47,329,37,112,817,934,54,47
47,351,40,121,764,859,49,42
52,344,42,131,420,438,65,48
55,376,38,133,361,358,64,47
46,386,33,135,283,284,67,48
46,385,33,130,207,193,64,49
44,383,35,127,142,130,64,50
41,438,31,124,571,494,56,44
44,418,29,111,766,667,53,46
54,383,29,97,826,726,59,49
54,360,27,85,880,787,60,46
56,325,18,71,902,828,58,44
54,190,18,45,718,693,52,43
51,132,18,28,528,552,52,43
42,116,18,26,436,496,83,44
43,100,18,22,320,414,83,43
44,101,20,22,276,353,83,44
47,97,19,22,259,342,84,49
51,94,18,22,220,346,86,58
50,96,20,19,223,347,53,58
47,96,19,21,234,369,54,67
44,98,19,20,241,441,55,66
41,96,20,20,241,436,52,61
33,104,20,21,243,445,47,54
36,102,19,22,231,449,51,55
41,106,20,24,232,475,54,48
39,99,19,23,206,424,48,47
40,99,20,22,206,457,54,48
42,97,21,22,221,464,62,45
40,158,21,43,461,631,56,38
34,252,28,63,767,868,52,38
43,456,37,102,1063,984,54,44
44,467,36,104,1118,997,53,44
50,470,36,106,1126,993,45,43
53,456,36,100,1069,909,46,42
54,412,30,89,892,687,48,40
49,166,18,41,518,519,48,34
49,136,18,35,409,493,43,35
52,125,17,31,389,499,41,34
63,115,17,28,335,477,41,38
65,113,17,28,305,460,45,52
65,107,17,24,282,431,63,54
66,107,15,23,260,421,67,57
61,103,16,20,259,461,69,58
46,104,17,22,276,485,67,56
41,100,16,21,265,525,69,50
43,110,20,21,316,590,54,53
41,110,22,22,313,587,54,55
33,113,23,24,316,567,51,55
39,111,23,23,321,566,51,56
43,108,23,22,313,514,41,52
43,161,20,40,480,718,43,49
50,262,23,70,738,960,38,47
65,297,33,77,831,974,66,64
66,355,37,85,896,1033,98,92
74,378,38,90,949,1056,103,93
72,365,37,87,899,919,103,93
69,305,35,67,755,719,104,92
55,275,25,59,659,704,96,83
58,198,18,48,575,628,62,48
57,150,18,38,504,642,88,72
58,129,20,31,446,639,89,74
56,119,20,25,368,598,90,73
58,112,21,24,354,617,84,71
54,101,21,22,348,628,85,71
42,103,22,25,328,603,59,48
41,108,22,25,338,606,61,48
46,106,22,26,341,612,63,50
45,102,22,25,339,599,66,52
46,104,22,25,334,581,73,61
48,98,21,23,338,600,65,56
50,84,21,21,318,600,70,58
46,78,20,21,315,606,67,60
47,157,19,41,552,753,71,68
45,245,19,61,813,1004,71,61
47,322,26,103,860,1021,72,62
47,339,29,110,875,1001,66,62
