28,51,109,24,26,35,120,31
33,64,137,30,26,31,132,32
31,66,144,30,24,32,137,34
32,65,144,29,24,31,143,35
33,67,150,31,25,33,150,32
35,73,149,32,25,41,140,34
33,67,129,27,26,45,134,33
34,64,125,27,26,45,159,37
34,67,134,27,25,45,152,36
35,71,140,28,25,46,141,39
33,57,127,22,25,40,152,36
31,88,175,28,30,38,150,36
32,89,178,28,30,38,126,32
30,92,185,28,31,41,153,39
31,96,215,30,32,38,155,39
32,95,211,31,31,37,156,42
36,66,168,28,24,36,186,46
36,74,177,34,26,37,212,57
38,78,193,35,26,33,199,54
37,76,164,32,29,38,239,59
36,84,163,32,29,34,242,58
33,88,178,33,32,36,226,57
31,80,169,28,29,39,207,48
28,76,154,29,29,44,233,47
28,73,144,28,29,43,193,42
28,61,137,28,30,46,177,42
27,59,128,24,27,47,169,43
30,77,168,29,28,43,180,44
32,81,169,29,30,45,167,53
32,81,174,29,27,43,181,53
32,84,188,30,27,46,189,56
32,81,180,30,27,50,223,64
31,69,145,25,26,51,229,68
32,62,128,23,25,50,254,68
34,73,140,29,27,54,281,73
34,72,123,29,28,51,284,75
35,75,133,30,30,52,277,72
36,78,158,30,29,51,290,80
39,79,161,32,31,55,277,82
39,69,144,28,30,51,288,86
37,89,200,29,32,51,297,88
38,86,193,28,31,48,286,86
38,86,170,29,31,53,273,78
32,88,182,28,31,47,305,80
31,87,184,29,31,50,260,70
34,101,170,31,31,53,257,71
35,114,204,32,33,59,260,69
32,109,204,32,33,54,244,66
32,107,188,30,31,55,193,54
33,114,197,33,31,52,234,54
33,82,155,29,28,49,226,56
31,73,148,32,26,42,273,71
34,82,148,35,30,50,324,87
37,80,149,36,31,49,344,95
36,77,186,40,31,50,377,105
37,82,193,42,34,49,375,99
34,80,171,42,33,48,337,89
32,82,190,41,28,43,300,75
34,83,193,41,28,40,266,68
34,82,152,33,30,38,167,47
34,81,171,30,26,42,165,49
36,78,170,27,27,44,170,48
35,69,156,27,29,44,250,57
33,67,149,29,30,48,256,59
32,59,139,29,28,48,261,61
31,84,146,32,31,45,283,68
31,85,151,33,32,43,314,75
32,85,165,32,32,42,257,68
35,86,164,30,30,44,262,68
35,92,176,31,30,45,269,68
35,66,142,28,29,46,249,60
35,62,147,26,28,45,217,54
33,55,122,27,27,43,214,54
31,58,129,30,27,35,197,48
30,49,132,30,27,31,178,46
30,54,144,29,27,32,221,51
34,56,135,31,26,31,264,69
34,60,138,31,27,30,251,66
32,58,138,30,27,35,254,66
33,71,153,29,28,39,263,67
30,76,173,34,27,38,256,72
28,74,166,34,29,44,210,58
28,71,158,32,28,46,217,57
28,70,160,30,28,45,212,57
34,69,162,37,28,44,253,68
37,58,127,38,33,49,250,65
35,57,123,36,33,47,236,61
35,56,126,36,32,46,227,61
36,53,115,37,32,46,263,65
34,34,52,30,30,46,242,68
32,36,70,23,23,39,214,63
31,78,171,29,21,37,220,62
32,79,174,31,22,41,229,62
33,82,179,32,23,39,221,66
37,84,184,31,26,44,201,54
34,93,223,37,31,47,194,53
37,64,170,35,32,56,223,68
37,80,186,40,34,61,246,74
38,78,183,39,34,61,212,66
32,93,208,42,33,57,221,68
36,93,167,36,30,57,251,72
38,96,163,34,29,51,241,64
37,91,173,30,28,43,204,56
35,93,179,31,25,53,234,58
35,78,150,28,31,63,249,56
35,75,175,30,34,70,219,51
30,70,172,31,33,71,196,43
32,62,151,30,35,77,215,49
34,59,159,29,35,73,241,66
35,66,168,29,30,66,224,69
35,57,138,27,27,59,233,68
35,63,154,28,28,56,237,67
36,75,179,30,26,47,247,71
33,81,174,31,27,42,196,56
36,79,163,32,29,40,188,55
35,90,188,33,28,38,180,56
35,84,174,31,29,49,174,57
31,86,170,31,30,49,165,56
33,83,162,33,28,48,188,66
32,92,207,33,28,48,219,74
34,85,188,32,27,52,299,87
35,90,197,35,29,42,315,92
36,77,170,33,28,44,309,88
34,74,168,31,29,43,297,80
33,64,126,28,26,44,337,84
30,75,162,32,28,41,268,71
31,85,187,30,24,43,263,65
32,85,189,28,28,47,262,69
31,84,190,27,28,55,277,72
33,85,191,27,30,53,192,62
34,74,157,25,30,54,190,60
31,62,138,23,31,52,169,59
32,73,174,26,28,49,272,65
38,76,176,29,31,41,267,64
34,71,164,28,31,41,266,56
35,70,165,28,31,40,291,66
37,82,178,35,32,45,322,73
36,75,145,34,31,42,237,63
32,75,144,33,26,39,223,61
36,85,159,34,27,43,246,70
34,89,175,36,29,45,224,63
31,84,154,31,26,43,195,58
29,80,150,33,33,47,213,59
30,82,177,35,35,50,213,58
27,73,166,33,33,51,193,50
30,65,148,32,33,49,209,57
34,60,157,29,34,47,196,57
35,66,181,29,27,43,172,56
34,70,170,28,26,48,217,62
34,68,170,29,27,45,278,77
37,75,186,29,26,45,271,74
34,65,163,30,25,45,270,72
36,74,148,32,32,46,344,83
40,73,133,30,32,42,329,89
41,95,189,32,33,44,329,84
38,97,181,31,34,42,348,88
38,100,185,30,34,45,355,91
36,91,183,29,28,42,290,83
35,104,208,33,30,39,281,73
36,86,156,30,31,38,223,66
36,80,147,29,29,38,183,57
35,83,161,32,30,37,162,51
36,97,184,33,34,38,149,49
31,78,153,31,32,38,188,55
33,81,159,36,34,38,224,58
34,86,180,39,35,40,224,55
34,84,176,37,33,36,226,59
34,67,143,33,31,44,250,63
36,68,139,34,31,46,248,66
33,77,184,31,30,45,213,60
32,82,181,31,32,47,250,69
35,85,189,33,34,48,313,83
38,84,191,34,33,51,296,81
36,90,203,36,33,49,269,71
36,83,173,36,31,49,268,72
34,92,194,34,31,47,262,65
32,87,179,32,31,47,228,47
34,88,179,34,30,38,252,63
35,89,181,31,30,41,256,64
37,89,201,34,31,41,278,72
40,67,162,32,29,43,253,74
42,67,161,32,29,51,208,69
37,67,162,30,30,51,181,54
37,81,216,33,30,51,215,63
37,75,186,30,29,53,238,71
36,85,195,31,32,59,254,73
33,86,201,32,30,53,257,74
34,97,226,38,30,54,254,75
35,77,159,34,29,51,234,68
32,75,154,32,28,48,184,49
31,64,139,31,25,38,150,42
34,65,141,31,27,35,152,40
33,56,127,25,24,36,191,44
31,62,137,29,24,39,187,51
32,69,144,29,24,41,188,56
32,69,146,30,24,40,208,55
30,89,174,36,24,45,230,58
31,83,153,36,26,44,200,54
39,81,145,34,27,49,199,50
39,75,138,34,27,46,189,50
41,82,158,34,28,47,164,50
41,93,201,31,27,44,135,47
41,99,207,31,26,45,140,48
33,97,207,31,25,41,135,47
37,110,229,32,27,50,211,53
35,108,220,32,26,54,241,63
35,91,168,30,25,54,241,64
34,88,160,30,25,55,236,62
33,91,176,30,26,54,299,77
34,78,150,30,25,48,296,77
36,74,141,31,27,41,271,69
34,65,125,28,26,40,266,67
37,67,165,30,26,50,292,73
43,66,153,31,26,49,291,77
40,62,155,32,27,49,256,73
40,70,157,30,26,52,255,73
42,71,155,28,26,52,256,74
48,70,123,29,28,40,359,100
45,80,170,35,30,42,317,90
45,85,169,34,29,40,306,88
43,76,167,35,30,38,306,87
42,85,199,41,32,40,330,91
36,83,194,38,32,48,186,61
33,74,157,32,29,45,186,56
34,73,180,32,29,46,186,56
34,76,179,32,29,47,188,58
35,71,151,26,30,49,171,54
32,70,141,25,30,39,170,47
33,68,131,23,32,40,155,45
30,90,159,26,32,39,155,46
32,91,169,26,32,39,226,55
32,85,170,26,30,41,247,69
32,92,193,30,28,42,247,70
31,94,199,30,27,40,245,67
29,68,150,26,25,41,252,67
27,63,139,27,27,46,236,66
28,67,146,28,26,43,255,70
32,64,147,26,27,46,248,72
31,74,166,27,27,47,261,73
35,81,181,30,31,48,270,79
38,95,217,31,29,47,249,76
35,90,207,29,31,48,193,59
36,90,195,27,31,47,193,56
38,82,180,26,33,48,185,56
37,96,195,25,31,51,184,55
36,92,185,23,29,49,171,56
38,91,182,24,27,46,174,55
35,86,176,24,25,44,184,56
34,84,169,25,24,47,200,61
33,59,136,25,25,47,206,54
29,60,158,25,24,48,199,49
28,65,169,24,26,47,192,49
29,64,166,25,27,48,181,46
31,67,169,25,26,48,176,49
33,71,175,25,24,45,177,52
36,58,121,24,25,44,175,51
35,60,134,25,24,43,181,51
35,69,156,26,26,41,207,56
32,69,157,27,26,41,209,58
30,65,147,27,28,38,197,60
29,93,207,36,31,37,205,61
29,89,188,35,32,39,247,64
34,83,171,34,30,42,260,69
36,95,207,33,30,35,251,69
38,106,224,35,29,36,241,66
35,83,173,26,26,36,233,65
37,83,173,28,26,34,189,59
33,81,170,27,26,40,204,57
32,63,119,27,26,44,221,50
34,63,146,29,27,45,232,52
36,71,172,32,27,48,245,55
35,94,209,36,27,50,253,61
34,99,215,36,26,49,226,57
34,98,212,38,28,52,223,60
30,86,176,33,27,55,209,56
30,81,154,30,31,55,220,54
31,68,150,30,30,54,202,50
33,70,164,29,30,50,203,50
34,71,168,29,31,43,173,42
36,70,166,30,30,39,169,42
39,70,163,31,27,41,229,56
39,49,114,29,25,41,247,66
39,41,90,29,25,38,234,66
38,72,127,33,26,41,234,66
37,80,142,34,28,45,275,74
36,81,141,34,26,42,249,77
37,82,140,31,29,43,231,68
33,82,138,31,28,42,229,67
33,58,105,26,27,40,239,69
31,55,129,25,27,40,254,68
31,60,141,26,28,43,232,55
28,65,147,29,27,41,232,55
32,65,144,28,27,44,226,54
34,64,142,27,26,45,218,52
35,59,105,30,25,42,168,54
34,52,91,28,25,40,163,59
36,52,99,27,26,40,168,63
32,52,103,28,28,38,178,63
32,79,189,31,27,38,176,63
35,80,193,29,29,38,164,58
33,81,195,29,29,37,196,66
34,77,189,29,29,36,197,66
34,76,187,29,28,36,195,66
35,56,107,26,28,37,199,66
32,58,109,25,26,40,216,66
33,63,131,26,29,40,199,57
29,68,157,26,28,40,194,53
31,76,175,29,29,43,206,58
35,81,184,33,31,47,250,70
37,77,181,34,30,43,249,71
39,72,162,34,26,41,221,67
38,67,133,33,30,41,218,66
36,55,104,30,29,43,208,64
32,38,71,26,28,37,160,50
30,40,66,26,27,34,120,41
30,40,71,23,28,35,118,41
30,44,75,24,24,36,134,42
33,55,127,24,22,32,226,57
33,62,144,25,24,35,278,69
34,63,147,26,24,36,285,71
31,75,162,29,26,38,289,70
31,77,183,29,27,45,284,70
30,115,229,34,26,46,219,56
28,113,225,35,28,43,145,44
27,112,226,33,29,47,142,50
26,111,236,33,30,48,134,51
29,113,231,35,30,41,128,51
28,73,166,33,33,43,127,50
30,77,175,32,30,46,128,49
29,77,174,33,31,48,144,39
30,68,143,33,30,45,154,38
29,60,127,29,28,47,157,39
27,62,141,25,26,44,148,35
29,76,155,29,26,51,157,32
26,79,162,29,25,49,176,40
27,79,159,28,24,51,167,42
28,124,233,37,26,51,168,44
29,121,220,37,26,53,203,47
28,109,199,36,28,48,209,51
29,108,197,36,28,48,202,52
31,126,236,40,29,46,208,52
31,88,165,32,28,45,207,52
34,90,173,31,32,46,206,59
34,98,183,32,32,44,240,63
33,107,220,32,33,42,228,61
31,85,183,28,33,40,226,59
30,83,183,30,32,41,226,57
30,79,175,31,29,35,202,48
33,84,215,32,28,32,146,38
35,70,171,30,27,32,138,36
36,71,174,31,25,31,148,37
35,71,178,30,26,35,143,37
34,83,204,30,28,38,163,45
31,65,147,27,28,42,160,49
31,68,155,28,27,40,166,51
31,73,156,28,28,44,158,50
31,69,145,27,28,42,170,54
30,55,113,27,26,40,140,46
30,58,117,27,26,38,139,42
28,65,147,26,27,43,136,37
30,60,160,27,26,44,154,47
33,69,177,30,28,43,156,48
34,75,177,28,29,45,166,52
34,76,179,27,28,43,158,53
35,67,144,29,28,40,149,55
33,72,126,27,27,36,180,52
32,89,149,27,26,34,184,50
33,83,145,27,26,33,189,50
31,82,147,28,27,35,190,47
35,95,177,29,26,39,215,58
37,92,175,30,29,45,179,54
34,72,145,29,27,46,172,54
33,73,154,28,26,46,161,50
35,75,149,28,25,47,168,52
29,78,151,27,26,47,137,40
29,79,154,25,25,43,154,42
30,84,181,25,26,41,148,40
31,107,230,30,29,44,150,40
29,107,237,30,30,41,142,40
36,95,220,27,29,39,158,41
36,92,215,29,30,38,160,48
35,91,203,31,29,37,154,47
32,65,165,28,26,33,145,47
33,62,152,28,29,35,156,55
31,66,153,28,28,40,203,60
30,65,153,26,27,41,190,55
32,58,148,24,28,43,194,56
31,61,124,24,28,43,199,57
30,63,128,29,26,43,203,53
28,54,123,29,27,33,135,43
30,57,121,30,25,32,139,40
29,64,111,30,25,30,136,39
30,62,129,30,26,30,134,40
31,58,125,29,31,34,163,44
27,70,138,29,34,38,198,48
26,75,143,28,34,41,196,48
28,75,163,29,33,40,196,48
29,72,140,30,34,44,245,55
32,74,145,26,29,42,254,61
33,66,133,26,25,47,230,60
31,61,132,26,24,44,224,60
31,65,126,25,27,45,224,59
32,69,140,23,27,45,214,61
28,66,139,24,27,45,200,55
28,66,147,23,28,43,207,57
32,67,152,24,26,44,208,56
31,54,124,25,24,46,205,56
31,51,114,25,22,44,220,57
32,55,130,28,25,45,286,63
32,48,118,27,24,43,299,64
32,47,105,28,26,41,300,65
32,47,105,27,26,39,305,66
32,46,117,27,31,38,309,67
32,51,108,25,31,41,239,61
34,54,109,25,32,39,212,57
34,67,135,25,31,40,209,56
33,69,142,25,31,40,214,56
32,67,132,24,26,49,172,49
32,64,137,21,24,44,147,42
30,79,190,25,25,46,154,40
28,69,181,23,26,46,160,39
29,75,190,24,28,51,176,43
30,81,202,24,27,44,165,38
27,79,194,28,28,44,174,38
28,64,145,25,27,41,190,42
30,64,144,28,27,40,208,49
32,64,153,27,26,48,197,47
32,60,142,29,26,45,201,51
33,62,145,28,23,46,201,52
33,64,146,29,24,46,179,47
33,61,139,26,23,48,155,42
32,72,147,32,25,40,187,46
35,73,140,33,26,44,224,57
34,76,149,33,26,42,233,59
34,72,144,31,27,45,247,62
32,75,146,32,26,45,245,61
32,65,127,28,24,46,226,60
29,67,147,24,27,47,184,45
30,65,136,26,26,46,178,44
37,69,137,25,25,45,221,61
37,72,141,27,25,46,239,66
38,73,140,25,26,46,223,63
37,75,160,26,24,42,212,63
39,75,160,27,27,41,232,69
35,80,162,28,29,44,196,57
36,86,160,26,30,41,181,54
34,81,155,28,29,39,180,53
35,96,126,29,29,37,195,54
33,95,127,27,27,43,159,48
31,93,132,28,25,40,146,44
30,83,125,27,25,42,142,41
31,103,164,33,28,40,226,61
31,87,158,34,29,44,216,60
31,86,157,34,29,41,234,60
32,85,154,33,27,38,239,62
37,91,179,34,27,37,254,65
42,79,151,27,22,39,201,57
42,75,146,25,21,38,218,58
42,76,142,24,23,41,195,57
42,75,141,24,26,41,183,54
40,86,161,27,24,45,186,56
35,73,145,26,25,43,215,61
35,72,140,26,25,43,201,61
34,75,150,31,23,37,199,60
38,85,176,34,22,38,203,60
37,70,136,34,25,36,186,55
38,70,135,33,27,37,170,48
42,81,161,33,29,36,184,55
45,79,154,29,28,38,196,56
43,70,126,25,29,40,198,58
41,73,144,23,29,42,197,57
40,76,152,25,29,42,197,51
36,67,150,26,25,48,190,42
30,71,168,26,27,48,177,41
30,70,164,28,26,48,169,38
34,63,146,29,26,50,167,38
32,59,144,27,25,51,165,40
33,73,164,28,26,47,164,40
36,73,148,30,25,46,196,41
37,80,165,30,25,48,200,41
32,78,161,29,27,45,209,44
35,79,155,31,29,44,202,42
33,64,119,30,29,43,213,40
32,61,132,31,30,48,201,44
33,50,109,31,31,48,199,43
33,50,109,32,32,48,286,75
33,69,153,35,31,48,288,79
34,73,157,33,32,49,272,80
32,73,143,33,30,46,264,78
31,75,146,32,31,46,289,83
38,81,160,34,29,45,231,63
38,73,156,31,29,42,217,60
37,69,145,33,26,40,215,59
36,70,154,33,28,37,215,58
37,73,170,34,26,32,185,55
32,77,192,31,25,32,156,51
30,68,165,31,26,37,188,48
29,66,162,30,26,38,190,49
29,72,153,30,29,48,189,48
31,69,146,31,28,50,205,49
28,57,105,29,28,49,254,52
28,77,141,30,27,50,228,53
28,84,153,29,27,49,233,53
30,76,152,27,21,42,232,56
29,76,143,25,24,40,223,58
31,79,138,26,24,44,158,48
31,66,124,26,24,41,146,45
35,67,125,29,29,46,158,47
36,74,142,29,30,49,171,45
37,73,141,28,29,51,188,44
42,73,141,28,31,47,187,45
41,67,122,25,31,48,190,45
41,67,115,25,28,44,177,42
39,69,117,28,29,46,182,46
39,68,122,31,26,44,224,50
32,66,134,32,26,43,225,49
34,69,133,34,24,42,229,50
32,58,121,33,28,46,227,52
34,47,101,30,27,47,235,55
33,51,100,27,30,46,189,48
36,59,103,26,31,46,186,51
36,60,109,28,33,48,177,53
35,62,117,28,29,47,174,51
35,65,122,29,30,43,186,49
32,62,116,32,29,41,167,48
30,63,113,31,29,41,151,45
27,58,107,28,26,40,152,41
30,56,101,29,26,40,166,43
29,50,87,27,25,37,141,45
32,78,149,27,27,36,150,48
33,75,141,26,24,37,160,49
34,78,148,29,24,38,159,50
32,88,188,27,24,31,145,49
33,92,190,28,24,35,165,44
31,67,149,26,26,38,168,50
31,64,149,25,25,39,159,48
29,72,173,27,27,38,175,50
28,61,133,26,27,43,175,49
30,56,131,26,27,42,139,47
28,61,142,26,25,42,150,39
26,61,154,26,29,52,150,42
27,48,127,25,27,50,135,41
27,55,136,26,31,49,162,44
29,58,144,27,31,48,199,49
30,53,129,26,29,48,184,52
31,50,106,27,29,40,197,54
35,60,129,26,30,40,202,55
34,70,136,25,27,39,186,53
32,68,128,25,26,39,134,48
35,76,144,25,28,49,159,51
35,79,145,24,26,46,146,51
32,75,133,22,24,45,140,48
33,70,147,25,27,46,135,48
32,69,149,25,27,46,144,48
27,61,134,25,26,51,121,39
29,58,134,25,26,50,131,36
27,66,146,28,27,50,133,35
29,55,110,25,24,49,141,43
30,60,120,25,25,48,158,50
31,73,139,28,24,33,160,52
31,78,141,27,25,32,150,50
33,66,111,28,25,36,165,55
30,70,116,27,26,38,161,50
34,69,115,28,28,45,155,47
34,61,122,27,28,47,150,50
31,61,126,28,28,47,162,52
30,64,134,26,28,44,154,49
32,60,130,28,27,44,152,48
33,66,143,28,26,42,188,60
36,67,131,28,28,37,206,60
38,63,130,27,27,39,201,58
38,63,131,29,27,41,193,55
38,66,145,29,28,42,204,61
36,65,150,29,28,43,169,50
35,66,144,27,31,45,136,46
33,66,145,29,30,45,158,52
33,71,154,26,33,43,158,53
37,79,151,27,33,42,142,48
37,77,149,26,31,36,126,41
33,73,145,26,27,33,132,38
32,74,157,25,27,33,103,33
32,67,143,26,22,35,103,31
28,67,175,25,21,33,117,31
26,62,158,27,25,34,118,32
29,60,155,25,25,38,114,33
30,55,139,25,27,37,135,32
29,60,142,24,28,36,164,34
28,50,101,26,29,37,155,34
29,48,96,25,28,38,153,34
28,46,98,26,34,45,224,42
27,57,115,30,32,45,227,45
28,54,124,29,31,45,206,44
29,56,130,29,31,47,205,45
27,68,149,29,33,51,217,47
29,68,150,29,31,43,181,54
30,65,142,26,30,41,170,55
29,70,141,31,31,40,167,54
27,66,129,28,30,37,168,52
26,55,103,28,29,41,172,51
25,56,100,29,24,43,153,39
25,53,97,31,24,45,164,36
29,48,91,27,25,46,170,36
30,50,92,27,26,49,174,39
32,60,136,28,27,43,160,41
32,62,147,28,26,41,177,41
31,61,148,27,29,40,172,41
29,60,141,28,28,40,176,46
31,75,167,29,28,40,173,45
30,78,164,32,28,38,186,43
30,74,159,30,29,47,184,40
33,80,159,31,27,46,174,37
35,92,183,31,27,47,180,36
33,79,159,30,25,47,190,36
33,72,136,28,26,54,201,47
30,76,146,30,26,48,171,53
29,79,179,30,26,49,184,53
26,66,156,30,27,47,177,52
27,73,166,30,27,45,168,53
28,80,189,30,27,33,180,45
33,78,179,30,30,37,201,51
33,72,152,29,30,34,202,54
34,70,150,27,30,34,201,52
33,61,136,28,30,41,208,53
31,54,108,27,30,44,177,50
30,55,124,26,28,44,156,38
27,50,120,25,28,47,138,34
25,58,133,26,28,48,146,37
28,66,134,25,28,49,165,41
31,63,122,25,25,47,155,42
28,72,132,29,26,48,165,43
32,71,124,28,27,47,184,44
31,85,147,31,28,49,174,42
31,85,168,31,27,47,163,36
29,86,178,33,28,49,169,35
29,80,163,31,26,47,164,37
25,84,179,31,25,48,141,36
25,65,151,27,23,46,155,36
23,56,124,26,25,47,144,38
24,54,112,21,24,43,150,43
28,52,113,22,25,41,156,46
31,45,83,21,26,41,204,56
31,41,82,24,26,39,206,62
31,46,100,25,26,37,197,60
33,46,96,25,27,39,187,57
32,57,121,26,28,38,200,55
36,63,138,31,28,40,184,54
36,62,139,30,27,42,175,49
39,59,132,30,25,38,181,49
37,81,198,32,25,43,198,50
35,72,184,32,25,44,191,50
31,78,187,29,25,42,178,42
36,79,188,30,25,45,171,40
34,81,194,28,26,44,168,41
34,62,140,26,29,41,161,41
33,63,156,27,28,44,142,38
31,61,151,25,27,49,135,36
24,86,177,26,29,45,143,37
28,84,167,27,31,46,152,37
29,83,163,27,29,46,168,41
30,83,139,27,26,43,179,43
30,79,157,30,28,40,174,43
32,51,124,29,26,46,184,47
30,51,126,29,25,49,194,50
30,52,122,30,25,50,175,51
30,52,127,30,26,50,159,49
33,51,95,28,26,49,166,48
31,54,129,27,26,48,174,50
34,53,129,27,26,44,157,50
32,55,134,26,27,43,149,44
34,52,131,23,27,41,146,43
31,47,124,24,26,42,191,50
37,48,101,25,27,42,210,58
35,61,135,28,27,43,215,59
36,63,129,27,26,41,220,61
37,70,140,29,27,41,237,62
37,73,143,28,26,42,208,61
32,71,168,29,28,45,170,50
31,60,142,24,29,46,169,47
38,59,151,24,29,46,179,48
35,47,138,24,29,48,183,46
36,58,177,28,30,43,176,42
36,61,157,29,30,41,180,40
35,60,156,32,27,41,177,40
27,71,174,33,28,42,170,36
32,78,181,34,28,41,162,43
32,70,146,32,27,42,144,44
33,67,131,30,25,48,133,43
33,70,138,27,28,53,195,54
36,65,101,27,28,55,192,59
33,69,141,27,30,56,207,57
32,77,149,26,30,56,222,60
32,80,155,27,30,48,266,70
32,77,149,26,27,46,217,61
29,72,165,28,26,42,217,59
30,61,133,26,22,41,227,62
33,61,158,30,25,44,280,74
33,73,190,31,29,53,244,69
35,77,190,32,30,50,254,71
34,83,189,30,30,50,254,68
34,83,184,29,30,50,236,62
33,75,153,25,28,47,188,51
31,73,138,27,24,36,188,46
30,76,148,29,24,34,177,43
31,68,130,29,25,38,258,65
31,83,168,29,27,39,357,87
28,85,176,29,29,47,348,84
30,76,183,27,29,45,353,85
31,74,175,27,29,47,356,88
30,76,177,28,29,43,319,75
31,61,141,30,29,41,221,55
33,68,166,31,28,39,222,56
33,75,159,30,27,40,219,54
31,77,163,29,29,41,245,60
35,74,162,30,30,47,256,69
35,81,182,29,30,52,227,64
36,79,179,30,32,46,213,60
35,69,157,31,34,51,219,61
35,66,161,31,32,51,233,59
34,65,159,31,30,50,229,53
34,55,139,30,29,44,227,53
31,58,134,29,26,45,227,52
33,59,133,26,23,40,220,53
34,58,128,26,24,37,177,46
31,63,127,24,24,40,136,36
31,65,128,23,23,41,204,49
31,54,93,23,29,40,211,52
29,72,131,23,30,41,207,50
26,79,130,23,30,41,216,51
26,75,145,25,30,40,226,55
25,78,153,24,30,38,173,44
26,77,150,24,26,39,175,46
25,57,112,25,25,36,174,48
28,47,107,24,23,37,158,49
26,52,98,24,25,38,141,46
29,54,87,27,26,39,144,45
27,53,85,26,26,39,157,42
28,65,106,26,26,41,174,48
27,60,101,25,26,41,175,46
30,88,172,31,32,40,187,52
31,94,189,29,32,41,185,53
33,100,200,29,31,43,179,63
34,113,228,33,31,42,170,63
37,118,240,36,32,46,215,65
38,99,197,31,26,46,205,60
35,98,191,33,26,46,214,63
37,98,187,35,27,44,212,54
41,80,153,31,28,50,222,53
39,87,153,32,31,47,186,52
37,91,163,31,32,45,182,51
37,84,149,29,32,46,191,52
34,80,142,27,31,46,176,49
30,98,172,31,31,43,153,44
32,87,159,28,28,45,149,40
34,81,145,27,27,42,157,42
36,78,140,28,26,40,122,35
34,77,138,26,23,46,121,37
33,64,140,29,23,45,124,37
29,71,141,29,22,44,124,36
29,72,147,30,25,44,125,37
26,73,153,31,25,46,120,35
26,73,153,31,26,46,128,35
25,65,109,26,24,43,125,35
27,76,156,30,26,43,149,43
27,74,151,29,24,43,177,44
34,92,171,28,26,43,193,48
33,97,180,28,27,39,187,48
34,93,182,28,28,39,184,45
34,81,137,24,27,37,165,35
34,88,167,24,26,39,161,36
28,67,143,23,24,38,146,38
30,78,166,25,24,39,145,40
32,75,157,24,25,39,152,41
34,75,162,27,26,42,180,51
35,64,128,26,27,42,165,51
38,64,127,26,28,45,166,51
36,46,85,30,28,42,180,51
35,61,130,34,28,43,201,55
34,66,135,31,29,40,171,47
35,69,135,31,29,37,167,46
35,80,145,32,31,37,168,42
35,77,139,29,30,36,159,41
36,65,109,24,28,38,135,37
34,76,138,27,26,42,151,43
32,83,150,27,25,45,146,42
28,71,150,26,22,42,147,40
30,78,157,24,24,44,157,40
29,87,168,24,24,44,154,40
30,77,154,28,25,50,134,33
30,70,145,28,25,53,146,33
31,70,135,29,27,53,164,38
28,83,153,32,28,53,165,42
29,88,147,32,29,49,167,42
30,88,134,26,28,45,166,41
30,93,148,31,28,39,153,39
30,91,144,30,26,38,142,36
32,76,133,26,24,38,133,33
36,73,135,32,24,39,147,39
33,69,135,33,25,41,151,42
35,68,123,28,27,42,145,43
38,72,141,29,28,41,134,43
42,75,164,35,29,38,134,42
38,63,154,32,27,38,143,39
39,67,173,33,27,36,164,39
40,59,166,32,26,40,167,40
36,75,190,35,26,41,164,40
32,69,158,29,26,43,169,47
35,70,157,29,27,49,176,48
34,67,141,27,28,45,157,49
33,74,156,29,26,45,177,55
32,59,139,25,29,48,193,56
29,64,142,27,28,47,198,52
26,64,140,27,29,48,204,51
30,76,162,28,28,49,231,53
29,71,151,26,29,45,232,52
35,67,123,27,26,42,220,52
39,75,149,28,27,44,225,53
43,76,148,27,26,41,276,76
44,71,163,25,27,46,268,88
49,75,175,28,26,47,283,91
47,84,199,31,30,55,300,96
47,99,226,34,31,58,326,99
45,105,239,37,32,56,270,82
43,100,218,38,30,52,292,80
42,95,206,37,31,54,268,77
43,88,184,35,29,49,262,72
40,63,148,31,28,47,215,64
49,51,124,28,27,58,252,72
54,63,122,31,29,61,264,77
70,69,157,31,29,57,262,82
75,74,172,32,30,60,274,88
81,72,154,31,30,58,276,89
85,74,153,31,30,47,246,86
92,63,139,29,29,46,194,85
83,62,124,29,30,51,248,85
86,64,136,29,28,48,237,86
81,61,132,28,27,51,249,89
77,64,132,31,29,52,269,96
73,71,167,30,29,54,273,82
72,71,162,29,27,49,233,74
65,67,138,29,29,51,227,70
73,71,140,28,30,50,237,66
71,66,140,24,28,52,220,51
65,66,125,25,28,50,216,56
64,91,175,28,30,51,211,55
64,91,181,25,30,46,215,59
66,89,182,27,29,47,199,67
63,94,189,27,31,43,186,69
65,96,194,28,35,38,189,69
61,79,161,29,35,47,194,69
62,82,181,30,33,48,220,71
50,82,180,30,36,45,206,62
56,82,195,32,36,49,232,76
54,73,177,31,34,50,250,77
60,64,162,31,34,42,268,80
58,92,219,36,39,43,251,78
62,97,227,38,36,41,268,80
54,114,253,37,34,36,251,68
53,127,291,40,33,37,234,67
46,127,290,36,32,39,254,70
48,120,258,36,32,41,259,74
42,123,270,32,32,42,245,71
42,107,236,33,32,42,253,69
43,92,183,32,31,44,255,67
50,94,193,34,30,44,239,76
45,76,158,32,26,41,244,73
46,78,142,34,28,45,256,87
49,78,143,34,31,48,259,92
46,78,165,34,31,45,262,94
48,77,156,35,32,42,244,85
47,78,158,34,33,41,215,77
46,65,155,32,32,41,272,72
46,68,169,32,32,41,274,76
60,68,152,28,30,39,267,75
61,67,146,26,31,55,286,74
65,64,155,26,33,60,295,82
67,74,192,28,33,72,271,78
72,68,177,29,31,72,256,71
66,69,180,30,31,74,261,70
60,67,180,30,29,64,233,71
57,68,186,33,30,70,311,81
58,69,164,36,33,60,330,83
52,72,164,36,35,63,367,94
48,80,191,35,38,64,357,92
49,80,194,35,39,64,354,88
52,76,172,33,38,61,370,100
56,65,143,29,36,57,417,128
56,72,150,31,36,51,411,125
59,74,138,36,33,50,413,137
61,80,153,41,33,51,414,139
60,111,197,57,41,44,354,126
57,112,199,59,42,51,243,99
60,109,195,61,42,51,196,94
57,101,183,64,46,58,243,89
64,101,182,81,47,60,263,98
62,87,152,89,43,56,242,93
59,86,147,91,45,48,250,87
55,94,203,94,46,50,253,83
61,98,198,91,43,43,212,72
59,99,196,74,40,39,204,57
116,147,230,53,36,44,230,69
129,162,231,46,31,49,210,68
134,158,179,36,31,47,242,72
147,161,177,35,32,44,237,73
153,169,179,34,33,45,215,71
166,149,108,29,32,49,220,64
217,157,101,31,33,46,240,67
247,174,115,30,33,44,260,81
277,190,113,31,32,48,338,101
306,195,153,43,35,52,343,104
288,174,161,45,34,45,325,101
256,161,162,43,34,48,322,105
231,147,151,43,31,52,281,94
186,125,173,43,29,48,173,70
137,114,143,38,27,68,313,93
137,113,147,36,31,74,316,92
127,102,160,36,36,75,319,90
117,96,163,36,42,73,315,93
116,86,134,34,43,77,354,105
105,86,208,29,41,58,252,83
100,86,211,31,37,51,275,86
85,94,221,36,32,45,260,85
105,105,246,35,26,43,270,82
103,104,249,36,25,36,233,73
103,91,180,32,25,40,254,77
108,92,198,35,25,38,224,75
112,84,193,33,24,40,220,74
98,78,185,38,23,43,235,75
109,90,182,37,24,46,230,74
118,111,180,40,22,39,182,68
106,120,185,38,23,38,172,66
126,128,176,35,25,41,177,64
120,124,154,30,25,37,200,70
110,122,166,29,24,32,219,66
109,105,163,26,23,33,223,65
116,108,138,24,25,38,231,67
92,95,131,29,24,36,244,69
104,108,127,28,26,39,188,57
104,105,122,28,25,42,149,52
98,109,157,33,28,43,211,73
99,122,142,34,26,41,217,82
95,124,138,30,26,39,193,81
89,118,141,32,25,38,203,84
91,117,142,32,26,36,227,90
83,113,121,32,26,36,228,93
83,96,116,29,25,36,239,94
82,99,126,32,25,36,246,95
76,100,121,33,28,38,254,96
87,115,176,37,30,42,262,100
88,112,175,36,30,43,225,88
90,99,174,37,29,42,205,77
92,105,183,36,30,43,221,76
98,95,197,35,27,39,216,77
106,98,166,32,26,35,185,70
118,99,154,30,25,31,171,66
106,101,168,31,26,30,259,76
113,99,197,36,26,29,248,74
113,102,185,35,25,33,243,70
94,84,161,35,26,40,277,72
84,95,187,36,24,42,289,85
83,97,175,35,26,42,231,103
74,100,136,32,27,45,244,107
82,105,161,32,27,51,299,117
80,106,166,41,31,53,307,122
85,109,170,41,33,54,301,114
96,114,190,42,32,57,290,89
105,105,186,41,34,60,285,89
94,97,160,41,36,61,281,91
97,99,182,34,33,57,258,85
88,85,165,34,31,60,259,85
84,85,145,33,31,64,274,85
75,94,164,32,28,61,268,81
89,94,173,33,26,53,232,64
84,89,158,28,24,53,218,57
83,92,174,28,24,47,219,60
89,83,175,28,25,44,216,61
99,73,161,28,25,45,220,68
91,79,204,31,26,44,191,66
99,93,204,35,30,43,176,63
100,101,190,33,31,45,206,67
90,102,195,39,32,42,255,77
79,111,191,39,30,40,264,76
77,105,138,41,31,40,264,73
68,100,143,39,30,42,268,74
77,96,135,38,31,48,266,87
82,97,126,34,28,49,252,81
83,91,121,33,28,48,257,78
84,102,130,31,30,53,275,86
85,98,113,31,27,50,275,86
74,88,108,33,25,46,291,68
67,82,135,33,28,43,264,73
67,95,133,33,27,45,241,70
63,85,126,31,26,44,249,72
57,83,133,36,26,48,250,71
75,90,132,36,28,43,216,72
78,107,146,37,27,41,194,62
74,100,162,39,28,40,203,71
84,107,160,37,27,38,190,69
88,106,154,32,27,33,186,70
76,104,172,33,27,40,167,71
76,97,135,29,27,41,199,70
86,89,116,29,27,39,189,60
80,76,129,30,28,40,193,51
83,102,131,30,29,47,209,51
86,100,103,27,28,44,215,47
81,102,121,33,29,44,189,46
71,127,139,33,31,43,208,44
80,131,136,34,28,38,201,48
75,113,132,36,27,37,203,54
74,110,132,36,26,35,195,57
81,126,160,35,27,35,190,57
79,115,161,37,27,46,232,60
74,115,150,35,30,51,238,65
79,118,174,35,31,49,290,63
77,131,177,39,30,49,294,58
73,116,142,35,30,54,303,61
76,107,123,31,30,48,285,64
64,101,153,32,27,43,298,61
70,99,137,35,27,44,240,63
77,83,139,31,26,44,288,69
73,85,147,30,26,41,342,72
75,98,158,30,27,50,355,73
80,99,131,30,30,53,348,72
80,98,139,22,29,51,345,70
75,104,202,31,30,50,315,68
84,99,203,32,29,53,281,77
79,81,199,34,32,44,252,76
79,90,254,43,33,43,254,79
72,93,248,45,34,42,258,77
78,82,201,40,33,46,277,75
69,76,193,42,35,43,252,62
82,88,211,41,32,44,238,59
91,89,155,32,30,46,230,52
93,86,147,30,31,45,232,64
91,94,173,35,32,43,209,68
93,99,188,33,28,40,202,68
90,93,161,35,28,37,201,65
85,86,147,35,25,31,192,64
89,102,196,40,24,38,222,64
88,95,172,35,24,40,238,69
87,96,157,36,24,41,229,70
89,89,183,34,26,40,228,73
89,110,207,34,25,41,252,75
83,96,165,31,25,42,234,76
82,95,166,28,25,38,196,67
86,113,200,28,29,36,270,82
84,111,180,28,30,42,282,89
82,90,153,25,32,41,247,88
84,97,152,25,32,37,239,79
86,119,150,28,33,37,289,84
88,105,114,28,30,36,239,66
80,106,106,27,29,31,224,56
79,103,134,30,27,38,254,59
75,99,140,34,29,37,254,61
77,72,145,31,28,36,200,56
73,69,135,31,29,48,249,62
76,73,141,31,26,50,288,64
73,71,110,30,30,53,270,61
67,71,120,31,27,52,266,59
69,84,124,35,28,57,276,57
83,86,133,34,28,52,252,58
82,92,150,35,28,54,216,63
80,93,153,35,24,47,229,66
89,103,148,32,23,49,228,67
89,99,151,30,21,48,243,71
75,91,147,32,22,45,214,71
76,89,129,32,22,40,199,62
79,94,163,33,25,40,200,59
77,80,158,31,24,45,229,65
74,77,140,30,23,39,198,64
80,95,196,30,21,38,192,58
91,106,200,31,24,46,335,84
92,110,173,27,22,45,345,90
86,109,168,27,24,38,323,86
94,118,202,28,30,45,343,87
100,115,139,26,31,53,354,92
96,105,138,26,33,51,234,71
95,107,144,25,33,52,239,73
102,110,146,27,32,60,244,74
98,112,100,25,28,56,211,71
85,102,129,27,26,50,221,70
82,98,137,26,22,49,216,70
92,96,131,26,23,51,180,63
89,104,149,31,25,43,211,67
86,98,171,34,26,43,229,65
85,97,151,34,28,44,218,69
85,94,142,33,28,46,230,70
75,88,145,33,26,44,219,64
72,79,135,29,26,45,235,73
71,76,139,25,25,45,261,76
82,76,144,25,23,43,265,74
79,78,160,26,23,37,251,74
82,86,157,27,26,40,281,77
84,84,149,26,25,39,242,66
83,76,125,27,25,36,199,62
87,90,150,30,27,41,176,58
84,92,139,30,26,45,192,57
82,83,138,29,25,44,147,54
85,85,162,30,25,46,145,48
83,84,156,28,25,48,146,51
94,110,139,24,24,42,148,48
101,119,170,24,25,39,124,44
100,118,178,26,24,41,135,43
96,123,162,25,24,39,262,60
99,129,161,27,25,41,275,62
82,103,165,28,23,43,274,61
72,93,134,28,23,41,275,62
81,102,138,28,24,42,272,62
81,96,133,29,26,44,218,58
75,89,154,28,27,45,205,57
71,82,140,27,28,43,201,57
91,84,128,29,29,46,270,66
84,75,124,32,29,42,345,91
88,72,120,33,28,40,314,88
94,75,144,35,27,35,312,85
97,85,149,35,28,48,396,95
83,81,146,31,27,48,400,97
86,81,138,27,26,48,343,79
86,101,160,30,26,48,345,75
87,104,126,28,27,67,458,108
87,95,118,30,27,65,398,104
85,92,117,30,26,65,356,98
83,94,145,32,25,66,352,97
83,83,125,30,25,67,353,100
82,79,113,29,24,51,217,64
77,84,119,27,22,44,200,58
82,92,140,29,24,42,192,53
86,93,115,27,26,48,186,53
92,106,131,26,27,51,243,63
86,108,132,27,27,50,217,63
90,111,151,28,28,51,224,63
93,109,133,30,28,52,249,69
86,108,131,29,27,48,263,67
82,103,150,33,25,43,204,55
94,110,166,32,23,44,196,54
89,103,145,33,22,42,192,52
81,95,144,31,21,38,166,45
87,101,159,31,21,37,199,51
83,94,126,27,22,40,196,50
73,84,111,29,23,39,216,54
76,88,107,26,24,49,219,60
84,99,121,27,23,50,237,67
91,107,131,28,24,53,193,65
88,101,140,29,23,48,199,62
94,109,135,26,23,46,213,60
102,116,138,29,22,37,219,56
94,119,136,30,22,40,207,49
88,117,127,31,22,36,212,48
89,122,121,31,22,41,228,49
85,119,158,33,22,40,219,46
69,109,160,31,22,41,211,50
77,115,160,31,23,40,203,51
78,112,156,31,20,38,201,49
81,104,176,33,22,37,183,50
75,108,147,31,24,48,204,57
81,122,153,32,24,46,211,50
72,104,149,32,26,46,214,48
71,113,154,32,29,50,234,54
73,117,154,31,28,49,252,56
84,106,153,30,27,41,219,56
82,92,146,30,27,41,202,55
84,98,155,31,28,42,201,55
87,79,135,28,25,38,191,48
85,76,97,28,27,38,159,50
78,74,93,28,27,37,148,41
75,72,106,28,28,44,152,42
77,64,120,29,25,50,254,56
68,62,123,29,26,56,249,59
67,77,136,28,25,57,241,54
77,86,143,28,25,56,243,55
74,95,188,35,26,53,301,61
76,96,172,32,27,46,252,63
82,98,172,34,26,40,259,67
85,102,162,34,26,46,325,75
77,106,166,36,27,49,386,86
84,101,130,30,28,48,362,93
86,109,177,34,29,52,340,83
90,111,180,33,29,51,333,82
88,95,183,33,30,44,311,76
86,85,175,32,29,44,251,69
89,102,151,31,27,44,242,59
94,96,97,26,26,41,244,66
90,94,117,26,28,42,292,66
88,111,134,26,26,44,289,92
91,125,133,26,26,42,275,91
85,111,138,24,24,44,261,86
73,116,156,30,25,43,282,84
69,114,153,34,27,44,256,82
87,113,133,34,28,42,213,53
84,97,133,35,28,43,210,50
83,106,143,36,29,40,217,55
93,121,160,35,28,39,193,50
104,130,142,32,29,37,187,52
87,123,154,31,28,39,181,48
85,127,155,30,29,40,208,53
85,126,170,32,29,43,224,53
73,109,146,28,29,44,217,56
54,100,146,27,27,40,198,51
74,116,135,28,28,40,218,53
80,113,143,28,25,39,264,74
78,102,142,30,28,37,258,78
79,117,129,29,26,36,256,76
84,125,138,30,26,40,253,76
72,103,139,29,28,47,349,86
83,105,128,30,28,49,322,75
82,116,146,28,26,52,319,76
92,115,146,32,27,54,342,81
89,104,140,31,26,55,379,84
85,103,155,33,24,53,290,77
68,98,157,31,23,48,274,68
70,90,132,31,23,45,279,56
63,67,127,28,20,41,278,53
72,82,130,31,22,39,248,57
77,83,109,29,22,38,238,52
81,88,108,29,21,41,241,57
82,82,75,28,20,40,232,60
85,91,73,27,23,47,206,63
77,90,171,30,23,45,180,57
77,98,176,31,25,43,178,60
87,108,180,32,25,44,185,58
88,119,190,30,26,47,192,58
90,126,210,34,27,41,184,54
95,124,180,30,27,41,184,54
93,129,178,34,27,42,220,61
90,118,175,35,28,43,233,64
87,110,163,36,30,42,226,66
82,98,179,36,28,41,243,70
84,101,157,34,27,40,257,70
86,84,152,28,27,42,228,62
79,89,150,30,27,37,205,62
77,90,150,29,26,38,215,57
77,133,121,29,29,38,223,61
78,140,126,31,31,40,209,59
76,142,128,31,31,37,233,60
75,141,155,31,30,37,226,57
79,146,158,30,30,40,214,58
89,102,139,30,29,41,231,62
77,84,146,31,27,42,287,73
76,87,152,32,26,43,265,72
85,90,132,30,25,45,289,76
82,96,170,32,26,42,305,82
71,104,176,29,27,42,287,75
73,102,150,26,26,40,241,68
73,99,144,24,26,39,248,72
62,100,146,29,29,46,234,78
76,94,94,27,28,46,246,76
70,85,154,31,26,44,220,73
76,84,163,32,26,46,222,70
75,85,164,33,27,47,224,65
78,83,159,29,25,38,201,50
67,79,162,30,24,34,150,39
72,83,127,27,28,37,149,37
69,88,128,25,26,33,172,45
69,92,125,25,27,35,169,46
64,84,125,27,28,40,176,46
69,77,124,27,29,41,184,48
68,72,92,27,27,44,222,72
69,67,125,30,31,47,200,78
73,66,130,30,31,42,200,78
81,88,137,28,31,37,193,78
76,89,142,29,34,37,206,81
71,93,205,34,33,33,183,62
74,98,185,31,29,33,163,50
69,99,185,31,29,34,160,50
59,89,181,32,31,48,174,60
59,99,179,31,28,49,175,77
61,99,155,28,29,50,168,107
52,93,147,30,31,49,167,109
55,90,150,31,31,58,172,111
66,98,159,32,29,46,240,116
80,104,181,33,30,45,232,158
99,115,153,35,29,42,222,139
105,123,154,34,28,43,222,138
115,141,150,34,28,36,245,143
107,130,138,31,28,39,169,139
98,117,138,32,27,40,158,72
82,115,127,32,29,41,255,82
89,128,128,31,29,40,289,92
76,110,123,29,28,34,281,85
78,115,123,30,27,33,279,82
81,116,92,31,29,34,291,81
77,107,89,26,27,33,224,75
80,80,123,31,27,35,200,71
84,84,134,31,28,46,176,66
85,79,135,31,30,48,200,66
90,76,128,29,28,48,237,65
90,77,126,30,28,49,227,61
76,82,109,26,30,49,206,43
69,88,148,30,29,41,215,43
72,93,156,29,30,40,253,102
59,93,160,32,31,39,218,105
56,89,163,30,31,41,220,108
64,97,193,34,32,43,227,110
75,116,162,32,31,40,230,117
69,110,154,32,28,39,174,117
72,113,159,32,26,38,164,118
73,126,175,34,27,34,175,116
67,121,138,29,23,36,187,117
70,107,144,27,28,42,188,111
78,114,146,27,29,43,188,66
78,114,166,25,29,48,203,61
91,108,161,23,29,52,227,65
90,108,152,24,30,49,213,62
79,98,141,24,26,44,200,61
71,89,137,24,25,47,199,63
78,86,124,28,29,42,186,65
67,77,153,34,32,36,147,58
66,66,153,34,32,34,147,55
69,67,152,33,34,38,184,66
72,81,155,34,34,35,199,64
63,85,145,35,32,37,206,64
58,84,89,29,27,38,200,63
62,91,84,30,28,43,338,91
61,88,122,35,26,41,353,102
68,81,127,34,27,44,346,99
72,88,121,30,27,42,344,99
75,89,120,30,29,48,382,117
77,87,130,33,30,46,272,101
75,88,129,27,28,46,231,83
74,104,125,26,29,47,217,83
71,101,135,31,29,51,263,85
73,101,135,31,29,50,258,67
67,108,133,32,27,51,273,70
72,103,132,34,28,50,268,69
74,101,127,34,28,51,281,66
74,97,115,31,27,47,248,61
73,97,119,28,25,44,199,51
74,87,114,27,24,42,174,43
74,103,121,26,25,42,190,44
67,84,125,28,21,36,281,69
74,88,135,28,23,35,267,73
75,89,131,28,23,36,266,72
72,89,131,27,23,33,270,71
69,71,85,28,21,33,264,71
69,82,98,28,21,37,184,56
81,92,121,29,23,40,192,53
83,95,124,30,23,38,215,55
84,96,127,28,24,37,205,53
84,100,141,30,25,41,214,51
87,99,169,33,27,36,206,45
72,89,145,34,26,36,218,40
63,85,143,34,28,41,214,45
61,82,154,37,27,42,213,47
63,89,145,35,27,40,199,45
64,87,105,31,24,38,179,50
60,95,149,30,25,37,169,50
65,100,150,31,23,34,143,54
77,108,138,27,24,32,151,56
82,101,150,31,24,32,166,62
77,93,146,32,26,34,163,63
76,79,103,29,27,32,144,60
83,83,178,31,30,34,160,63
84,83,181,31,30,35,167,65
79,79,171,26,30,33,165,62
78,85,183,31,29,33,216,62
81,97,194,35,30,37,258,71
79,94,135,31,28,33,253,64
78,92,137,33,28,35,263,69
86,122,135,33,29,41,273,69
87,127,121,28,27,42,252,67
84,116,102,26,25,41,221,61
92,118,109,27,26,46,207,57
102,130,137,27,25,46,190,47
109,115,138,29,25,44,202,47
111,108,141,33,30,49,238,66
115,119,154,35,30,50,246,71
106,114,142,34,31,51,249,71
88,98,104,34,31,53,271,73
72,89,97,32,31,52,264,75
76,88,89,29,26,52,228,65
84,81,79,28,31,55,210,58
81,85,72,28,29,49,210,59
80,90,103,29,30,47,234,61
81,94,174,30,31,53,251,67
77,97,179,30,32,47,240,64
74,95,169,27,27,47,247,67
77,90,171,25,27,48,252,69
85,86,166,24,26,48,237,71
84,77,93,25,23,44,206,67
87,81,87,26,25,42,206,63
79,98,137,29,25,39,202,59
77,97,137,31,25,39,211,58
68,95,125,31,26,38,178,54
70,100,124,30,26,37,162,50
81,101,125,28,26,39,168,55
83,89,86,29,24,36,218,59
83,90,79,27,27,42,221,61
89,95,115,28,28,41,225,57
91,105,120,28,29,39,225,56
79,99,120,28,27,40,243,56
87,106,108,26,27,46,260,55
94,112,108,28,26,40,244,51
94,108,100,27,26,40,232,50
105,103,110,28,28,43,243,56
107,109,117,30,28,41,219,56
98,105,116,28,29,37,143,54
92,101,120,29,29,34,151,56
96,106,127,27,30,36,160,56
82,103,122,29,28,42,190,48
87,104,129,31,30,42,207,42
86,97,132,33,30,40,200,39
95,113,132,35,30,43,200,39
88,111,135,36,29,48,208,40
88,104,125,35,28,41,184,41
95,101,144,33,28,46,163,49
95,109,141,34,28,49,172,52
88,93,176,30,28,57,224,62
95,91,151,29,28,53,217,65
98,93,153,28,27,53,201,66
88,105,139,29,28,49,234,61
89,96,163,28,28,51,306,62
81,100,174,36,32,44,273,54
78,114,181,38,32,46,290,55
75,116,181,38,33,51,300,57
66,101,172,36,31,53,320,59
68,101,177,39,30,49,248,56
75,109,131,30,25,46,242,52
71,91,122,28,23,47,228,47
71,100,126,30,25,45,243,50
71,113,129,29,26,39,179,45
71,119,109,28,28,38,180,42
88,118,126,35,31,44,209,58
94,121,129,41,33,41,243,77
100,113,122,39,30,37,231,79
110,110,126,40,29,40,230,80
109,117,149,40,29,45,258,87
114,124,139,36,28,48,269,85
114,125,160,30,27,48,250,77
118,136,166,31,27,49,237,73
120,144,183,31,29,50,284,77
123,140,156,27,29,47,265,70
108,127,152,28,28,45,238,61
101,124,129,27,32,44,235,50
96,116,121,26,31,42,237,52
91,108,103,27,29,45,240,53
89,110,125,28,29,48,233,54
86,110,126,27,28,41,232,58
91,125,127,28,23,42,223,63
85,119,134,32,24,42,248,69
77,114,118,32,27,39,232,69
81,114,116,33,26,37,245,74
77,113,128,33,26,38,254,70
76,100,124,33,26,37,243,69
79,127,125,30,26,39,232,84
86,127,126,30,29,38,198,85
81,120,134,28,30,38,188,81
87,127,121,28,31,43,164,83
88,145,130,29,35,44,183,82
88,128,149,31,32,46,180,67
85,127,148,31,29,47,186,62
86,141,124,32,28,47,200,64
79,131,135,35,32,51,207,62
71,108,127,34,28,52,201,61
63,101,94,32,32,53,196,56
61,113,141,34,33,54,187,50
67,96,137,31,33,53,166,46
77,99,122,28,29,51,157,48
79,104,122,27,29,51,155,52
85,118,131,28,25,48,141,52
86,107,93,27,27,44,157,58
77,97,127,31,26,47,188,65
85,105,131,30,27,41,210,63
89,106,131,30,25,38,220,60
87,92,136,30,25,40,235,61
82,88,122,28,22,39,234,61
104,113,87,26,23,38,216,54
90,116,113,28,24,38,215,59
86,110,126,29,27,39,223,57
82,104,114,28,28,46,210,56
82,108,117,29,29,49,200,51
52,121,138,33,29,48,218,57
62,109,135,33,31,52,205,49
61,132,150,30,29,58,197,48
64,137,151,33,30,52,196,45
62,137,157,32,32,50,198,46
73,112,138,29,30,53,253,58
67,122,143,26,27,52,273,62
71,94,121,29,26,44,264,63
74,88,116,27,23,41,261,65
85,90,112,29,23,44,281,71
79,90,111,27,22,43,300,74
78,76,74,26,21,42,279,74
85,91,61,24,21,43,280,72
93,110,123,29,26,47,327,80
90,115,120,27,24,45,319,81
86,108,119,28,24,41,238,67
86,112,120,30,27,38,233,63
84,105,130,32,28,41,259,69
68,94,88,32,28,35,230,66
71,84,124,35,30,33,215,63
73,86,126,35,31,35,208,62
74,88,133,37,30,40,247,71
77,85,127,38,30,37,267,92
77,77,119,33,27,38,239,89
69,74,78,30,26,39,232,87
78,99,92,30,26,43,250,90
84,107,77,26,28,44,260,102
78,106,72,26,30,45,226,87
79,109,83,27,32,44,221,84
95,124,84,26,31,43,256,91
88,110,68,25,32,40,256,91
90,108,79,29,30,37,210,73
103,117,101,26,26,35,188,62
111,127,117,25,25,41,233,68
101,116,131,28,28,44,209,61
117,114,133,29,27,43,188,57
113,127,134,26,26,41,192,57
99,130,120,27,27,53,222,60
92,122,118,29,25,50,223,67
95,126,105,30,23,47,215,64
80,126,105,31,22,50,224,64
79,112,103,31,24,60,230,63
81,109,155,32,25,51,214,65
90,114,142,29,25,49,168,55
100,127,146,27,24,51,161,54
109,133,152,28,25,51,153,55
111,137,149,27,25,40,221,62
110,134,88,26,25,41,213,61
100,127,111,29,25,42,213,59
99,114,101,29,29,47,230,63
93,105,88,26,28,43,239,67
89,93,119,30,28,43,182,60
88,88,166,30,31,49,209,58
90,88,155,28,31,52,225,63
82,92,175,31,28,49,220,66
69,85,183,31,28,49,208,60
75,85,166,30,27,49,210,66
83,91,154,31,25,44,193,77
89,92,148,31,26,40,178,74
95,94,125,29,27,38,200,71
101,107,115,33,28,42,221,72
104,111,127,32,31,45,201,78
106,116,117,33,29,45,191,70
117,128,117,34,29,52,204,72
114,117,120,34,30,56,171,75
124,129,155,34,30,54,178,78
118,133,144,34,27,53,177,65
113,127,122,33,28,58,182,60
110,121,141,32,27,57,179,59
102,127,140,31,26,54,173,50
88,109,103,29,24,55,140,41
93,107,126,36,27,57,159,47
90,101,140,40,29,51,151,59
77,93,125,39,31,46,126,56
83,100,132,42,31,44,125,57
83,105,150,42,32,42,141,59
86,104,147,38,30,43,174,63
86,108,204,35,28,45,186,57
83,119,268,39,26,42,190,59
85,116,289,37,23,42,198,59
89,129,325,39,23,44,225,63
94,126,337,37,26,45,199,62
109,121,299,34,25,44,188,68
111,117,245,31,28,47,205,66
107,108,234,35,34,49,203,68
98,84,199,33,35,51,171,65
94,81,186,35,32,44,165,57
78,94,199,34,32,49,184,46
82,85,212,36,31,47,173,51
80,79,191,32,27,50,171,48
95,80,154,30,25,46,159,49
96,158,269,40,28,45,232,58
108,164,267,40,28,45,238,64
107,169,258,38,27,42,232,59
113,173,266,37,27,35,231,59
103,182,278,39,28,36,257,58
97,130,149,30,28,44,202,56
90,112,138,30,26,43,194,51
89,114,173,32,25,44,214,51
77,115,164,34,24,49,245,52
85,117,147,31,23,53,228,58
90,116,152,29,22,48,226,56
97,138,169,32,28,48,286,56
93,130,124,32,30,55,297,65
95,125,121,32,30,53,290,65
91,118,120,32,29,49,286,62
86,113,148,36,29,49,280,57
66,89,132,33,27,45,245,60
67,89,170,37,27,47,228,58
83,102,185,36,26,49,206,59
92,110,204,37,29,55,229,59
93,102,187,33,29,58,238,57
97,110,206,32,26,58,228,55
98,116,215,30,25,54,236,48
86,108,205,30,27,63,247,55
103,124,247,37,26,60,227,51
105,145,242,35,26,59,241,57
102,141,224,37,28,57,221,56
107,137,226,34,30,62,227,55
111,140,224,36,29,49,213,47
93,123,182,28,28,48,222,51
86,104,206,32,28,48,198,48
87,104,216,33,27,57,205,46
87,110,191,33,28,63,213,48
85,114,213,35,28,65,237,47
72,96,187,33,30,64,236,45
68,96,180,31,31,63,238,41
73,104,182,30,30,64,263,44
65,97,167,31,29,52,240,39
63,99,157,27,29,49,211,38
76,112,180,30,28,50,205,37
80,109,161,28,27,56,207,42
76,99,145,27,27,47,182,39
77,102,165,29,29,46,203,43
72,118,218,30,27,50,214,46
64,116,209,31,27,53,217,48
62,115,219,33,30,53,217,46
74,136,248,39,32,53,196,46
75,130,234,36,30,60,178,44
94,108,174,38,32,59,242,55
120,135,193,38,32,59,252,61
129,148,199,41,30,55,243,61
125,135,191,36,27,59,240,61
129,141,193,36,28,70,285,72
117,136,187,32,23,73,229,64
95,101,175,29,24,73,215,57
80,88,188,32,25,77,216,58
78,83,171,36,26,87,271,70
72,76,188,37,26,72,212,61
72,82,194,39,29,69,223,66
85,103,179,39,27,67,221,71
90,113,159,35,26,62,225,70
90,113,171,31,28,51,168,58
119,123,149,29,28,51,174,55
126,131,144,28,25,47,151,45
116,121,147,29,27,45,142,35
113,109,132,27,28,56,195,41
117,107,94,27,26,52,222,53
90,97,110,28,24,49,216,53
79,86,104,27,28,50,215,55
74,76,97,28,27,52,221,56
78,74,89,27,26,44,264,59
70,82,125,29,28,48,249,56
71,84,112,27,29,57,254,57
80,86,120,31,27,57,266,58
85,87,128,29,29,57,265,60
108,116,142,29,29,57,194,53
112,110,123,31,28,52,218,54
112,111,125,31,27,43,219,56
110,121,148,29,25,41,205,54
108,128,157,31,23,40,206,49
86,103,144,33,23,36,189,48
78,101,149,29,22,53,185,53
85,108,156,32,23,56,177,56
81,94,131,31,26,57,175,56
81,90,120,29,24,57,210,61
86,105,147,26,26,66,222,64
107,117,139,26,27,51,189,55
107,120,134,24,27,47,190,50
102,121,130,24,27,51,208,57
106,116,122,25,27,50,186,56
103,113,114,29,25,34,179,53
85,102,103,28,23,43,199,53
76,99,97,26,23,43,210,56
80,97,117,31,26,42,243,65
78,97,118,31,27,44,239,63
76,88,92,27,27,47,235,61
81,103,134,28,28,44,223,61
82,107,137,27,27,44,214,59
80,104,120,21,22,39,156,42
77,102,123,22,22,39,170,43
94,109,138,21,23,39,215,56
91,110,96,22,24,45,202,57
88,101,91,23,25,45,194,58
86,106,96,24,26,46,214,56
87,106,98,23,25,44,201,55
93,109,123,27,25,52,196,48
90,103,121,27,25,47,256,58
92,96,128,27,25,52,277,59
95,99,126,27,26,51,263,59
90,97,121,26,29,53,280,60
68,101,137,27,29,51,249,58
66,88,144,26,28,47,201,49
82,122,147,29,29,41,190,44
87,119,150,29,30,53,190,47
96,128,152,31,28,50,166,47
94,113,123,29,27,47,170,54
98,121,122,31,28,49,261,53
81,93,125,29,28,58,270,62
74,89,120,30,25,48,292,62
59,89,116,30,26,50,290,61
58,106,149,33,31,47,288,52
71,110,159,35,30,54,207,56
86,138,153,38,31,50,197,49
92,141,166,40,32,51,170,50
92,140,198,39,32,52,165,51
103,127,159,34,27,51,160,51
99,119,153,34,27,46,180,46
93,80,147,30,27,46,200,54
90,78,132,26,26,47,200,54
99,93,138,26,25,44,194,54
94,94,142,27,26,53,209,56
84,94,137,22,29,51,233,54
94,98,139,20,25,48,216,46
101,122,152,21,26,51,208,42
108,115,127,21,25,51,208,43
103,120,126,23,26,44,255,50
110,125,120,23,24,45,225,54
99,145,136,26,25,47,206,52
96,131,125,30,25,50,213,54
85,131,112,30,27,54,215,56
84,129,109,29,26,54,147,49
74,130,141,30,28,55,163,43
75,108,134,31,29,54,164,42
79,100,130,27,29,47,155,42
77,92,121,29,31,48,171,39
82,90,135,30,32,45,250,47
101,109,130,31,31,38,235,48
100,114,122,29,31,36,234,47
97,117,124,28,29,39,235,46
99,126,129,26,25,57,257,53
98,125,121,24,26,60,203,52
87,106,122,23,25,60,189,54
85,97,135,26,25,59,189,53
78,92,133,26,26,59,189,53
76,83,130,27,26,43,209,48
78,81,140,29,26,40,184,47
77,97,142,34,25,41,186,43
78,97,133,31,23,41,186,44
80,101,134,32,24,46,211,51
76,117,132,30,24,41,154,53
75,118,126,33,24,42,144,51
67,101,95,29,24,41,148,50
68,104,107,31,25,41,156,54
78,103,106,33,27,34,201,53
87,79,120,33,28,34,195,52
84,82,113,29,30,40,194,51
87,81,111,31,30,43,230,51
86,77,99,31,32,62,244,52
88,97,100,28,29,66,203,48
96,117,85,29,28,66,204,45
103,118,71,28,27,67,207,52
106,125,68,27,29,67,191,62
109,128,79,23,25,51,166,59
103,114,78,24,27,47,143,57
91,102,91,27,28,48,149,57
94,102,95,28,27,45,194,61
88,95,113,26,25,45,185,54
89,95,100,27,27,46,188,52
89,91,99,29,28,45,185,51
86,90,157,30,28,43,185,51
71,101,159,28,29,43,159,36
75,109,152,31,28,41,160,33
71,104,158,31,26,42,159,39
69,114,168,31,27,45,160,43
71,112,127,30,25,45,208,47
73,96,132,31,25,41,221,48
71,83,130,29,26,39,208,48
70,89,155,31,24,38,210,43
64,75,166,30,22,35,245,42
60,63,148,28,22,40,203,37
63,69,146,30,21,37,175,41
70,78,162,30,22,40,196,45
67,82,178,29,25,40,208,46
67,88,160,27,26,51,193,47
71,91,161,28,25,47,195,51
82,94,160,26,27,48,191,47
73,86,148,27,28,49,167,41
79,75,90,27,28,48,143,40
89,69,99,27,27,37,109,39
87,70,121,25,29,43,127,35
75,79,119,24,28,42,144,37
76,84,134,23,29,40,157,38
74,88,148,21,30,46,172,38
69,92,147,22,30,47,167,41
70,91,137,22,30,45,146,40
65,92,136,21,30,46,134,42
77,100,112,20,29,48,165,43
80,104,92,20,28,42,151,42
75,101,92,21,28,44,175,40
80,101,105,23,30,43,182,44
82,87,103,26,28,39,189,43
86,88,111,32,30,44,223,44
88,85,148,32,29,44,234,47
95,92,150,32,30,42,219,48
97,99,143,33,27,40,213,46
104,101,143,33,28,42,204,43
99,89,188,29,26,45,252,57
97,93,165,29,26,42,247,57
95,92,158,27,24,42,250,53
94,84,148,26,26,48,253,54
87,95,148,22,28,52,282,63
97,107,89,25,28,49,179,58
96,113,114,25,29,50,172,56
91,112,111,25,31,54,165,58
83,121,137,25,32,57,178,58
81,120,145,27,29,53,127,50
72,114,141,24,29,47,114,38
80,116,141,25,29,56,113,38
82,123,161,27,28,57,173,40
83,114,142,27,27,50,176,47
84,126,142,28,27,50,170,46
77,121,137,27,26,56,173,46
68,114,115,27,29,58,195,54
72,103,137,27,34,70,216,54
76,101,143,28,36,76,238,48
101,85,136,27,35,77,246,48
104,90,142,25,36,74,246,51
102,99,149,25,32,68,234,44
102,119,119,26,28,57,194,41
101,122,116,26,30,57,236,60
76,115,114,25,31,55,230,61
65,119,124,31,33,54,232,59
61,118,136,32,34,53,227,59
59,99,127,30,35,58,246,66
64,97,118,31,32,58,181,58
70,104,144,33,34,61,188,63
71,101,174,31,32,59,183,63
84,100,161,33,35,64,210,73
96,109,159,36,32,65,183,76
97,112,159,34,35,61,172,71
94,116,148,33,34,62,169,66
99,115,110,32,35,67,212,70
91,111,129,30,31,65,213,65
80,97,136,27,31,56,222,58
100,138,163,31,29,54,247,63
100,128,152,29,27,54,248,67
99,125,140,28,25,52,228,63
106,122,138,26,28,67,241,74
106,125,130,28,29,67,228,73
101,82,124,30,29,67,198,70
98,85,135,34,30,64,188,64
101,86,136,34,30,68,196,70
96,90,115,34,28,50,211,64
97,96,117,33,26,45,220,65
79,94,111,29,24,46,215,61
80,91,110,28,27,63,264,68
75,90,106,33,26,59,252,65
71,83,107,33,25,58,198,58
68,83,147,33,25,59,175,51
78,75,132,33,26,70,193,55
82,78,122,33,23,57,189,56
91,90,127,27,26,56,194,53
92,99,149,28,28,55,196,50
92,104,128,29,28,56,249,61
83,105,127,30,31,45,259,65
83,106,126,28,31,45,215,59
73,103,140,29,29,41,207,60
70,102,141,30,29,44,215,62
76,92,125,28,29,59,170,57
79,93,126,30,28,56,136,53
76,97,141,31,27,55,132,50
78,90,123,33,27,56,129,51
76,76,95,30,27,61,145,51
64,78,124,30,28,48,165,52
65,81,131,29,26,46,192,53
66,71,130,35,30,54,205,56
78,81,128,34,32,54,229,55
80,88,159,39,31,48,226,54
81,82,137,39,31,56,224,46
90,103,141,41,46,64,240,46
91,103,130,39,49,61,249,47
80,96,136,41,49,63,243,45
92,124,170,42,53,64,267,51
96,132,174,44,52,58,279,55
87,118,165,40,41,55,274,53
87,124,170,38,35,55,274,56
87,123,174,36,34,52,277,62
74,93,106,30,28,52,260,57
78,101,105,27,28,57,241,55
72,95,103,30,28,53,224,54
68,92,111,30,27,49,212,49
68,95,115,31,28,52,255,51
68,101,140,33,30,52,343,68
60,93,150,34,29,46,357,72
63,96,169,33,27,43,353,72
74,101,157,33,28,44,351,75
72,97,145,34,28,43,319,74
75,93,162,33,29,43,207,59
71,80,159,34,28,42,164,55
74,75,139,31,28,39,146,52
63,63,143,32,30,49,181,55
78,88,142,29,28,48,176,49
78,89,88,28,27,48,190,48
81,94,81,28,26,48,184,45
76,93,81,32,27,48,188,48
75,98,99,32,26,38,206,42
75,83,112,37,28,42,251,76
75,87,128,38,28,39,237,80
78,95,166,41,29,37,240,81
79,112,212,41,30,37,261,81
93,123,230,42,32,54,300,91
84,137,233,39,29,52,265,67
97,147,226,36,30,57,266,64
99,148,243,36,31,58,266,62
101,144,204,33,33,62,335,77
90,145,174,32,29,50,284,66
95,133,163,31,32,48,272,65
81,125,176,33,30,43,268,63
79,123,142,38,32,46,337,67
91,121,191,42,31,44,296,64
105,127,191,40,31,43,289,64
100,135,202,40,30,42,295,62
99,130,206,41,30,41,340,67
93,125,192,33,27,51,311,66
81,119,145,30,28,49,264,53
74,100,141,34,26,48,253,50
69,91,149,41,28,47,244,49
77,87,149,40,27,51,207,45
83,85,131,40,28,37,154,43
83,85,133,38,26,37,165,41
74,95,143,36,28,35,163,41
81,92,130,30,25,39,167,46
73,98,135,32,26,44,174,51
76,109,165,36,26,48,170,53
97,124,172,41,31,49,153,62
101,125,208,42,30,50,152,61
118,134,213,43,31,49,152,68
122,132,199,48,36,49,147,64
121,124,181,46,37,44,156,64
129,141,218,49,36,51,174,65
135,159,224,49,39,53,176,67
125,155,215,49,40,59,201,65
130,154,215,43,38,51,168,65
131,156,217,43,37,53,165,69
121,146,198,39,36,47,163,63
117,118,143,35,32,49,183,67
109,116,151,37,33,45,186,66
99,117,146,38,40,46,201,69
109,138,224,42,40,46,195,64
100,117,203,42,40,49,197,63
89,115,204,44,44,48,215,63
96,119,206,43,49,46,188,56
102,123,208,42,45,46,174,53
100,102,116,43,44,47,170,49
100,113,114,40,47,45,205,52
111,129,149,42,45,45,194,57
108,121,140,46,41,43,194,59
102,117,144,45,41,41,187,57
95,115,155,43,42,37,190,59
110,113,151,46,36,39,171,71
118,117,118,46,35,38,154,68
116,128,150,40,32,36,154,66
117,126,145,41,34,41,168,67
123,132,133,46,36,43,186,73
105,126,133,43,37,40,163,58
81,115,166,42,35,37,157,52
80,101,132,41,33,44,155,54
81,103,131,40,34,53,192,62
64,91,132,34,32,54,179,60
67,91,138,32,32,53,170,61
67,92,139,33,38,52,166,61
76,90,137,37,41,47,175,64
72,91,142,36,38,35,152,63
75,112,160,36,38,31,147,58
69,111,158,39,39,29,142,54
74,101,127,37,38,36,193,68
67,106,159,39,36,40,199,67
73,106,153,40,36,37,178,64
65,79,126,37,34,38,177,61
66,78,128,33,36,47,240,68
62,80,128,35,33,46,203,54
61,74,112,35,34,42,223,61
53,73,114,39,33,42,227,57
57,75,114,42,35,45,243,61
57,69,108,42,34,47,194,56
58,90,143,42,33,45,206,63
52,94,129,38,32,49,175,56
51,87,129,35,32,51,164,55
49,95,141,33,30,48,193,56
53,104,163,33,30,44,207,58
54,89,135,31,29,40,192,54
54,85,127,29,29,37,183,50
61,92,124,31,29,40,248,65
65,102,145,29,28,55,274,69
71,107,131,35,29,64,267,70
71,105,126,36,29,68,274,69
73,102,128,38,28,71,283,70
69,104,153,37,30,73,241,58
63,95,135,39,34,64,184,53
54,81,124,36,33,57,187,51
58,96,132,38,31,52,183,50
60,101,135,38,34,55,178,52
62,95,108,39,34,51,167,58
64,85,90,39,31,49,154,56
63,85,89,37,29,40,158,55
57,89,115,34,29,39,148,55
58,101,122,35,30,34,148,53
71,115,123,36,29,33,166,52
68,118,140,35,31,39,186,52
67,120,143,35,31,44,176,50
68,104,113,35,33,47,183,51
63,87,99,32,30,44,195,52
44,69,97,33,31,46,181,53
60,95,107,32,31,44,176,62
61,94,103,34,31,40,168,60
63,101,120,36,30,41,165,58
66,106,125,39,30,41,268,81
71,111,150,39,28,37,273,80
61,86,126,38,30,36,261,74
61,86,131,39,30,37,258,73
66,100,144,39,31,33,256,73
75,105,153,38,32,34,188,55
69,100,129,36,32,34,182,50
69,102,138,37,31,31,178,50
67,99,135,37,33,30,187,52
61,77,103,33,31,42,217,70
52,70,86,33,29,40,185,71
50,69,95,32,28,40,193,71
55,69,119,32,28,43,204,74
62,84,126,30,30,47,221,80
60,82,124,29,28,38,198,65
69,95,143,32,30,39,177,56
71,105,153,34,33,40,183,56
67,108,130,35,34,43,181,52
69,100,123,37,31,41,162,41
72,100,123,38,32,41,155,44
60,84,99,32,31,39,161,45
58,71,112,33,31,41,149,46
56,59,109,34,26,38,170,46
50,58,110,33,25,33,163,50
48,63,115,33,26,32,161,48
46,57,115,36,26,35,203,48
45,54,75,35,24,37,243,58
46,61,85,32,24,32,235,60
38,88,132,34,28,34,238,57
37,86,136,35,27,34,238,59
41,92,134,37,30,40,205,60
49,93,134,34,30,38,186,63
49,93,126,39,31,39,175,62
50,65,71,35,27,38,169,61
59,81,78,35,30,42,176,63
72,82,100,34,29,41,233,81
78,101,115,37,31,45,223,81
78,106,114,35,32,46,215,81
82,109,116,37,35,48,220,85
89,121,152,38,34,46,249,90
84,120,140,37,30,44,263,89
76,110,133,37,28,38,250,82
75,103,134,35,27,37,255,83
80,106,136,36,25,39,276,81
68,89,96,36,30,41,275,74
61,85,93,34,32,35,210,54
65,85,91,32,31,36,202,50
64,88,90,40,36,36,210,48
51,85,84,37,36,47,251,59
48,81,84,39,31,45,229,61
48,88,105,40,32,47,230,61
48,84,102,40,31,47,232,62
48,89,114,33,26,51,239,64
49,87,114,35,26,39,177,53
53,81,96,30,26,41,173,46
50,81,94,36,27,40,172,47
50,82,95,35,27,39,189,48
53,72,81,36,28,38,210,56
56,77,96,37,29,40,209,60
52,83,112,39,31,38,200,61
55,76,98,36,30,38,208,60
50,69,95,36,33,44,212,60
50,67,95,37,32,43,173,53
50,60,76,35,32,43,154,45
54,79,96,37,29,43,171,43
55,78,93,33,29,44,177,51
59,83,96,34,27,38,169,54
62,83,97,33,29,35,162,54
64,83,97,32,27,30,171,54
64,83,98,32,29,33,157,56
60,92,101,31,30,39,144,54
61,86,99,34,28,39,134,51
55,88,99,32,27,38,134,47
57,119,153,31,28,40,131,51
57,105,132,28,27,42,177,59
56,96,132,31,28,36,181,54
51,100,133,27,29,38,180,51
54,109,142,32,30,37,177,52
46,79,107,32,29,34,174,48
49,82,122,35,31,35,182,49
56,89,125,35,31,36,208,56
72,93,125,37,32,35,210,60
69,80,114,36,32,36,211,59
72,93,156,40,31,39,239,66
69,93,149,40,33,37,198,61
64,90,149,40,34,34,155,55
43,83,148,38,33,33,145,51
42,84,151,36,31,32,141,50
42,70,86,33,31,34,92,44
50,78,102,28,27,37,156,51
48,75,96,30,26,38,158,54
49,74,97,30,27,38,160,54
66,79,99,33,28,39,182,60
63,76,99,32,30,35,186,59
55,71,70,35,31,32,144,49
58,72,69,32,29,31,154,45
59,72,67,32,29,34,153,44
40,76,93,29,28,32,131,41
54,84,98,30,28,35,132,47
56,79,105,32,30,39,189,59
54,95,139,33,30,39,192,61
52,96,140,33,29,38,191,61
53,87,119,31,30,40,191,59
40,77,113,32,28,49,181,51
39,80,117,31,27,41,151,48
40,57,74,29,27,42,140,47
43,72,109,35,28,42,136,48
42,86,114,36,27,50,172,58
43,91,114,36,29,49,223,68
42,84,100,34,28,50,210,65
40,85,100,33,29,49,214,63
39,77,63,29,32,52,225,65
47,66,62,30,37,51,229,65
51,68,123,31,36,43,212,60
50,71,128,34,37,43,201,55
50,72,130,35,34,43,193,53
50,66,130,34,32,39,208,59
42,62,129,34,28,31,232,57
37,53,74,31,27,33,211,51
37,51,74,30,24,32,210,52
34,79,132,30,29,34,217,54
37,79,134,30,29,38,211,62
41,86,157,32,28,40,154,60
44,86,156,33,28,36,141,59
45,93,160,32,29,37,142,61
50,91,133,37,27,40,156,65
48,92,135,38,25,36,166,59
44,87,106,34,26,39,154,56
43,86,109,33,26,41,152,57
44,78,101,35,26,44,148,56
40,88,148,31,29,43,140,54
52,119,193,32,29,47,172,64
54,120,195,34,28,44,200,68
55,121,196,34,29,44,202,66
54,125,198,35,30,44,216,66
53,104,154,35,26,45,204,62
43,91,159,32,29,49,207,55
42,91,159,31,29,49,188,55
37,90,158,34,28,49,186,55
35,93,161,32,28,48,172,53
35,97,170,30,31,52,176,52
32,76,102,33,29,44,106,39
30,75,106,35,30,44,95,32
35,89,126,36,31,44,98,33
37,86,138,36,29,44,106,35
37,83,123,34,29,37,119,39
44,89,138,33,30,38,126,38
44,90,140,33,30,39,139,38
43,91,144,29,28,39,143,41
43,99,135,27,28,41,154,49
44,98,136,30,31,41,148,45
40,96,120,28,29,41,154,48
46,122,176,35,30,43,148,48
46,112,162,36,33,49,152,48
46,102,156,37,34,48,162,45
48,108,166,38,29,47,186,50
48,109,177,40,31,49,179,51
41,74,117,34,28,45,175,51
40,73,112,33,25,35,176,52
41,69,108,34,25,36,177,48
43,58,96,30,29,37,153,46
46,56,78,29,28,33,138,41
45,59,97,29,27,32,134,38
49,64,97,30,30,42,127,37
50,63,98,30,30,39,103,37
51,70,100,31,27,37,92,35
48,76,123,31,28,39,93,34
57,72,114,30,30,44,112,41
57,71,113,28,27,41,114,37
63,79,134,30,28,42,111,37
65,83,136,31,28,44,108,38
69,78,121,35,29,43,115,38
66,87,135,36,27,41,140,35
64,84,138,36,29,38,160,45
62,79,117,35,30,34,157,46
56,69,113,33,30,32,159,47
61,83,147,30,30,32,169,54
61,80,139,28,32,37,197,58
63,82,138,31,30,34,189,54
61,81,139,31,28,34,186,51
59,85,145,30,28,35,188,51
51,69,121,32,26,37,278,72
50,74,117,33,28,32,253,69
45,75,125,31,28,32,249,67
42,74,123,31,28,33,249,66
47,70,114,32,30,33,256,68
48,73,90,31,32,32,169,47
45,63,74,30,28,28,146,47
45,58,49,31,29,32,143,49
45,62,67,30,27,30,140,51
55,79,100,33,27,32,136,48
50,72,103,30,26,41,171,43
52,71,109,30,27,41,181,39
52,73,114,33,27,40,176,37
54,82,129,35,30,41,182,35
43,65,106,30,27,40,195,33
49,70,106,30,25,34,155,35
47,71,104,31,25,37,154,35
50,94,154,31,24,35,154,35
52,89,146,29,23,37,175,39
55,91,146,31,27,39,175,45
49,88,147,32,30,37,164,43
50,90,146,31,30,36,158,42
49,83,116,27,30,37,162,45
44,93,133,31,34,46,156,46
40,93,131,30,33,45,146,47
45,105,148,33,33,46,139,48
47,106,151,35,33,44,133,48
58,96,131,35,34,50,140,48
59,83,99,33,31,43,183,49
59,87,129,38,30,41,176,45
60,76,114,35,27,39,173,43
65,77,107,33,29,40,202,47
54,71,110,35,31,35,213,49
57,71,109,32,31,34,167,46
56,64,81,26,30,33,163,42
51,66,106,26,30,32,180,42
55,67,108,29,30,34,182,42
55,72,119,26,28,32,176,40
56,75,120,30,29,32,172,38
62,79,114,31,29,34,173,42
63,70,84,33,29,35,156,41
53,72,93,34,26,31,115,37
58,70,79,34,28,35,112,36
56,73,105,35,24,36,134,39
51,76,117,37,23,35,133,40
51,79,117,34,25,34,137,43
49,76,111,32,26,35,177,46
54,72,105,33,25,33,173,51
51,79,111,31,26,34,175,50
52,71,97,28,27,39,177,46
53,67,95,28,27,40,183,46
55,61,90,27,26,40,146,42
47,67,95,27,27,39,146,35
47,48,64,24,26,37,123,35
48,49,61,26,26,34,128,36
46,69,92,31,27,35,116,33
44,104,152,41,28,36,183,46
46,107,155,43,29,38,179,47
47,108,153,43,29,42,186,45
45,108,152,43,28,40,184,45
44,100,139,40,28,41,212,52
43,67,87,35,30,41,185,47
40,67,90,30,30,41,190,51
40,78,113,31,30,36,182,52
40,79,119,31,29,37,176,55
40,79,120,32,28,38,222,57
40,78,109,29,27,39,214,58
36,77,113,30,25,38,209,54
33,70,107,28,26,40,216,52
47,81,108,27,25,40,234,62
48,79,111,26,26,38,189,60
52,83,137,29,25,35,175,56
53,77,129,28,25,35,175,58
54,78,117,30,24,40,182,60
41,70,116,32,26,46,164,51
45,69,109,33,25,50,147,45
41,80,101,34,26,53,149,46
45,78,98,35,27,52,154,45
45,73,93,33,27,53,140,49
51,103,149,37,27,47,133,52
47,105,153,37,27,42,116,52
50,96,137,35,26,39,173,57
52,98,137,33,29,46,176,54
58,104,147,37,30,40,175,53
58,75,112,33,29,39,180,51
57,74,109,33,30,40,194,50
56,75,117,35,31,44,201,55
52,74,116,38,30,38,200,60
48,67,108,34,28,37,196,57
45,59,79,33,27,37,192,54
49,65,82,33,27,41,233,58
47,62,74,31,25,37,227,52
46,70,105,28,23,34,222,49
44,75,114,30,23,34,222,52
44,85,142,33,27,41,237,56
43,79,141,32,28,38,227,61
42,75,139,32,29,40,188,62
44,69,131,32,30,41,184,58
51,67,120,32,29,43,190,61
52,61,109,33,28,39,212,70
55,68,121,33,27,36,170,60
55,68,122,30,28,31,166,57
54,72,119,31,27,35,168,59
48,77,134,31,28,39,174,55
45,77,121,25,26,38,131,43
44,75,114,30,26,37,123,43
44,77,113,32,24,38,116,41
41,70,100,31,22,35,118,41
41,65,94,34,25,32,124,43
44,64,93,36,26,35,165,43
39,73,113,31,27,37,177,44
40,83,118,32,29,39,184,46
45,86,121,32,29,44,190,48
49,86,108,30,27,44,180,48
46,80,100,33,28,41,179,51
46,79,117,34,28,41,172,52
46,71,118,35,28,41,208,54
52,84,131,36,31,41,211,51
48,82,131,33,29,40,217,48
52,82,132,29,28,40,181,40
63,73,89,30,25,42,195,45
63,77,105,30,25,40,181,44
57,64,89,29,25,31,173,46
57,65,95,30,27,32,155,47
57,66,96,30,30,35,167,51
48,69,98,28,31,32,169,58
47,63,70,28,31,32,140,55
58,69,76,32,32,36,142,56
57,72,106,33,30,33,153,60
58,70,105,32,29,33,179,61
61,76,118,32,29,34,179,50
60,77,121,32,29,32,183,51
48,83,135,30,27,29,179,48
51,92,121,32,27,37,211,51
54,96,125,31,28,44,228,68
49,90,114,32,28,42,217,70
53,125,191,35,29,44,218,69
55,119,179,36,30,46,229,72
55,111,173,36,31,47,227,72
55,112,170,37,29,44,182,57
55,122,179,37,29,43,173,53
55,108,149,41,31,42,165,52
53,108,151,41,29,42,169,56
51,108,153,42,31,42,249,72
42,108,177,41,30,39,252,69
44,100,168,42,29,41,255,68
41,71,129,35,28,40,269,74
45,66,125,34,28,41,277,75
43,62,124,35,25,35,182,63
47,69,114,37,24,34,178,63
49,82,135,38,25,35,181,65
52,83,125,36,24,35,160,60
47,94,159,36,26,38,140,56
48,97,158,32,26,36,126,44
45,91,145,29,27,40,124,42
41,79,127,28,27,37,112,41
37,85,130,30,27,41,111,43
38,80,118,30,24,36,129,47
44,84,115,31,25,39,132,49
44,85,106,33,23,36,136,48
43,84,111,32,23,36,135,48
48,85,110,31,25,40,151,45
50,79,72,29,26,44,183,40
47,83,93,30,24,41,186,36
47,99,143,28,24,41,186,39
52,100,139,30,27,45,187,39
45,94,141,31,25,40,188,40
47,95,146,31,24,35,140,42
43,95,167,33,23,34,136,45
43,76,138,33,25,36,129,42
40,76,138,32,22,34,129,44
53,77,135,32,25,38,178,55
51,78,142,31,26,38,167,54
52,71,103,28,27,40,176,53
56,73,117,28,28,40,180,56
56,69,117,29,30,41,209,65
46,69,115,30,28,36,166,57
51,64,99,30,30,37,163,56
55,91,152,30,29,38,154,54
56,91,145,31,25,38,165,55
56,90,144,29,26,37,203,50
57,89,146,28,26,34,199,48
51,95,156,29,26,34,201,46
49,79,121,30,28,39,214,46
48,86,111,30,30,38,206,43
46,86,112,32,28,38,134,37
45,99,123,33,28,39,152,35
48,102,125,34,28,40,153,41
47,98,114,35,30,34,147,43
48,87,112,33,30,33,160,47
52,92,111,33,33,34,162,47
50,82,95,31,32,34,144,49
56,70,71,32,32,35,159,44
57,79,108,29,29,34,151,42
53,77,109,30,30,32,141,39
50,79,113,27,27,28,133,37
51,78,116,29,30,32,137,39
49,81,119,25,30,30,129,47
48,66,80,26,30,31,127,53
47,70,89,28,29,34,120,52
55,74,104,31,30,41,127,58
54,74,103,30,26,42,152,56
49,74,103,31,27,42,150,51
48,72,101,33,26,44,141,46
51,89,112,35,28,46,145,46
43,78,94,33,26,41,139,42
44,76,92,34,27,41,128,40
48,82,93,35,25,40,129,39
47,89,112,33,25,38,148,41
48,68,113,31,25,36,156,45
48,73,123,31,25,32,170,47
46,76,128,30,26,28,155,47
42,75,151,30,28,25,152,47
48,65,138,29,28,27,134,48
47,65,121,28,26,29,131,42
45,57,114,26,26,34,115,38
43,54,108,28,24,34,110,39
47,60,94,27,25,36,101,38
41,67,102,25,24,37,107,33
39,65,99,27,23,36,96,34
45,70,93,28,24,35,103,36
51,72,93,26,26,36,117,34
51,66,121,26,24,36,131,33
55,69,120,28,25,35,123,33
57,72,125,30,27,35,137,36
54,68,123,32,29,36,173,40
51,71,127,32,27,38,165,45
47,70,89,33,29,38,159,44
42,73,108,34,28,37,164,45
38,71,112,31,28,39,214,51
38,73,115,28,25,37,209,50
38,68,118,29,28,35,204,47
43,64,113,27,26,34,202,50
49,56,86,28,27,38,205,52
51,54,71,31,29,42,153,47
52,50,63,31,30,42,115,42
49,57,69,33,29,43,130,42
48,73,101,34,29,45,134,44
42,79,115,33,30,41,143,46
41,83,120,32,28,44,137,46
52,84,121,31,27,45,138,49
51,83,133,31,29,46,131,48
48,71,116,33,27,45,140,57
51,71,110,33,27,48,143,56
51,68,111,31,26,40,131,52
42,77,136,33,26,36,129,49
43,70,116,33,24,35,126,49
45,69,110,30,25,35,127,41
45,65,103,28,25,31,131,41
43,89,134,33,24,28,136,43
56,85,114,37,26,30,148,47
56,86,112,37,27,33,167,53
55,86,112,36,26,32,179,49
53,81,114,38,27,33,161,43
52,54,72,34,30,35,168,43
40,55,74,31,28,32,182,40
40,71,105,31,28,30,171,33
40,79,121,35,30,34,201,39
40,79,120,34,29,35,202,45
45,77,117,33,26,37,191,44
40,76,115,33,26,37,168,43
41,63,95,30,27,36,186,52
40,69,104,34,30,45,159,54
41,77,111,33,31,42,172,51
37,82,121,38,33,42,177,52
44,95,145,37,34,45,188,58
43,96,141,38,33,49,167,54
44,87,122,32,28,39,145,49
40,82,116,33,29,41,147,49
43,87,113,30,25,39,150,48
44,71,112,30,29,41,186,55
47,67,109,29,30,37,208,60
46,69,126,30,31,35,209,59
50,70,124,29,29,34,196,60
47,65,124,30,36,42,198,59
43,73,131,33,37,42,161,47
42,76,132,34,36,41,134,38
42,72,115,32,36,40,122,37
39,70,115,31,39,43,127,37
41,66,127,29,34,42,117,37
35,56,90,27,29,39,103,36
41,52,89,28,29,43,91,38
41,58,93,30,28,43,93,39
39,57,95,46,28,40,85,37
44,54,66,49,26,38,221,52
45,72,97,50,29,38,234,54
44,72,101,52,29,34,232,52
46,70,97,52,29,37,232,53
48,73,95,40,27,40,236,53
45,70,96,34,26,36,128,41
46,51,60,31,21,34,113,41
40,52,66,29,20,35,118,42
46,57,63,29,22,32,121,43
50,72,110,31,22,37,147,46
50,75,114,33,23,36,186,53
49,76,115,36,25,37,182,53
52,79,111,36,24,37,179,51
47,77,128,36,24,39,177,51
54,61,101,33,24,40,156,51
54,70,118,34,23,40,125,45
56,73,118,31,24,41,125,44
60,79,126,32,25,40,131,45
57,74,108,30,26,46,148,48
47,72,97,32,27,40,140,47
53,79,139,34,27,40,134,49
52,75,140,34,26,40,132,51
45,68,132,33,27,44,131,53
45,73,138,35,27,37,113,53
48,76,151,32,24,38,123,50
42,65,113,29,24,38,115,44
46,66,115,29,25,41,121,42
48,61,114,29,27,37,125,41
48,55,111,28,26,36,123,34
46,54,98,29,28,36,122,34
45,69,114,31,30,37,158,39
39,74,127,32,30,33,156,39
38,76,127,32,29,30,152,37
40,76,126,32,30,30,159,43
38,73,121,31,30,30,155,43
38,54,85,28,29,27,101,38
41,68,97,29,29,29,98,38
42,74,101,30,28,35,125,40
40,84,113,30,29,39,123,37
45,88,117,32,29,37,122,40
45,93,120,33,29,39,124,39
47,87,129,33,29,37,129,41
48,82,127,31,28,36,166,40
48,81,124,33,27,33,180,40
42,78,121,33,28,34,184,42
44,79,128,34,27,33,184,43
40,69,91,35,28,36,186,43
41,77,121,44,30,35,158,42
40,70,111,48,31,36,162,41
43,82,121,52,33,36,175,39
46,77,109,50,31,35,175,40
47,79,111,48,30,37,187,46
44,65,72,42,30,38,166,46
51,65,73,36,27,36,173,48
49,55,72,28,25,36,156,48
44,56,92,30,26,38,193,54
43,59,102,32,27,35,183,52
50,61,102,28,26,32,186,54
48,73,131,29,27,34,162,50
48,73,126,29,26,37,168,53
53,70,114,27,25,39,138,48
53,69,113,29,23,36,133,45
45,70,113,28,22,36,154,46
43,58,87,26,22,39,190,52
44,74,113,28,22,38,182,49
45,80,114,29,24,35,178,47
42,81,122,26,25,36,184,48
52,82,132,30,27,37,170,47
51,92,154,31,28,33,133,43
52,77,136,30,28,33,138,43
47,81,136,31,28,38,179,44
51,77,121,32,28,37,180,46
43,79,111,30,28,38,173,41
40,73,100,28,26,37,167,43
40,83,102,29,25,38,193,48
50,76,100,28,28,37,151,49
50,75,100,27,28,36,141,47
49,74,101,30,27,33,137,48
58,73,79,32,30,34,136,47
56,56,70,33,30,32,87,44
46,53,67,33,29,32,117,43
45,80,102,37,30,32,122,42
65,82,102,34,29,33,128,46
60,104,136,33,28,35,150,45
63,108,140,33,28,37,164,46
64,111,143,33,25,33,147,43
67,97,126,29,24,33,138,44
50,94,127,30,24,35,147,38
48,63,80,27,25,35,210,67
46,58,87,25,25,35,208,66
49,59,98,25,24,33,205,67
47,72,116,25,25,34,211,69
49,74,115,24,24,43,231,84
48,75,116,27,23,42,193,73
54,75,105,27,22,41,183,71
58,87,142,30,23,42,183,70
58,88,128,29,26,40,184,73
57,84,127,29,28,33,189,72
57,87,139,28,28,32,161,61
56,96,155,29,29,31,160,63
48,81,114,25,31,31,163,63
46,72,114,30,31,38,203,61
53,74,126,37,30,37,176,42
54,71,114,37,28,35,186,44
49,82,112,40,29,36,188,43
49,85,121,39,27,39,209,46
46,86,118,36,24,34,167,41
39,85,106,27,23,34,159,42
41,84,108,30,26,33,137,41
43,70,112,27,25,34,137,44
53,70,100,34,28,34,217,57
54,63,95,34,28,36,222,58
51,63,93,36,28,35,223,59
47,73,103,34,27,36,228,56
52,71,87,33,25,36,273,63
44,67,88,26,25,32,201,53
45,67,97,28,25,28,193,51
46,72,116,29,29,28,191,51
50,65,108,29,28,28,198,52
46,70,117,30,29,27,125,40
44,70,113,29,27,30,112,34
41,71,107,26,28,30,108,31
44,76,88,31,27,30,122,34
47,88,140,35,26,33,146,39
48,88,131,34,25,32,157,41
49,92,137,39,27,30,153,40
53,96,137,40,24,29,154,42
55,89,137,37,26,30,145,37
49,77,88,37,27,30,172,41
47,80,116,37,27,28,165,41
46,78,114,34,30,27,169,42
46,78,122,35,30,29,175,46
41,92,151,39,30,31,184,55
58,101,148,42,30,27,146,54
66,113,125,45,32,32,144,52
77,122,138,45,30,33,161,54
77,124,138,45,38,32,161,52
78,113,105,41,41,29,145,44
66,101,100,34,41,29,140,40
60,93,122,36,40,25,167,46
55,85,112,34,38,26,155,44
64,84,119,35,34,27,151,43
68,89,120,36,27,28,161,41
69,95,151,40,28,28,143,38
80,94,135,41,28,28,118,32
79,91,129,43,32,27,131,36
73,83,117,43,30,25,134,36
75,90,118,41,31,26,132,40
80,103,116,41,31,33,143,41
81,93,128,37,31,34,170,48
84,104,128,34,29,36,173,49
119,105,133,33,25,37,191,59
116,98,136,33,24,36,194,62
126,115,146,32,21,29,191,65
140,116,135,29,18,29,177,63
146,112,148,31,19,27,172,63
121,115,144,31,21,28,158,59
127,148,140,31,23,30,169,55
117,121,113,30,26,35,219,57
105,123,150,30,31,40,226,53
91,125,138,29,33,45,217,52
95,132,139,27,34,46,213,45
97,90,146,30,36,47,233,70
95,91,139,29,36,46,196,72
81,105,176,36,33,40,188,74
85,99,182,36,29,36,189,74
77,89,182,38,29,32,188,74
72,97,183,38,27,40,253,63
70,98,196,40,26,37,257,62
75,77,133,34,27,38,249,62
76,79,126,35,27,37,249,60
77,79,147,35,26,38,249,61
74,83,182,35,26,36,173,52
85,95,164,29,25,41,179,45
83,93,169,35,26,41,189,45
79,91,171,35,26,40,186,46
85,98,172,35,25,42,231,49
88,105,182,35,24,38,262,55
87,107,186,35,27,32,266,58
91,109,188,31,25,31,264,56
101,137,201,32,25,34,266,56
98,135,201,32,29,36,244,59
99,127,156,30,29,34,193,52
101,136,184,33,26,35,173,55
104,154,206,37,31,40,165,56
107,138,197,37,33,38,161,55
107,136,209,35,31,35,152,50
108,135,211,33,31,34,131,52
100,138,182,31,31,39,120,44
100,122,179,26,25,38,113,45
93,115,176,26,22,40,126,49
98,128,142,28,23,41,132,52
91,129,185,32,23,41,141,47
90,119,196,33,26,37,144,55
83,116,174,33,26,40,153,53
84,121,180,35,30,37,185,59
74,117,191,35,28,38,175,59
78,111,149,31,28,41,166,60
75,98,147,31,27,39,170,54
79,99,155,36,28,35,163,55
85,100,160,34,25,38,117,45
87,106,210,34,24,35,106,41
87,119,238,40,27,33,109,42
88,126,261,41,29,36,132,93
85,132,270,36,26,34,147,92
81,125,275,38,29,29,166,101
88,109,252,36,32,39,243,114
89,101,227,32,29,39,265,117
93,92,197,28,30,37,254,84
97,85,191,28,31,38,252,84
88,101,197,27,30,47,263,78
98,115,193,27,27,46,212,70
95,110,191,27,27,46,185,64
98,125,205,28,25,46,175,64
96,125,207,31,24,46,184,64
101,130,191,30,21,42,169,67
87,125,179,30,25,36,190,61
97,136,212,34,28,34,210,69
94,123,199,34,29,36,215,68
93,117,186,33,30,38,212,69
89,101,207,34,32,37,203,60
92,101,197,34,30,35,163,53
93,111,180,32,28,34,135,46
97,110,185,33,29,45,167,43
96,114,180,31,29,45,175,43
94,114,169,29,29,42,172,49
91,103,174,30,30,49,175,48
83,80,161,29,30,55,199,52
80,113,166,29,28,47,209,54
81,123,178,29,28,49,189,52
77,120,164,28,24,48,192,47
72,122,178,29,24,51,207,49
69,124,172,27,24,48,198,45
79,106,166,28,26,48,161,49
73,86,153,30,25,44,159,48
90,102,141,29,27,45,176,51
99,106,136,30,29,38,248,69
107,120,160,32,29,39,249,70
95,111,156,33,29,36,252,68
98,128,173,32,28,45,302,73
88,124,179,34,27,47,339,78
84,120,180,34,26,46,280,62
73,100,174,33,25,42,276,62
79,104,171,31,25,43,274,64
80,100,176,36,29,39,239,64
81,99,178,37,31,37,173,59
77,102,174,35,31,38,167,58
81,114,186,37,32,40,167,55
82,113,184,36,32,43,176,56
81,110,164,32,32,44,161,52
82,111,240,39,30,43,146,48
83,111,234,38,29,42,145,46
80,103,225,37,28,46,214,54
78,125,247,40,30,42,222,60
79,122,249,41,28,40,218,63
80,128,178,32,26,39,217,62
95,147,201,35,29,40,217,64
94,144,187,33,29,41,180,55
89,126,163,31,28,42,162,45
87,129,160,28,32,40,156,38
88,125,176,33,32,40,151,38
70,124,149,32,29,45,220,52
73,128,169,35,27,43,195,71
76,133,195,38,29,43,189,70
76,133,205,39,24,42,189,70
67,133,193,36,24,43,212,74
80,118,212,35,24,42,175,65
79,115,204,35,25,36,172,47
82,104,176,32,22,35,168,46
88,98,175,36,23,35,189,51
92,109,176,38,23,37,208,56
92,112,176,42,24,42,203,58
94,120,193,42,24,42,201,61
90,125,196,42,27,43,258,69
85,160,289,46,28,46,299,86
88,147,288,44,26,43,285,83
77,148,296,50,28,35,275,84
75,142,282,48,28,35,277,87
73,142,308,47,27,37,236,83
70,103,225,44,28,32,157,64
65,102,220,44,28,33,127,58
62,95,224,37,37,31,112,54
65,119,286,80,43,30,117,46
73,119,258,91,52,25,101,41
77,118,262,110,62,29,179,38
71,143,326,141,93,29,195,40
72,159,312,166,113,30,201,44
75,146,283,201,124,32,190,61
89,171,300,229,155,40,189,74
93,268,323,303,189,41,127,109
94,352,294,322,189,45,104,113
97,369,307,311,180,46,101,137
89,377,295,283,179,49,118,142
76,383,281,270,159,59,139,154
65,344,279,233,116,88,131,139
74,268,257,210,101,88,130,138
71,240,234,210,104,92,122,123
71,227,250,224,134,93,98,109
74,199,248,226,134,87,54,86
84,163,213,184,140,61,46,86
76,120,200,165,148,60,38,84
88,123,233,161,143,56,37,71
94,158,223,208,142,65,34,76
85,164,252,221,160,65,34,82
88,191,247,230,167,65,41,69
91,197,254,250,183,70,42,69
77,186,266,272,213,69,45,71
71,158,243,238,193,64,48,69
69,150,212,221,186,63,46,55
52,105,268,233,182,58,39,54
52,106,261,227,179,56,35,52
60,119,228,208,155,57,29,56
63,117,261,205,179,57,27,49
63,118,261,195,170,53,33,53
68,143,277,169,171,58,36,58
73,142,303,179,178,61,36,59
67,129,319,176,170,58,35,51
62,128,293,165,144,50,36,52
71,135,292,214,218,66,30,51
75,130,284,219,220,62,30,47
69,121,248,192,196,55,30,45
72,125,252,210,219,62,32,49
73,119,250,212,224,63,30,47
76,116,254,167,153,47,29,40
67,96,243,165,142,45,26,37
67,96,283,175,150,47,28,44
61,90,272,149,123,38,27,38
58,87,276,161,118,35,27,39
60,70,271,177,165,52,27,42
58,60,259,173,172,53,55,43
63,81,214,171,166,52,59,35
62,86,248,206,160,51,60,36
70,93,270,201,162,52,61,38
56,93,293,203,132,39,63,33
60,91,261,199,127,39,43,42
58,68,269,199,133,37,35,41
93,124,259,194,158,42,34,41
98,133,239,200,161,43,32,39
99,145,346,201,154,41,27,39
97,147,353,190,152,39,25,30
99,150,356,184,151,38,24,30
71,108,339,185,138,38,24,30
64,128,342,177,133,37,30,29
70,130,221,163,123,38,28,28
71,133,230,188,121,38,28,36
65,131,213,191,114,41,32,41
61,130,195,177,107,36,31,44
66,122,201,193,100,36,26,46
61,109,202,200,101,32,29,47
64,109,204,182,103,32,31,43
86,113,235,193,117,35,28,44
91,121,236,178,122,37,27,41
90,108,225,161,123,36,26,40
97,119,258,191,125,40,26,40
94,116,268,187,134,44,23,39
75,123,314,175,122,40,23,30
90,126,339,227,144,48,24,30
82,118,346,227,143,46,25,28
78,114,334,195,139,45,23,26
81,117,315,204,151,43,23,23
87,113,253,219,172,49,25,27
70,103,239,174,158,45,25,29
74,126,226,191,175,48,27,29
71,121,203,189,173,47,27,29
80,120,191,183,159,47,28,34
81,122,276,179,142,40,27,36
87,123,270,182,143,38,28,37
85,104,295,162,123,37,27,38
88,109,292,152,122,36,28,41
78,113,297,168,146,38,26,36
72,103,207,158,144,40,27,34
62,103,213,134,122,35,27,33
64,104,186,136,134,36,28,33
61,94,183,153,137,38,27,29
57,92,235,130,115,38,27,31
65,91,251,152,134,39,28,36
79,90,231,180,162,44,27,37
77,82,273,223,180,47,26,41
75,84,285,237,181,46,26,43
76,71,279,246,187,44,28,42
66,71,273,234,195,44,27,37
60,99,279,254,198,45,30,36
69,99,257,216,174,41,27,31
83,122,245,191,168,39,32,31
90,126,222,177,153,37,31,35
102,140,286,173,123,35,34,39
95,129,293,115,76,26,33,38
88,129,279,128,81,24,34,39
89,105,276,143,115,27,30,40
83,100,264,146,130,31,29,38
74,98,205,147,128,34,27,33
80,104,272,161,140,36,27,31
91,123,269,155,141,36,28,36
87,127,301,174,127,36,28,38
85,127,314,190,121,35,29,36
80,116,312,200,127,34,30,37
87,113,267,195,125,35,31,39
82,103,262,191,124,35,31,35
76,96,242,178,127,34,30,34
83,105,218,173,147,37,28,34
84,106,234,160,142,37,28,37
75,120,263,167,140,38,24,35
66,114,327,180,146,38,25,33
69,116,328,170,140,38,23,31
59,112,327,165,144,41,22,30
60,117,312,169,146,40,24,28
69,100,292,152,142,38,23,34
71,97,229,138,126,37,24,34
65,93,223,152,127,40,28,35
66,85,225,150,85,33,29,34
82,87,216,143,78,32,28,33
74,82,215,141,81,31,29,28
81,85,205,132,84,33,27,28
81,92,228,172,110,32,24,28
89,98,278,173,121,33,27,31
82,113,289,172,122,33,28,32
83,111,274,170,116,32,27,30
90,111,271,171,113,30,28,32
94,104,247,135,85,26,27,38
97,102,201,133,81,26,27,39
90,82,228,138,84,28,25,38
90,79,234,155,97,30,24,43
80,83,257,156,99,32,24,44
76,88,250,127,88,30,27,40
67,101,248,126,86,29,26,39
79,118,226,134,134,33,28,39
83,122,277,124,131,33,30,37
80,117,262,125,130,33,32,36
78,120,305,124,133,33,29,32
75,114,306,117,128,33,29,31
63,105,298,111,78,28,29,32
54,97,272,104,69,26,30,29
58,95,286,99,69,27,29,28
67,94,299,101,63,26,28,32
70,102,294,100,65,25,31,31
70,88,293,135,80,28,28,30
80,100,279,137,88,26,27,31
76,100,275,151,98,27,27,32
74,104,220,161,106,27,27,29
72,89,223,167,103,30,24,30
72,89,223,132,87,27,25,29
58,88,228,157,93,31,25,31
65,88,210,154,90,32,23,30
56,77,207,142,79,32,23,31
56,86,236,144,81,30,27,32
56,88,237,163,89,31,27,33
69,95,215,142,76,27,27,33
67,96,221,139,67,24,27,33
67,101,262,142,79,25,27,33
67,92,256,149,82,29,24,34
71,99,292,127,73,30,29,33
81,103,296,112,73,30,29,31
78,105,296,114,72,31,29,32
81,104,278,110,61,30,32,32
80,110,286,106,90,29,31,32
79,128,334,135,122,30,27,33
55,117,343,145,127,33,27,35
53,117,349,144,131,31,27,35
51,115,337,159,137,34,26,37
57,137,340,170,123,33,36,37
64,126,315,150,96,33,62,38
63,131,410,147,90,32,66,37
64,128,424,140,98,34,72,38
62,144,526,138,93,35,75,35
58,119,520,109,82,32,74,34
40,104,485,109,82,31,80,34
37,88,392,99,78,29,94,35
41,92,394,104,76,28,92,33
37,72,323,95,82,28,93,34
50,96,323,113,95,30,91,34
52,100,340,109,96,32,76,34
57,98,340,112,98,32,82,40
61,96,308,108,90,31,83,41
61,96,259,113,83,30,81,41
58,98,256,96,68,28,82,40
59,103,259,96,63,25,78,39
55,106,257,102,78,29,57,31
52,105,281,116,76,30,68,33
75,138,248,102,74,30,68,39
78,131,278,128,109,34,68,37
78,131,265,135,113,36,66,39
82,134,297,128,106,34,58,38
81,135,296,118,109,34,39,35
70,113,281,126,114,33,47,32
63,106,258,99,82,30,60,32
65,102,297,96,76,27,63,31
59,99,265,101,75,25,62,35
62,96,253,97,75,26,66,36
59,77,301,97,70,28,111,43
61,84,293,93,72,29,111,43
60,85,252,90,75,31,109,43
69,86,247,99,82,29,111,40
67,88,236,100,81,29,109,37
61,91,199,136,85,26,64,28
58,83,206,137,86,25,51,27
67,89,213,148,102,28,54,26
67,111,250,144,96,27,51,26
79,115,260,148,90,31,50,33
78,109,247,104,91,30,39,32
78,120,246,107,92,32,39,33
69,116,270,86,68,28,34,33
63,96,241,82,65,29,29,33
46,96,278,78,84,26,29,29
49,103,309,80,83,29,28,29
52,101,295,75,77,26,30,28
52,98,320,77,82,30,29,28
54,101,325,77,88,30,32,30
55,98,336,95,78,29,31,29
57,109,306,96,82,27,33,27
53,93,317,93,87,27,31,28
55,93,266,93,83,26,30,32
58,98,260,90,83,25,29,32
58,102,256,77,78,25,30,32
53,82,264,75,68,27,31,33
52,91,236,78,63,26,45,32
52,95,271,85,73,29,49,30
43,84,276,99,81,35,51,30
46,94,222,92,79,35,50,29
47,98,210,98,88,34,50,28
54,110,295,103,90,36,39,29
49,105,309,99,87,32,35,31
54,107,328,112,89,28,32,31
50,96,336,116,91,29,36,34
50,94,332,112,81,28,36,33
69,128,276,110,86,29,38,38
72,127,287,108,89,31,41,39
69,125,276,78,80,31,42,38
71,126,279,87,77,31,43,37
83,156,283,92,89,33,44,37
63,115,305,103,90,31,40,33
62,125,248,101,84,30,40,30
65,127,247,100,78,28,40,31
64,130,250,97,98,34,39,32
46,91,258,90,98,33,42,33
52,103,257,73,90,34,42,33
52,95,265,76,89,34,46,33
53,98,265,78,90,34,45,32
57,88,244,82,75,29,43,28
67,87,229,82,72,24,36,29
67,94,240,82,76,29,36,25
69,98,220,94,81,28,25,25
65,92,203,95,81,29,28,28
60,95,238,89,82,30,25,28
54,101,287,98,76,30,25,27
53,90,247,110,83,26,24,32
57,120,266,107,91,26,25,31
57,121,263,107,88,24,27,29
60,123,272,106,78,26,37,31
58,122,242,107,79,27,37,32
52,117,239,93,70,25,38,28
44,87,218,83,56,25,41,32
48,90,254,98,54,23,37,31
47,90,238,93,61,23,31,29
50,85,224,80,58,24,32,28
53,83,242,86,64,25,30,29
54,87,243,90,64,27,30,28
53,84,244,73,66,28,36,30
51,79,219,83,65,27,37,32
56,86,263,86,71,26,37,31
60,85,260,98,65,25,40,30
63,87,255,100,66,24,38,29
66,83,224,100,66,23,34,35
67,84,237,92,58,22,33,36
62,78,191,93,59,23,32,36
61,83,177,76,61,24,31,38
65,92,220,79,63,24,33,38
65,104,225,78,60,23,31,31
63,104,214,89,92,31,30,31
62,109,234,93,91,33,34,33
60,104,241,96,94,33,33,31
48,86,201,86,95,32,34,31
44,73,218,97,97,32,34,30
46,80,225,90,70,26,32,30
44,70,225,98,77,23,28,29
41,71,208,91,79,26,31,30
42,77,216,98,74,29,29,29
43,85,210,95,83,29,28,29
45,92,223,94,85,30,28,29
53,93,240,96,83,33,34,33
54,90,251,100,83,34,31,33
53,84,245,103,81,32,30,36
54,84,245,101,77,32,30,35
52,75,230,100,83,30,30,33
46,83,201,107,77,26,25,29
47,87,209,108,72,23,25,29
48,83,212,103,71,22,24,31
44,76,203,99,73,23,27,33
45,73,220,102,66,23,30,34
63,91,230,87,68,27,37,35
60,98,231,94,75,28,37,35
60,98,224,91,88,31,36,31
65,109,221,91,82,30,36,35
65,110,215,84,79,29,34,36
47,92,208,83,83,28,29,34
51,85,201,78,85,28,33,36
53,88,213,80,77,26,37,36
52,82,208,87,78,26,35,33
56,93,231,90,79,26,33,31
55,88,215,85,84,26,33,32
52,88,209,83,78,27,29,31
48,89,213,81,77,30,27,30
49,92,225,75,78,30,27,27
54,90,193,72,91,29,29,29
52,92,190,81,89,31,39,27
69,118,270,76,86,30,42,32
77,129,286,76,91,30,43,33
74,122,278,74,99,31,45,35
75,114,299,78,88,33,43,38
78,123,331,93,82,32,33,40
65,95,279,93,80,30,29,35
61,90,253,96,75,29,25,43
64,103,258,112,68,28,28,42
53,105,245,118,89,30,30,39
54,104,231,109,102,30,30,38
56,113,239,110,104,30,32,40
55,112,238,115,113,31,31,28
57,100,227,109,116,33,27,30
60,106,245,103,102,31,27,31
60,94,224,92,89,30,29,33
56,84,215,106,92,30,28,31
53,71,245,117,86,28,36,32
52,75,245,110,84,28,36,34
50,65,273,112,78,26,34,33
49,73,288,133,86,26,33,39
53,81,330,124,88,27,33,41
55,86,324,105,80,27,27,41
61,103,352,114,80,26,27,47
70,108,314,111,92,29,27,53
67,106,293,105,99,29,24,49
67,98,235,120,95,29,36,46
68,106,222,121,100,32,36,47
63,100,222,113,99,33,35,39
51,106,247,125,96,32,36,29
54,106,274,114,79,32,36,27
52,107,270,94,75,30,27,35
50,101,285,93,68,28,27,35
50,105,272,93,80,29,25,35
53,103,254,81,81,29,24,37
50,100,237,97,86,27,24,38
50,101,270,104,88,31,23,31
48,96,256,106,94,32,23,31
45,93,259,104,82,29,26,29
46,89,253,100,72,27,25,29
50,94,240,80,67,29,28,30
64,119,215,86,70,25,29,31
72,147,208,96,70,25,27,30
70,137,205,97,68,24,26,30
72,135,190,115,86,26,25,35
73,139,202,123,102,30,24,37
62,130,208,113,102,30,22,34
58,103,213,112,103,29,31,35
61,105,218,120,107,33,35,38
62,104,221,103,96,32,35,38
62,97,209,93,80,28,37,38
62,78,184,93,73,28,56,39
60,92,218,110,76,29,59,43
59,89,193,118,76,29,74,45
58,95,236,117,74,31,78,41
66,105,248,116,73,31,95,44
65,115,255,140,79,34,116,54
64,101,270,136,83,38,130,52
65,101,273,131,93,37,126,49
62,92,260,132,90,36,127,68
50,81,285,145,92,47,118,70
53,87,318,121,88,47,89,67
57,87,301,105,74,46,103,68
60,89,306,89,49,49,119,76
60,93,308,91,47,50,124,67
63,98,290,85,63,42,136,64
62,84,257,85,63,40,139,63
60,101,252,86,64,35,111,65
61,104,241,85,63,30,112,54
64,103,242,81,63,32,112,69
63,96,228,70,44,28,111,72
62,90,217,69,61,29,108,71
64,82,217,64,63,32,108,69
59,88,259,68,64,31,88,70
53,85,233,76,68,29,78,56
48,87,230,70,65,29,58,54
47,92,272,70,50,29,67,54
45,92,255,72,52,29,74,52
44,76,205,67,51,29,87,53
43,76,208,55,44,27,88,47
43,78,228,53,43,25,83,41
43,77,193,49,39,26,76,39
37,73,247,49,30,23,69,44
34,77,266,49,28,26,42,49
35,79,261,46,27,27,49,47
34,77,254,47,27,26,58,48
31,75,265,49,27,24,63,48
45,59,204,51,26,23,64,44
45,69,202,54,26,21,63,35
43,65,198,54,31,30,61,38
53,62,190,55,47,36,121,56
60,82,224,62,51,36,133,58
51,81,225,57,53,38,132,60
58,77,214,55,52,39,132,62
79,90,222,55,50,31,132,72
90,91,226,55,39,27,85,66
87,81,194,49,44,28,71,64
91,82,207,54,49,29,74,61
89,77,191,64,52,27,72,59
81,83,208,72,52,27,72,44
67,89,219,80,49,26,68,30
74,88,188,78,39,24,64,31
72,103,218,73,33,24,65,32
73,110,219,65,31,25,80,34
71,105,206,56,30,28,77,32
79,114,210,73,50,29,80,40
83,127,238,88,55,29,93,40
83,118,203,87,54,29,94,42
85,113,219,88,56,32,83,42
84,112,236,87,57,32,94,44
92,123,232,71,45,31,91,39
102,114,218,79,61,34,77,47
109,113,210,84,64,33,76,50
109,130,219,82,61,28,75,49
107,136,215,98,76,27,58,48
94,117,196,94,74,29,57,53
73,111,195,73,58,27,48,46
60,116,214,70,61,29,44,43
56,96,190,86,64,29,45,44
54,86,212,77,47,27,59,44
51,85,233,82,51,24,67,42
46,109,223,88,68,25,82,41
43,109,216,100,74,26,83,36
44,113,228,107,78,28,83,36
56,105,185,109,78,29,73,36
52,121,297,112,78,32,60,34
53,98,298,131,96,31,49,37
59,103,301,127,97,32,48,39
56,101,292,110,93,31,48,37
68,110,300,101,92,31,50,43
70,95,169,95,91,29,49,40
69,93,159,65,60,30,48,37
64,93,201,55,50,27,62,36
68,94,208,56,50,30,88,43
48,94,201,60,49,58,104,60
46,97,193,58,47,58,112,73
67,116,197,56,43,60,110,75
79,106,144,48,30,60,101,81
81,104,166,52,28,60,82,81
85,97,161,48,29,34,59,66
90,121,223,52,31,40,79,120
83,107,226,51,30,54,148,140
72,109,220,49,34,56,196,140
74,112,196,43,33,56,199,145
70,124,245,52,33,60,203,145
71,105,197,46,30,57,192,99
79,148,216,48,36,66,183,101
89,148,212,50,34,78,185,117
93,149,211,51,37,83,197,113
101,148,180,41,35,83,192,118
102,155,179,40,36,86,200,150
94,117,165,35,28,70,170,135
85,123,206,39,30,71,162,141
79,124,208,36,28,89,202,148
80,116,185,36,30,90,212,155
76,119,207,39,31,87,210,148
86,121,201,37,33,92,216,154
91,111,169,33,34,88,250,158
97,112,177,43,36,71,214,154
98,126,181,45,33,68,208,164
97,107,163,48,32,68,206,147
92,105,199,52,32,62,228,140
94,113,214,50,29,48,259,132
89,110,205,44,28,44,262,143
88,95,195,42,30,45,273,154
95,112,239,39,35,52,273,154
111,123,215,36,36,68,287,215
108,116,236,38,36,84,307,218
108,115,259,42,36,85,313,214
100,108,260,39,35,90,306,204
92,102,214,37,31,88,305,203
70,98,221,39,33,75,285,160
65,96,185,38,33,59,218,172
72,103,161,37,32,55,212,170
76,103,172,41,35,54,219,160
77,92,168,40,33,57,239,183
82,87,155,35,31,69,265,176
89,115,187,37,35,76,301,202
78,110,187,36,36,77,310,207
78,111,174,34,33,79,305,206
77,124,219,38,35,79,315,190
78,118,213,39,35,78,324,198
70,92,180,36,29,67,248,149
72,94,199,38,28,65,230,137
77,104,202,38,31,57,238,157
72,91,156,35,29,56,219,156
63,96,192,37,30,49,177,129
69,97,187,37,31,52,180,137
69,92,159,34,30,54,181,139
53,80,174,34,34,64,172,111
64,96,225,36,37,67,155,144
63,88,195,35,35,68,134,170
65,89,199,37,37,67,129,164
62,91,199,36,38,70,157,186
63,86,199,34,32,69,185,195
64,77,171,32,28,70,221,184
71,81,167,30,27,70,248,164
61,75,171,28,28,72,269,164
62,93,212,33,30,72,253,160
66,95,201,32,32,63,229,151
65,82,164,30,37,74,218,160
55,96,193,30,39,80,203,170
68,109,199,36,37,80,178,166
67,98,205,31,34,77,181,148
65,104,204,31,33,86,207,147
58,104,210,34,28,72,266,117
63,88,196,35,27,61,253,117
60,82,191,31,26,61,257,117
69,81,136,32,30,66,254,130
73,77,140,33,29,54,234,146
77,83,158,31,28,59,185,146
88,91,145,32,29,60,201,146
81,84,133,31,32,57,194,140
83,79,157,28,28,54,236,123
83,77,174,30,29,53,241,131
86,82,164,34,31,47,243,131
76,99,211,33,30,49,229,118
76,101,220,34,28,49,231,135
68,100,205,34,28,46,195,143
73,109,221,33,28,50,192,131
74,119,234,31,27,50,133,140
72,105,234,37,28,45,121,140
76,112,272,37,29,58,146,129
75,111,279,38,29,63,176,131
72,102,254,37,29,70,220,149
63,87,251,39,30,70,220,156
68,86,223,35,30,71,234,171
68,80,180,35,34,78,241,174
70,98,202,46,39,75,222,167
69,95,205,46,39,74,195,145
70,112,330,53,38,72,207,123
71,124,332,52,38,75,237,104
69,123,331,51,35,61,232,112
71,118,315,42,33,61,227,115
69,121,323,43,33,53,212,131
80,103,177,29,31,55,212,135
74,87,174,31,31,49,181,132
79,95,201,31,30,52,175,133
76,88,206,30,28,49,177,132
73,103,259,35,27,55,195,107
68,115,259,38,33,57,206,121
70,115,254,37,32,58,199,125
88,119,255,40,36,62,182,116
91,119,253,40,36,62,177,174
92,117,202,38,37,56,188,182
86,109,219,37,34,54,168,176
85,109,218,38,33,57,156,179
59,111,212,39,28,46,154,174
58,110,213,38,28,47,189,139
63,103,226,37,31,61,224,142
67,98,229,37,31,59,229,139
65,94,228,36,33,70,229,136
72,79,225,35,32,71,230,136
75,78,232,36,32,78,349,166
72,69,203,32,28,65,318,167
69,76,207,32,28,65,312,173
67,77,227,35,27,49,319,174
55,68,201,33,28,50,323,204
50,81,204,36,28,41,174,182
44,86,204,38,30,42,167,187
53,98,211,38,30,44,180,201
58,107,197,37,28,46,199,206
58,109,239,41,29,45,197,195
55,99,221,38,27,46,185,185
58,111,228,36,23,48,194,186
54,98,208,37,24,49,190,175
50,86,199,36,24,49,179,187
51,83,170,31,23,53,203,180
54,97,274,42,27,50,229,189
56,80,275,43,27,47,228,180
49,84,272,43,26,44,267,177
57,114,308,51,29,42,252,148
65,114,296,50,27,36,235,183
64,106,226,43,26,35,225,170
66,108,231,42,30,43,233,180
64,100,218,39,30,48,210,179
61,72,174,34,31,50,238,182
55,77,176,35,32,48,242,167
55,73,154,32,35,56,265,158
46,73,152,33,33,53,266,194
50,72,153,32,35,52,244,195
45,77,155,26,31,50,236,203
50,73,173,26,31,50,228,200
51,70,179,27,27,41,188,217
49,69,185,31,28,43,221,199
49,70,198,33,29,47,276,217
60,72,209,37,31,46,260,210
53,71,190,37,30,46,266,191
52,72,198,36,32,50,305,174
53,72,184,32,32,46,269,142
54,78,202,32,30,37,219,131
49,83,211,29,28,38,223,143
50,84,214,32,30,39,247,157
49,82,201,32,30,36,225,171
50,81,205,32,29,37,233,191
47,74,178,33,30,43,268,177
40,57,140,33,30,46,274,165
42,65,189,32,29,49,248,161
43,66,192,32,31,48,216,159
43,68,188,32,31,47,232,150
44,74,208,31,31,48,191,154
49,86,217,32,33,45,181,161
45,81,178,29,32,39,181,173
51,90,197,28,28,42,216,169
50,89,195,31,27,44,215,179
49,89,189,34,27,39,239,193
49,85,177,29,27,45,239,195
58,93,174,35,27,47,239,177
56,89,186,44,27,48,282,197
60,90,181,43,27,47,275,199
64,99,187,44,27,48,255,197
77,94,190,45,24,44,259,193
85,103,231,45,25,44,278,199
84,99,202,37,24,41,222,190
81,97,204,36,24,38,231,167
81,86,200,33,24,35,249,149
68,90,208,36,27,36,248,159
52,72,188,34,28,34,257,167
52,75,208,38,31,54,348,162
51,79,208,37,30,53,345,160
51,75,200,37,30,53,327,158
48,67,194,35,29,59,349,160
48,63,168,32,29,62,351,137
50,69,181,32,29,47,268,139
59,65,190,33,28,50,265,147
55,68,184,33,28,51,264,146
53,70,193,33,27,45,247,140
63,82,212,33,27,49,370,220
71,72,179,31,25,49,381,215
69,87,190,30,26,46,377,207
72,93,192,27,25,48,395,213
80,93,178,25,25,47,391,206
80,87,186,27,27,43,293,198
77,86,186,28,27,53,300,233
74,69,164,30,28,53,295,240
72,58,160,31,28,51,268,241
67,63,165,32,28,56,296,262
60,58,142,29,25,58,273,227
51,70,161,30,28,49,234,187
52,88,201,31,27,50,234,184
51,85,194,29,26,51,239,176
48,88,214,31,28,45,190,143
44,85,202,31,28,46,197,143
47,105,226,32,25,46,210,141
45,95,193,31,26,46,211,176
49,107,201,33,26,49,240,193
50,110,212,34,26,55,291,238
55,112,213,35,26,49,270,231
54,103,199,34,26,46,254,235
57,111,220,35,26,48,264,212
58,107,216,33,28,46,265,211
55,97,193,37,31,41,231,177
50,98,220,39,30,42,218,174
49,81,197,39,30,42,210,180
58,73,170,38,31,39,216,172
58,65,167,40,31,41,217,178
59,63,152,33,26,38,259,200
64,72,109,30,28,40,279,269
69,79,134,30,27,43,282,265
58,74,125,27,26,44,279,275
55,98,200,37,25,42,262,282
63,105,213,39,26,42,226,258
61,101,210,38,26,42,223,178
58,93,190,38,25,42,273,195
62,97,217,38,25,41,278,216
62,81,151,29,25,42,269,190
55,75,147,33,27,46,250,192
57,68,150,34,26,46,261,197
64,70,151,32,26,42,225,181
71,73,117,33,27,44,228,218
68,65,135,36,30,44,244,232
68,61,120,31,29,45,276,232
67,64,117,32,29,46,281,247
56,80,167,35,31,48,274,244
51,92,193,36,31,49,261,203
50,93,186,34,29,52,278,197
52,96,189,36,31,51,283,207
50,95,191,34,32,48,267,217
50,82,169,32,29,49,256,221
47,70,140,30,28,48,251,197
47,71,145,29,29,50,236,202
44,77,182,28,28,58,206,211
44,79,186,29,27,59,229,179
46,78,170,27,29,59,238,205
44,74,174,28,30,60,251,221
44,71,182,30,29,56,425,220
45,62,142,30,28,43,422,203
44,64,159,32,30,43,411,209
40,72,185,37,30,41,409,177
55,73,178,35,30,47,456,174
58,72,163,35,28,50,348,161
60,70,161,33,28,51,348,156
62,87,145,31,25,50,339,150
72,109,153,34,27,55,359,161
76,105,150,35,27,47,300,170
75,116,163,36,28,42,239,174
74,119,188,37,29,47,230,216
76,108,194,38,29,56,225,233
68,79,159,32,27,53,207,229
53,90,181,32,26,53,188,224
51,104,228,40,26,55,185,232
52,100,209,39,25,53,236,208
59,106,210,41,27,42,247,198
59,118,246,43,27,40,240,197
58,108,229,43,27,42,235,177
73,87,189,32,26,46,363,182
75,100,246,35,31,51,391,165
71,92,242,32,29,54,390,161
72,78,210,26,29,52,391,161
83,86,224,28,28,52,407,171
72,88,212,29,28,46,294,181
68,75,142,24,22,39,224,197
74,78,143,25,24,36,218,217
73,81,159,27,23,37,206,216
59,85,166,26,26,35,188,209
61,98,201,28,28,34,184,181
65,108,221,30,28,31,173,171
64,105,215,30,30,32,165,133
66,100,209,29,31,39,203,162
68,92,196,33,30,41,197,183
70,87,155,32,31,45,236,195
69,102,252,36,31,47,237,193
60,104,259,37,31,48,242,191
60,107,256,39,30,49,228,163
63,105,254,38,29,51,238,171
60,96,273,37,25,47,198,165
58,67,164,32,26,45,188,184
60,75,173,34,24,44,218,182
55,77,187,34,26,46,260,192
53,79,196,32,27,51,257,175
55,81,169,31,31,57,251,164
60,83,170,30,31,61,257,139
62,87,203,29,34,64,266,143
64,86,191,32,35,61,233,138
71,88,185,32,33,55,221,176
72,92,205,32,31,50,232,180
69,93,208,35,30,50,290,191
69,86,188,33,28,50,285,208
71,89,208,30,24,44,283,220
67,97,218,32,25,40,281,196
71,92,206,34,28,42,298,227
70,87,217,33,29,39,240,224
77,85,207,36,28,36,232,209
83,89,190,35,27,39,221,219
76,82,190,34,29,43,237,206
70,85,223,34,27,40,219,167
74,85,210,33,24,39,221,153
65,81,191,29,24,45,188,146
70,105,248,40,28,46,180,106
72,103,238,40,28,46,181,128
70,99,205,38,26,46,168,161
65,115,252,42,28,46,170,154
62,115,260,44,28,41,167,159
48,84,201,34,26,41,205,168
49,97,248,37,24,38,178,151
54,101,264,39,26,37,185,143
55,87,234,35,27,38,191,166
60,96,252,35,29,44,221,165
57,97,250,35,31,43,218,154
61,82,208,31,33,45,284,175
61,93,260,34,34,49,284,157
58,92,259,34,32,49,281,166
57,79,232,34,30,42,263,180
62,104,277,38,28,44,263,196
56,106,276,37,26,45,225,192
57,98,222,34,24,40,232,196
67,111,259,38,27,38,239,177
64,112,263,35,27,41,245,173
59,90,215,34,29,46,244,156
70,105,248,38,31,45,212,135
74,107,234,37,30,47,201,151
72,94,177,32,29,48,205,157
79,100,179,33,28,51,234,194
85,100,196,33,26,44,212,200
81,98,147,28,24,42,212,211
73,93,181,28,25,41,263,200
73,96,184,28,27,42,266,196
66,98,200,30,27,37,236,170
66,106,187,28,27,39,231,175
59,97,195,27,27,40,236,169
64,93,204,31,28,46,202,177
62,90,209,32,25,50,228,190
60,82,201,32,26,51,233,167
67,91,219,33,26,51,226,167
75,84,214,33,27,52,259,194
75,86,177,28,26,49,258,185
72,97,212,28,28,44,216,172
81,102,213,24,27,43,199,188
73,86,200,24,28,47,220,174
68,93,215,26,28,45,184,138
65,86,210,26,28,44,194,155
65,96,249,35,26,42,195,153
63,98,246,35,27,44,219,139
62,96,235,34,25,51,265,147
57,113,277,36,27,50,282,152
61,117,278,36,25,48,258,129
64,108,225,31,25,49,257,128
69,112,232,31,27,49,271,140
66,116,251,34,29,46,218,128
66,97,187,32,29,53,198,135
60,103,209,34,29,52,221,133
57,112,224,37,29,53,252,132
40,103,221,39,30,53,220,129
46,100,202,36,31,54,248,146
48,100,195,35,29,53,257,148
48,95,228,38,30,55,277,205
47,74,211,33,30,55,275,206
53,68,202,32,28,55,291,206
50,87,227,35,24,44,261,192
50,87,229,36,25,36,244,193
58,85,167,32,23,34,246,134
118,83,148,30,21,34,225,144
121,89,151,31,24,35,219,144
133,91,157,31,25,39,234,163
143,105,197,36,27,46,300,166
148,110,207,35,27,45,278,172
122,114,205,36,28,46,277,196
116,112,215,37,26,43,264,196
104,111,189,35,28,43,252,191
90,113,227,36,28,45,225,185
77,108,231,37,29,46,221,180
51,102,237,36,29,44,210,154
63,109,252,37,31,49,229,148
66,96,250,36,29,49,265,143
75,75,179,31,29,43,304,141
76,84,206,32,29,47,342,157
75,91,198,34,30,46,351,153
75,83,156,32,30,46,339,213
75,77,160,31,30,44,322,210
65,80,225,36,29,42,252,210
68,78,214,35,29,46,238,225
72,77,228,34,27,49,235,229
76,78,247,35,26,47,260,173
71,91,255,38,29,50,284,193
73,99,206,31,29,54,301,189
89,99,203,30,29,50,282,158
86,102,249,42,32,48,277,187
87,102,230,41,33,49,295,193
86,89,216,39,31,52,283,176
86,78,216,39,29,47,259,197
71,75,209,39,30,43,232,197
69,70,132,28,29,45,242,159
52,63,137,29,30,44,202,175
54,67,140,31,29,44,184,192
54,66,141,34,29,44,182,178
46,58,118,34,28,45,179,173
52,89,169,37,31,46,204,180
60,95,183,38,29,46,212,175
61,110,219,37,30,40,277,164
65,111,214,35,30,41,288,171
70,114,215,37,30,41,294,176
68,105,248,34,27,41,273,173
59,103,240,32,26,38,260,166
66,89,229,32,26,38,186,150
62,89,250,33,26,37,164,180
74,92,256,32,27,38,165,193
76,73,188,30,25,37,224,196
87,80,185,34,25,39,243,198
81,75,155,32,24,38,240,213
85,83,145,31,26,38,242,177
74,78,134,29,23,41,262,171
89,78,148,30,25,47,280,230
79,75,155,30,29,49,284,229
87,79,157,31,31,52,297,226
84,68,127,32,31,55,303,221
82,64,126,31,32,52,314,219
63,65,156,34,33,46,255,152
77,67,151,29,30,48,248,165
70,66,162,29,31,42,224,165
68,84,208,34,30,43,247,185
68,91,210,34,32,43,265,208
70,103,241,38,32,43,271,206
68,111,247,39,30,36,263,194
67,109,251,41,30,40,276,215
67,102,246,39,29,38,251,211
70,101,247,41,27,41,271,193
68,92,208,32,26,41,255,193
69,77,196,32,28,47,268,194
68,80,204,34,27,48,269,161
70,74,181,33,26,46,275,162
66,70,175,32,27,49,249,163
66,61,148,32,26,61,293,165
55,68,196,35,25,65,290,171
57,71,203,32,27,62,287,240
53,78,207,32,28,63,294,232
52,81,212,32,27,62,290,224
48,79,212,33,25,49,286,228
52,83,167,32,28,41,279,240
55,102,190,35,25,46,286,169
54,93,173,34,25,48,310,188
55,89,174,33,25,49,288,187
64,91,180,32,28,55,259,173
62,97,181,33,29,57,288,150
58,76,126,28,29,56,281,164
61,94,231,35,28,55,232,141
60,93,232,35,28,52,209,154
52,95,230,35,27,46,201,163
50,81,237,34,26,44,163,161
52,81,230,33,25,41,163,158
45,69,148,27,27,39,175,162
46,68,138,27,27,37,194,172
50,67,132,28,26,33,203,168
53,66,138,31,26,33,216,170
56,65,137,30,27,35,223,166
57,63,146,33,25,38,248,163
61,69,154,33,26,53,248,165
57,67,155,32,28,53,244,161
52,82,213,30,28,52,247,159
47,88,255,37,28,52,240,146
53,92,243,34,30,52,212,173
49,93,242,35,29,39,194,155
48,94,246,35,28,43,205,161
45,81,196,34,26,46,182,154
49,72,143,27,27,44,170,158
50,58,130,26,25,44,166,126
51,69,163,32,27,42,213,177
56,86,178,35,26,42,214,194
58,83,166,36,25,38,204,200
57,87,192,38,25,46,206,206
53,93,204,38,25,48,250,216
52,87,188,33,24,49,229,168
47,73,181,31,28,51,209,142
57,75,179,29,28,50,212,162
60,72,170,26,26,47,248,154
57,70,158,27,26,49,227,181
56,61,141,27,26,48,225,181
55,58,122,26,22,44,235,190
49,54,121,25,25,49,227,168
41,49,111,26,26,52,222,180
44,50,138,25,27,49,259,172
45,49,148,28,30,56,257,179
42,55,187,28,30,55,263,197
36,57,193,31,27,53,293,203
36,62,199,30,26,46,266,198
33,61,179,29,28,45,211,211
40,60,170,28,25,43,246,210
45,68,194,28,27,44,261,184
46,65,190,25,27,46,234,195
46,67,207,31,28,47,237,191
45,67,218,32,26,48,249,141
48,75,230,32,27,47,218,157
50,65,187,33,26,49,212,163
49,64,184,32,29,52,242,147
48,58,146,26,30,55,236,147
49,54,148,27,29,54,244,151
40,45,138,27,28,52,261,177
37,56,139,27,28,50,237,177
41,63,159,28,26,45,199,167
43,62,155,28,24,43,226,192
43,60,132,26,24,40,220,188
43,58,123,25,24,39,201,159
42,48,113,26,26,47,204,149
39,46,111,30,27,46,207,154
44,48,108,30,26,45,179,146
43,49,110,30,26,44,153,155
44,48,107,31,26,41,116,136
42,43,95,28,23,29,94,131
39,36,53,24,21,27,82,124
41,34,48,23,21,26,72,80
40,32,34,22,21,26,56,49
35,31,31,20,21,24,63,40
37,30,29,19,22,30,135,46
46,29,24,19,21,30,147,49
43,28,25,21,22,31,149,49
45,27,28,21,21,39,156,64
48,28,27,24,25,50,169,63
70,57,34,27,25,57,185,73
76,57,35,28,27,60,184,104
77,58,35,28,26,62,190,121
79,58,34,28,27,65,223,126
79,58,34,26,25,62,223,132
63,31,25,23,26,63,246,139
51,37,61,22,25,61,246,145
48,42,88,27,27,61,244,133
55,52,97,29,29,57,224,143
56,71,150,30,28,56,252,154
57,91,201,40,29,44,202,148
58,90,197,39,28,43,199,125
57,90,194,36,27,47,226,136
46,85,193,35,26,50,227,143
44,78,162,36,27,56,199,140
41,72,141,28,26,71,188,143
40,81,172,29,26,72,189,141
44,85,175,30,27,71,162,159
50,93,190,32,27,68,153,146
51,89,198,30,31,63,143,134
50,79,188,29,31,48,153,140
55,85,178,31,35,49,177,149
53,88,195,30,36,48,183,123
50,88,189,30,37,47,194,115
53,89,183,31,34,49,185,122
51,90,175,32,35,47,182,130
45,82,163,30,32,51,157,122
49,77,149,29,29,50,158,121
46,77,171,29,28,54,139,126
40,76,180,28,27,50,156,122
49,77,180,31,28,56,161,111
58,83,207,39,27,63,209,138
56,79,195,42,28,64,214,161
58,73,176,40,27,60,218,152
59,74,176,42,28,63,218,154
58,74,167,40,29,65,234,157
49,68,144,34,30,56,214,132
48,79,180,30,29,56,204,107
48,85,183,33,33,57,208,105
47,87,194,32,31,54,200,107
49,89,208,33,29,47,169,103
53,84,200,31,30,44,160,112
54,80,184,32,32,46,199,158
53,81,205,32,30,42,187,169
54,74,184,30,33,43,181,167
50,76,182,30,34,50,184,168
46,75,191,31,33,49,168,176
45,70,180,31,32,45,156,143
45,60,166,28,31,48,206,142
52,65,175,31,27,49,212,139
48,53,157,32,30,40,208,155
47,82,216,39,31,39,218,145
52,85,218,39,32,43,277,151
51,85,204,39,33,54,270,160
43,83,205,40,34,56,271,157
42,89,219,40,30,59,280,139
45,64,148,34,29,60,283,139
38,71,193,36,29,62,223,138
38,71,193,35,31,54,208,119
36,68,182,35,31,52,208,127
46,73,183,37,32,53,208,131
45,73,193,35,33,53,221,141
45,66,160,44,33,50,212,127
45,86,204,46,31,47,202,130
45,87,206,45,30,51,193,134
40,78,193,42,29,50,199,151
45,80,193,42,29,50,177,148
45,80,181,30,26,47,166,157
47,59,128,28,27,51,157,165
50,55,127,26,27,46,160,170
49,53,121,26,29,57,165,146
46,73,184,35,31,64,163,166
49,72,191,38,30,65,156,160
53,78,216,42,33,62,153,156
59,82,215,42,33,69,174,173
60,85,216,42,30,60,215,189
58,67,160,33,27,56,214,176
58,78,177,39,27,56,223,178
56,70,142,34,24,56,228,181
48,72,157,39,26,49,225,154
46,76,188,40,27,53,165,159
45,77,187,41,27,53,166,164
44,79,173,34,28,54,154,169
39,81,173,33,26,53,160,175
39,78,190,28,24,57,184,192
38,78,187,27,25,48,210,183
40,76,188,25,25,47,211,173
38,61,188,25,24,44,219,166
42,60,190,25,24,49,222,168
42,59,166,27,25,47,195,148
45,63,169,31,27,48,179,149
45,66,178,36,29,46,190,144
46,63,159,34,29,52,226,175
44,60,156,36,32,51,215,176
46,62,151,35,30,53,214,180
46,65,175,38,31,51,201,189
45,60,157,34,30,64,221,194
47,63,166,36,32,64,179,175
47,66,169,34,31,60,197,192
51,66,191,34,32,57,193,194
49,59,154,28,28,57,189,176
52,60,158,28,28,50,160,176
54,66,186,27,26,47,279,202
59,66,187,30,26,49,299,182
53,64,172,32,26,48,298,182
57,92,209,34,25,47,308,218
61,94,207,36,25,46,311,247
59,91,191,37,24,45,218,216
63,102,223,36,26,51,166,212
63,104,225,39,25,54,168,215
63,86,190,39,27,59,194,189
60,92,216,42,27,58,184,151
59,89,210,40,30,63,211,168
47,82,178,41,29,58,219,163
48,81,179,37,30,56,227,159
45,74,192,32,30,53,195,175
44,65,163,31,30,51,185,189
44,66,160,31,29,48,190,185
46,69,197,31,27,51,202,192
43,72,192,33,28,51,194,183
41,66,165,34,27,50,194,172
50,63,160,31,29,52,215,146
49,66,179,30,29,47,177,158
50,71,165,35,32,44,158,181
52,67,165,33,32,44,170,188
55,73,178,34,32,46,179,182
45,74,180,34,30,43,177,197
51,71,161,34,31,54,229,217
49,71,201,29,28,53,239,197
47,74,208,30,29,54,236,195
45,70,201,28,28,50,233,206
53,72,215,30,31,57,229,208
53,75,222,33,33,50,179,176
52,74,183,38,34,52,188,185
54,68,172,38,33,50,187,179
56,70,177,39,34,58,234,165
49,70,165,38,32,53,265,153
41,65,157,36,30,52,263,140
43,61,145,28,27,49,253,125
43,64,147,28,27,51,247,136
38,59,131,25,27,47,237,172
38,68,182,30,27,47,197,170
44,75,196,32,29,44,201,182
45,65,182,33,30,47,200,195
45,64,192,33,30,45,232,196
50,66,197,35,30,42,229,173
54,62,171,34,29,43,233,174
51,58,156,31,26,45,231,174
53,59,154,29,27,42,289,156
53,60,149,28,28,43,313,163
53,62,145,34,28,43,289,162
47,65,172,36,26,40,275,159
45,62,170,35,27,40,286,154
44,61,170,35,27,41,262,173
43,72,201,35,27,43,218,181
37,68,202,28,25,42,217,163
39,61,157,23,29,41,222,159
48,62,154,27,32,48,246,172
45,63,158,28,32,51,251,152
49,61,121,28,31,47,240,159
48,65,114,29,33,49,243,158
46,67,132,27,30,47,245,187
37,66,145,25,27,42,218,172
38,63,138,24,26,37,244,179
34,51,122,23,26,38,320,211
35,59,156,25,25,35,330,220
35,60,180,27,24,34,330,197
35,61,174,27,25,36,331,195
47,68,180,31,28,41,422,266
45,69,181,31,29,40,385,229
45,61,163,29,28,41,386,227
46,63,134,30,30,44,398,230
49,62,168,33,29,40,391,242
39,58,187,31,28,39,227,150
40,62,195,32,29,40,192,146
42,59,196,33,30,43,193,165
44,72,222,38,31,48,213,176
45,79,219,39,32,54,255,166
43,80,207,38,32,57,267,176
43,78,202,38,30,58,267,177
43,80,199,38,30,61,257,160
41,70,177,33,28,57,258,154
43,65,176,31,27,52,229,178
43,73,198,31,24,45,211,166
43,71,197,30,26,46,218,159
43,70,193,30,27,45,253,165
45,61,174,26,26,44,221,203
38,70,198,35,27,49,216,175
39,61,181,37,29,50,221,182
52,68,202,42,30,49,240,199
55,77,229,47,29,48,238,209
53,77,230,48,31,59,255,165
57,66,184,41,30,54,251,189
60,67,178,38,30,58,266,190
50,70,177,38,31,58,254,175
45,65,149,33,33,55,232,149
48,68,173,34,33,50,205,189
43,65,173,33,34,48,202,172
43,62,161,34,33,45,205,198
44,49,132,27,31,52,213,219
47,48,150,29,29,53,224,230
43,45,118,26,27,50,227,201
43,49,112,26,26,52,224,203
42,52,123,28,28,56,224,199
44,53,138,28,27,61,300,180
48,54,128,31,28,58,283,209
48,58,136,30,30,57,282,207
62,58,136,31,32,62,303,225
60,56,129,31,31,61,297,203
60,59,127,35,30,51,256,198
72,56,135,31,29,52,254,181
75,51,134,31,28,54,261,182
69,48,144,34,28,53,248,156
70,55,155,35,28,51,269,164
70,50,141,30,29,53,255,178
61,61,173,30,31,52,253,202
73,62,173,30,32,50,246,202
68,64,175,28,30,57,236,224
72,59,165,25,30,56,191,224
70,59,168,26,32,54,147,212
65,48,116,24,30,58,167,173
49,57,125,25,31,64,166,188
56,64,125,26,32,60,194,161
49,68,173,30,35,60,193,154
51,69,176,30,33,59,222,187
49,66,167,34,33,55,209,197
58,60,158,34,32,58,210,192
51,55,153,34,28,51,174,193
57,50,95,30,26,57,214,210
57,50,89,30,26,63,236,208
56,66,149,28,26,66,257,189
48,65,154,27,27,63,253,186
57,63,149,26,29,64,261,184
54,66,157,29,29,60,244,180
52,67,167,28,28,52,194,158
53,51,119,27,28,53,160,158
52,55,115,28,28,44,161,148
51,60,139,31,26,43,164,174
47,63,153,30,27,43,157,194
48,62,146,31,28,43,163,185
52,61,143,30,27,43,176,191
55,67,162,33,26,46,199,192
50,77,180,33,27,48,214,185
52,71,163,32,27,46,223,162
55,72,170,33,26,48,226,184
53,74,174,34,26,44,219,184
49,64,152,30,27,45,197,186
53,45,111,30,30,42,224,176
53,62,164,32,31,44,240,163
57,59,157,30,31,45,238,146
55,65,175,32,30,48,249,182
63,67,179,34,31,46,257,187
58,64,174,33,28,49,235,190
57,54,123,30,26,49,209,203
51,61,147,32,26,47,194,203
51,51,124,30,27,44,194,174
51,51,120,27,25,44,278,184
54,51,120,27,26,45,283,205
59,51,130,27,25,48,273,187
58,41,94,24,23,47,281,181
62,51,121,25,24,51,276,203
67,57,148,28,28,58,189,204
62,60,151,28,30,66,155,178
68,56,140,26,30,62,159,185
68,60,145,27,30,65,155,184
64,63,146,28,29,62,160,178
58,66,134,23,27,57,162,155
59,65,133,24,26,47,182,154
47,76,218,33,25,45,204,156
49,75,223,35,28,43,201,178
51,70,215,36,28,39,192,157
40,66,207,36,27,39,214,175
46,68,208,35,25,37,223,181
50,57,137,29,26,42,215,187
49,59,142,27,25,45,219,170
54,59,147,30,25,53,246,175
57,53,145,30,25,57,228,175
53,59,163,32,25,57,227,173
57,61,171,39,28,57,229,168
56,58,159,37,28,60,253,209
51,55,152,34,30,61,261,205
46,56,150,36,30,59,259,188
56,51,167,37,32,61,250,182
50,58,169,31,31,59,241,206
49,63,173,31,31,61,216,172
45,62,166,31,31,58,172,163
48,65,170,30,30,59,173,176
41,75,197,32,32,57,183,183
41,65,177,30,28,61,201,155
41,59,170,30,27,55,204,152
47,62,170,29,26,51,199,177
48,61,176,32,29,47,191,181
45,50,112,27,27,48,166,176
45,51,106,27,28,58,203,170
45,58,112,30,28,56,205,194
47,61,122,32,27,54,204,172
43,58,112,30,27,57,216,157
40,59,137,30,27,66,268,185
43,67,161,33,27,51,235,203
45,65,161,29,27,50,234,181
52,65,153,29,27,53,236,180
54,68,172,27,27,52,229,189
56,70,161,31,26,51,212,166
53,65,153,28,26,52,210,146
55,60,153,29,27,54,200,155
49,64,189,30,26,56,195,171
55,74,202,30,27,64,237,171
56,72,206,26,27,56,194,170
56,68,194,27,26,56,182,183
56,72,197,27,26,54,186,191
51,67,175,32,27,56,215,178
50,50,139,30,25,52,206,173
52,52,109,30,26,53,210,183
54,63,142,32,27,51,209,203
52,64,151,32,29,59,274,195
56,66,148,28,29,61,269,215
53,66,147,29,29,56,233,209
47,61,145,30,29,53,226,191
50,93,243,34,29,56,245,170
51,95,246,34,27,60,213,163
52,95,252,34,27,52,201,173
56,96,252,34,26,49,222,205
58,109,279,35,24,51,222,204
53,78,194,30,25,48,219,202
60,79,192,29,24,34,197,202
56,75,181,28,24,35,195,193
54,82,194,30,27,38,181,171
55,67,158,29,27,38,189,177
60,66,143,29,25,41,188,195
51,62,134,29,29,44,192,188
49,81,181,29,29,43,200,173
49,75,176,30,28,47,207,166
53,77,179,30,34,48,202,170
50,84,202,30,34,45,188,132
50,80,195,31,30,47,178,149
54,65,158,32,32,50,180,157
55,63,148,30,32,46,175,173
59,69,197,33,29,43,190,170
63,59,170,35,29,43,197,174
66,65,173,35,31,44,186,163
68,66,169,32,29,47,164,192
73,69,175,35,29,47,159,172
65,68,153,32,26,48,146,167
59,70,155,29,26,54,183,201
57,67,151,28,26,52,206,202
55,65,151,30,27,50,218,160
47,67,159,29,26,49,232,170
48,74,166,28,27,51,254,201
54,74,170,29,27,48,225,184
60,76,172,28,28,51,216,190
61,78,166,28,30,50,212,193
60,70,148,27,31,50,195,181
58,54,99,23,28,49,157,141
53,67,129,28,29,53,182,139
46,76,162,30,26,52,258,129
37,79,178,32,24,49,273,126
38,86,205,32,25,50,271,130
41,86,203,32,28,48,275,201
46,81,199,30,28,43,294,208
52,70,172,26,28,44,228,213
55,63,153,24,29,42,209,230
55,57,120,24,27,40,207,229
51,60,127,28,27,44,215,177
49,51,97,27,27,45,190,186
47,66,118,33,29,43,179,200
44,86,170,34,30,48,178,181
45,87,170,36,31,48,183,184
48,83,159,34,31,44,177,208
51,85,162,34,30,45,146,213
47,71,144,29,30,40,139,193
54,53,109,26,27,46,134,194
57,71,154,30,30,49,229,208
59,86,184,32,31,54,281,224
56,85,186,33,32,52,302,192
60,85,186,33,31,53,301,191
58,86,197,36,33,50,305,190
62,80,179,35,32,58,253,183
61,65,154,34,28,55,187,138
60,67,156,35,28,55,154,128
54,69,157,35,29,58,164,172
62,87,217,38,27,59,200,187
59,79,208,36,27,52,222,198
57,82,226,36,29,56,228,194
65,82,223,34,28,59,238,210
66,86,229,35,29,56,244,175
59,59,142,28,29,57,249,169
62,56,131,26,27,56,237,161
66,76,176,31,29,54,246,162
62,75,180,32,30,55,231,176
61,73,186,34,29,55,216,198
61,74,184,34,28,51,194,200
57,78,189,34,29,54,191,214
55,62,146,30,26,51,178,234
54,64,160,31,25,45,176,211
54,62,146,27,24,48,192,192
60,69,158,29,28,53,166,210
56,65,153,28,27,50,143,201
52,76,179,36,29,50,135,175
50,74,164,35,29,52,158,175
55,75,178,37,32,58,197,199
56,73,172,37,31,55,214,181
56,77,173,38,31,55,208,171
58,60,119,28,30,54,212,178
56,63,151,29,30,53,205,182
55,66,150,31,29,52,193,164
44,62,149,29,27,51,186,152
44,69,168,33,26,51,187,153
44,77,213,34,29,54,204,163
49,76,190,33,28,58,224,175
54,70,177,30,29,54,204,171
54,68,175,31,28,53,195,169
54,61,169,29,30,52,201,165
53,50,103,27,28,54,199,144
59,50,103,28,30,54,193,128
50,56,113,29,28,51,188,139
52,57,110,26,28,50,206,158
57,61,90,25,26,49,202,148
65,64,89,23,27,53,212,147
56,61,78,22,25,57,195,151
61,54,56,21,29,58,192,153
64,54,81,22,31,63,169,136
61,50,114,21,32,67,210,149
57,49,130,22,31,62,179,156
67,61,138,28,33,57,178,186
63,60,140,28,30,55,165,169
65,59,129,29,28,50,184,171
64,55,97,30,28,48,153,172
63,58,75,30,31,52,168,186
58,49,75,27,30,51,193,177
64,51,72,27,30,52,198,191
58,55,99,26,29,52,183,189
59,55,98,25,30,52,171,182
56,50,102,25,27,49,164,201
49,48,93,24,27,48,147,176
54,58,104,24,26,53,149,164
51,75,122,25,31,56,164,187
52,74,124,26,29,54,180,240
51,74,126,26,32,55,184,206
50,74,128,26,31,57,180,216
49,72,131,27,32,57,187,239
55,54,92,26,28,57,189,229
59,57,100,25,30,60,176,172
60,74,147,29,28,59,167,179
67,74,146,28,28,54,147,195
58,75,144,28,26,49,170,168
60,74,146,28,26,50,156,167
60,74,139,29,25,45,168,191
59,56,82,22,26,50,168,190
53,99,219,31,28,59,182,163
54,104,232,35,33,58,167,157
59,115,246,37,34,57,179,204
53,117,248,37,34,56,172,190
54,117,251,37,33,54,185,191
54,87,157,31,32,52,190,236
57,108,256,37,31,50,185,252
51,96,249,36,30,47,169,209
58,92,253,36,30,55,166,211
62,104,274,38,30,51,166,213
64,102,270,37,30,53,193,176
67,70,160,26,28,55,184,157
63,70,150,25,27,58,193,190
60,83,209,32,28,54,188,182
54,70,190,35,29,57,192,185
51,83,209,42,30,52,176,183
56,98,236,44,29,51,177,199
60,105,245,46,31,51,168,171
58,99,198,42,32,55,227,166
63,106,213,41,31,51,217,164
66,102,207,35,29,51,207,145
62,101,233,33,30,54,207,133
60,97,230,32,30,57,234,151
61,94,225,32,26,55,205,154
57,84,211,28,25,60,210,150
55,80,199,29,28,60,208,199
50,92,197,36,27,61,219,196
55,90,193,35,27,56,212,182
55,94,201,35,29,53,219,200
62,92,186,34,29,48,209,207
61,108,212,35,28,55,203,169
61,84,147,28,28,50,197,195
57,82,149,30,28,56,186,203
58,82,134,31,28,57,183,184
61,83,133,31,29,61,185,171
58,64,102,28,27,58,186,180
61,64,102,29,28,59,200,182
58,76,140,31,30,54,200,165
62,73,145,31,29,53,171,164
51,72,147,32,29,50,174,204
61,72,157,32,30,50,191,214
59,78,209,34,31,56,195,195
73,73,203,32,29,61,217,202
71,74,212,33,29,64,214,230
70,75,220,33,28,63,221,199
63,79,228,35,28,58,222,184
63,72,193,32,24,50,205,185
56,68,171,31,27,49,175,189
54,68,160,30,28,52,210,178
55,86,235,34,29,55,212,202
55,78,215,32,28,56,202,204
55,80,205,32,30,60,198,205
50,78,207,33,29,59,209,206
50,81,224,33,30,52,175,206
50,61,142,30,30,50,162,179
53,63,158,31,29,49,141,175
51,69,166,30,27,44,128,176
49,70,177,31,26,44,125,179
63,63,152,31,22,44,156,173
64,65,149,30,24,41,156,175
65,67,154,32,28,42,159,181
66,58,145,31,28,54,169,165
65,58,133,30,30,56,187,156
54,67,149,29,30,54,176,143
56,69,149,29,29,54,188,157
54,65,122,24,27,57,192,162
52,77,178,28,27,49,194,171
71,79,172,27,27,51,182,190
66,76,158,28,26,52,163,190
75,104,183,34,27,50,149,171
87,127,213,47,34,44,145,160
118,146,176,87,56,40,141,151
111,149,188,110,66,32,103,109
115,166,293,123,75,34,104,91
117,168,281,130,78,37,116,88
125,157,269,135,79,38,149,70
106,145,300,117,67,38,174,58
127,155,304,98,56,37,204,58
129,138,209,82,46,33,211,76
134,137,267,70,41,32,255,118
145,131,269,56,36,35,273,130
140,127,233,46,35,43,257,128
127,119,236,46,37,45,254,193
129,121,234,47,33,48,248,212
117,142,205,43,32,50,207,204
85,149,208,46,30,57,190,200
93,158,214,48,29,55,202,205
91,157,214,47,27,53,183,149
86,156,216,47,28,52,205,141
97,119,170,44,29,55,221,131
99,131,179,40,28,48,213,125
101,135,170,36,28,46,206,118
106,136,148,35,27,49,266,121
120,142,182,38,33,54,262,83
114,144,192,40,31,51,238,77
112,130,178,35,32,50,253,79
113,109,202,36,32,46,250,78
113,110,204,36,32,49,215,71
100,130,193,36,28,45,212,73
114,135,214,35,28,46,239,78
115,129,200,34,28,46,206,74
125,134,171,33,28,47,207,81
117,132,193,32,28,46,173,76
113,99,178,28,25,43,162,74
110,103,177,33,27,40,132,59
118,120,185,34,26,40,159,71
112,113,186,33,25,42,179,92
109,104,171,31,24,38,191,92
111,111,176,32,26,38,189,94
97,98,152,29,26,45,221,98
99,85,158,29,27,51,205,87
96,102,159,29,27,51,228,81
105,110,158,28,29,50,221,99
103,114,170,28,28,54,275,109
102,117,161,24,26,50,277,113
91,115,184,26,25,45,292,117
80,111,196,27,24,44,265,106
76,107,205,32,23,44,267,89
78,108,200,33,24,51,227,77
84,104,203,34,26,47,207,64
86,110,220,34,26,46,184,60
90,107,220,35,26,46,168,117
84,106,222,37,26,48,217,129
84,92,206,34,26,37,293,150
83,93,208,36,26,37,291,159
82,83,168,34,27,34,297,164
80,74,172,37,28,32,308,131
82,72,152,34,29,37,336,136
88,95,189,38,31,37,262,138
91,108,177,37,30,40,261,133
89,107,181,38,31,43,285,132
88,123,180,35,30,44,313,144
90,127,182,31,30,37,256,129
92,125,145,29,27,36,261,102
84,119,178,32,26,32,261,101
81,127,187,32,24,33,272,93
85,117,168,32,23,34,242,82
88,124,185,37,27,39,303,108
76,114,189,35,28,40,303,112
79,104,168,29,28,41,293,109
84,95,154,30,32,45,259,106
72,88,162,31,32,43,272,98
65,92,170,28,29,40,208,70
70,93,180,32,32,40,211,78
68,98,185,34,32,40,209,122
66,101,186,33,30,34,199,131
74,115,197,33,32,37,254,138
71,108,196,35,35,38,267,140
79,147,299,44,34,37,280,138
88,155,307,47,34,39,336,111
91,167,318,53,37,47,352,179
101,161,316,53,34,44,300,180
101,159,320,52,32,45,276,183
100,130,226,44,34,55,276,231
97,125,224,42,34,54,203,232
94,121,231,40,33,49,192,182
78,123,252,43,37,49,195,177
84,116,221,43,35,47,292,191
84,117,234,45,33,43,304,163
79,115,248,47,33,47,310,174
85,132,312,51,35,46,308,175
92,125,299,49,34,47,376,177
102,132,303,49,34,48,313,195
97,126,306,49,37,40,286,165
103,123,281,46,36,35,292,148
94,86,176,36,32,38,311,144
88,105,203,44,32,37,224,144
70,101,240,44,32,36,239,89
68,104,231,44,30,36,237,87
70,106,235,45,29,36,238,80
76,113,265,46,28,31,234,81
75,97,235,40,26,32,226,69
80,113,196,39,26,30,191,61
80,139,230,40,26,28,183,61
70,139,231,39,29,35,195,66
64,132,193,35,28,32,153,61
69,137,205,36,30,33,154,58
64,123,242,42,32,35,153,60
65,97,201,36,28,36,153,51
68,108,216,38,28,31,131,55
81,124,244,40,30,35,155,66
87,119,236,37,29,34,148,71
87,128,204,31,30,31,153,68
86,121,213,34,30,33,168,71
84,120,211,36,28,38,211,82
75,105,206,39,28,41,209,83
67,108,223,41,30,41,228,82
71,116,254,47,30,44,234,84
68,124,278,46,32,42,225,86
67,112,265,47,33,39,197,76
78,113,242,42,30,33,195,68
75,113,246,42,30,34,187,69
95,125,231,46,30,32,186,66
103,152,223,44,30,34,183,61
104,152,238,40,32,43,309,72
94,151,244,41,32,46,338,84
99,152,238,43,32,44,339,81
73,128,236,31,31,44,337,81
65,78,198,33,30,44,346,85
67,74,174,32,27,37,233,71
69,73,235,35,28,35,175,51
61,69,228,33,26,35,150,50
76,110,218,32,26,36,239,57
82,134,289,34,25,34,251,52
92,139,290,35,24,35,253,57
92,139,245,34,25,34,256,58
94,140,271,36,27,34,267,57
89,113,266,38,26,33,192,49
85,84,199,36,26,34,165,51
69,80,199,35,26,28,138,44
72,94,190,31,25,31,248,60
75,95,130,29,22,33,247,66
73,102,175,35,22,33,246,67
72,106,163,35,22,33,310,82
91,121,161,35,23,34,313,87
99,110,165,36,22,30,244,81
103,120,162,34,24,30,239,89
106,119,117,24,25,30,246,95
105,115,113,25,23,28,160,86
99,105,122,25,24,28,163,85
90,102,137,26,25,27,142,81
83,104,138,29,25,25,136,67
79,97,171,32,25,31,137,59
83,97,172,32,27,32,162,52
82,100,167,32,25,31,153,51
84,102,149,31,25,34,183,63
94,89,152,30,22,33,195,66
94,88,92,28,22,32,191,66
96,94,78,26,22,34,156,67
91,83,72,24,23,35,197,69
91,81,69,23,24,34,185,57
81,74,78,25,25,35,172,57
83,79,69,23,25,34,167,54
84,72,67,23,25,30,187,56
87,78,89,26,25,31,175,53
82,78,89,25,25,31,168,54
92,81,72,24,25,30,166,50
91,103,96,25,27,31,168,57
93,116,97,25,26,31,189,56
86,111,78,24,25,30,164,51
94,116,81,24,28,32,158,48
88,113,92,24,30,34,179,51
89,94,98,26,29,32,217,58
81,84,104,28,29,33,192,59
83,89,118,30,32,34,188,59
89,87,119,30,28,30,189,60
83,89,116,31,27,31,188,62
84,87,106,26,26,33,154,51
83,92,139,28,25,31,140,46
86,89,134,26,25,31,177,57
75,91,132,26,27,40,321,74
83,103,134,25,26,39,324,79
102,132,168,29,28,39,318,80
103,129,155,32,29,41,323,81
101,135,150,32,28,47,388,86
99,136,152,32,27,41,309,80
92,131,145,32,29,40,297,71
63,106,177,31,26,40,297,68
62,110,171,29,29,48,304,74
70,109,177,28,30,46,218,65
65,102,188,27,30,45,176,58
81,100,204,31,27,45,177,62
101,111,140,32,30,51,193,64
104,102,133,29,27,44,204,59
104,106,147,37,27,39,169,54
108,108,139,38,29,43,184,54
102,129,149,35,29,51,209,60
82,111,149,31,26,46,199,62
83,115,146,30,27,48,169,59
83,103,123,21,27,51,170,56
75,102,117,20,25,50,188,60
68,76,106,24,27,42,170,54
68,76,134,26,27,39,164,53
79,79,137,25,28,43,188,57
70,80,138,27,27,43,236,81
75,99,147,29,26,41,243,138
77,100,141,28,24,42,237,170
103,106,119,32,24,45,254,170
106,132,124,34,21,38,240,171
109,143,164,35,22,33,201,165
114,136,156,34,24,32,164,121
131,135,146,31,24,34,176,75
114,133,156,27,25,38,170,117
102,106,163,25,27,39,194,116
108,95,121,24,26,39,185,114
103,102,121,24,24,41,195,111
89,118,166,26,29,43,215,109
87,128,161,27,29,37,243,70
90,124,152,28,27,34,223,67
84,122,180,28,28,37,232,64
82,114,183,28,30,37,270,66
74,92,138,27,25,35,269,64
67,69,125,26,24,37,226,51
68,76,139,27,25,38,227,52
64,89,133,26,23,39,268,63
68,97,130,26,21,40,230,61
68,100,143,27,24,41,214,62
71,98,144,27,24,40,224,69
93,114,154,31,26,43,253,78
92,103,132,30,26,41,199,67
89,91,143,34,29,40,201,69
100,111,152,34,28,37,216,69
109,124,168,35,28,39,223,68
86,105,151,31,27,39,204,60
88,101,153,32,27,45,218,60
91,125,199,31,25,45,209,60
81,105,183,30,25,45,194,61
75,94,171,28,28,48,184,57
82,107,165,27,28,47,179,57
83,112,168,28,28,45,176,58
84,99,142,26,29,55,178,56
96,118,144,25,28,57,178,60
102,130,144,26,25,52,183,62
106,120,150,27,26,55,185,65
104,118,153,24,28,53,189,63
109,117,146,23,26,42,199,66
105,115,144,23,27,44,208,66
94,100,143,23,26,48,205,67
86,107,135,23,24,47,197,63
89,109,141,23,21,47,182,67
87,104,122,25,22,50,181,70
81,94,133,24,23,50,152,65
94,101,134,24,24,47,142,64
94,105,135,24,24,46,206,67
90,103,115,25,26,47,207,67
81,103,89,23,29,42,189,58
77,120,121,38,28,36,247,66
61,113,126,38,27,39,275,70
72,111,127,40,31,36,233,65
74,114,131,39,29,32,235,62
73,112,133,39,25,31,241,62
71,83,81,25,26,33,194,55
73,92,91,25,27,32,202,53
65,86,124,29,24,33,208,57
69,80,126,32,24,31,202,55
72,80,124,31,25,34,198,57
81,94,126,32,26,36,199,50
83,103,115,34,27,44,151,47
82,101,76,30,26,45,149,41
78,115,169,35,29,50,169,45
75,123,182,36,29,55,195,43
81,134,182,35,28,52,193,46
79,122,181,33,26,51,212,46
85,125,186,33,26,54,231,48
86,129,153,26,25,58,230,49
89,119,152,28,28,58,225,51
87,115,164,27,28,60,231,53
