214,188,234,125,65,90,106,127
173,190,244,116,69,103,129,128
206,168,233,107,66,110,142,166
221,181,273,122,73,122,159,163
221,186,282,126,84,143,201,158
236,191,317,129,82,143,204,164
249,195,323,125,83,144,195,165
230,199,323,128,96,174,255,170
230,199,317,134,99,181,275,184
229,194,314,140,95,167,243,174
201,149,223,125,97,171,257,179
190,150,214,134,106,189,336,181
189,155,263,144,98,168,346,155
184,147,237,129,94,160,335,141
172,137,239,126,89,152,340,144
209,144,275,131,91,166,334,159
210,143,271,120,81,159,280,160
257,138,221,104,74,152,210,166
278,134,231,115,79,149,211,174
377,146,218,118,92,157,205,211
414,148,152,107,82,130,202,234
450,160,151,113,100,154,238,240
495,180,154,122,111,167,264,243
502,224,147,122,104,162,252,235
435,221,144,131,94,155,249,198
405,211,145,132,95,154,237,150
394,208,141,142,78,104,158,140
301,187,143,185,75,75,99,117
289,132,142,184,85,78,98,117
297,144,168,171,86,83,128,126
294,141,164,172,89,90,161,141
275,123,166,171,92,117,178,141
308,133,165,139,90,116,173,136
319,127,141,136,81,111,167,129
328,124,104,139,85,113,147,125
336,125,101,140,83,104,105,107
355,159,93,133,72,71,94,116
352,163,89,109,65,64,95,117
352,178,91,108,69,69,107,140
347,171,78,105,57,53,104,138
312,169,74,99,55,53,106,124
325,159,88,95,55,49,92,113
293,157,111,125,82,66,97,135
261,145,111,126,81,58,82,110
275,130,113,138,82,61,76,118
333,173,172,190,93,61,72,122
293,157,171,191,94,65,75,118
309,158,162,193,81,53,87,99
380,161,161,200,89,65,105,111
394,170,166,189,93,75,136,119
412,162,142,143,84,82,151,136
414,170,151,146,85,86,165,137
416,164,147,118,78,91,166,155
403,169,149,94,66,84,157,151
396,183,151,103,66,86,156,155
397,172,123,93,71,97,162,150
409,175,103,86,71,96,158,155
428,176,102,87,69,89,147,136
390,191,115,117,75,102,167,135
398,189,111,117,68,91,143,114
342,176,113,130,62,72,119,97
338,164,118,140,64,74,110,100
316,176,117,143,65,81,135,106
308,165,106,126,59,63,115,104
282,142,101,125,61,62,116,113
287,140,96,121,61,64,120,123
269,149,94,124,58,64,122,114
250,132,88,121,58,64,114,118
274,127,96,168,64,66,118,138
285,142,90,171,63,65,117,135
274,141,89,162,62,64,118,134
267,132,87,153,57,58,113,135
305,144,90,152,60,64,112,139
321,161,92,131,59,66,104,123
316,151,92,133,57,66,103,123
317,150,91,136,59,66,98,126
357,150,85,140,66,61,92,127
340,138,94,153,63,48,76,110
297,111,86,125,55,39,69,106
273,123,90,121,58,39,70,103
294,138,95,130,59,40,75,90
241,170,108,158,67,42,77,86
257,172,101,146,67,45,74,108
255,166,96,146,67,44,74,110
266,162,92,146,71,46,70,113
255,158,89,142,73,52,68,113
266,142,79,119,67,53,64,114
306,150,74,130,64,60,85,129
332,186,80,143,79,76,103,132
357,201,81,146,74,77,108,139
348,197,88,151,78,76,106,138
365,203,87,140,72,74,106,144
310,197,86,130,71,65,89,124
291,175,78,126,58,64,100,121
251,155,76,128,68,72,105,105
268,156,68,127,64,71,108,108
245,127,67,137,64,72,113,100
243,136,72,139,70,78,115,83
267,124,80,156,68,65,89,82
261,153,76,164,57,54,75,84
252,155,74,162,49,49,67,86
233,169,73,163,49,51,73,87
226,164,74,172,40,40,59,89
185,159,71,151,41,39,57,84
186,134,99,139,65,65,86,106
166,132,104,151,73,67,87,107
201,134,109,139,74,65,79,104
206,136,110,137,77,67,84,119
209,134,110,135,75,67,84,121
251,175,92,132,55,44,58,104
267,174,97,118,48,42,66,97
247,158,92,149,63,51,68,97
239,153,86,144,68,54,70,77
256,163,89,148,73,58,76,83
247,129,85,144,71,55,72,82
233,132,74,150,75,65,85,85
242,148,72,134,65,60,89,91
237,152,76,130,60,62,97,95
254,159,75,127,57,71,119,107
217,143,73,142,64,72,122,104
227,166,77,132,64,66,115,108
223,167,85,133,64,65,112,102
235,182,97,140,68,73,119,103
189,173,91,138,67,63,95,84
189,178,95,146,68,64,91,88
181,162,93,155,67,66,94,92
175,146,90,153,77,68,87,96
203,139,70,141,76,55,66,90
205,142,71,141,77,56,62,94
219,154,71,116,73,60,80,104
226,152,70,106,70,60,88,108
227,157,73,117,63,58,92,112
247,149,92,128,62,59,93,114
266,149,91,125,61,57,93,112
276,153,88,122,59,55,83,107
279,153,86,124,63,57,74,101
291,160,77,147,65,55,73,99
249,154,66,165,61,51,72,93
229,149,66,176,64,49,72,95
206,123,66,181,64,47,67,98
222,130,66,184,57,39,58,109
234,135,68,155,46,36,53,105
235,133,65,142,47,40,54,111
243,137,75,135,47,43,70,121
261,153,90,142,51,40,74,120
240,143,101,155,53,39,72,116
231,139,108,152,60,45,78,123
222,137,107,141,62,44,75,132
249,149,113,147,61,42,61,120
234,149,104,136,62,45,62,112
225,143,98,129,71,54,74,104
221,133,98,142,69,50,69,102
223,135,97,154,68,53,79,93
192,120,84,151,70,55,76,89
209,120,82,150,68,54,74,98
225,121,76,147,69,50,70,107
217,126,77,134,68,51,72,100
228,125,81,138,67,47,62,97
252,126,81,145,67,46,66,110
251,119,88,169,75,48,63,111
238,120,84,159,64,40,55,106
239,113,73,156,64,37,50,106
242,140,77,162,67,46,61,107
236,147,79,151,70,52,74,113
235,149,71,124,65,55,78,105
251,160,80,148,70,61,87,101
258,168,85,150,65,62,92,109
286,157,82,124,62,57,85,107
268,149,97,129,63,54,74,105
282,156,102,138,59,51,76,113
302,148,103,145,65,52,75,114
295,140,98,144,66,52,73,107
266,137,100,161,72,53,73,102
299,172,82,158,69,57,87,100
279,168,85,156,73,59,88,93
245,164,77,129,64,53,79,95
239,174,101,141,63,53,81,96
242,175,95,124,59,61,109,103
204,147,97,128,59,55,106,98
210,134,92,142,55,49,102,113
204,137,102,144,56,51,104,105
199,123,81,147,58,49,105,102
178,125,84,156,57,40,80,102
192,117,81,159,50,42,70,96
175,124,89,142,48,41,71,79
172,121,79,148,58,48,74,89
185,151,85,137,57,50,69,87
220,149,83,127,52,48,62,81
222,176,83,122,58,49,65,86
258,195,75,130,64,56,67,81
265,195,71,123,61,52,59,69
262,175,67,128,64,52,60,75
276,180,66,132,68,58,81,96
281,179,88,137,71,62,89,91
247,170,91,133,67,57,86,91
270,180,93,145,61,54,90,98
276,181,92,138,61,58,97,106
231,165,88,145,55,51,82,86
227,158,72,134,47,43,67,89
272,153,71,142,50,43,78,100
243,144,79,152,59,46,86,94
256,150,89,154,56,50,85,89
271,154,96,150,61,51,83,91
247,133,93,156,63,52,86,93
267,151,91,148,63,53,84,89
280,166,90,123,53,51,71,95
260,157,82,119,57,41,62,89
242,152,76,136,59,46,75,94
252,157,78,132,57,49,78,92
208,154,81,138,62,49,71,83
202,134,80,168,74,50,73,77
197,142,84,168,72,50,73,76
258,154,84,151,66,44,63,80
274,169,83,152,65,39,53,79
247,141,83,143,60,35,58,80
244,151,89,120,56,38,62,87
259,167,94,132,72,48,68,90
206,174,97,124,81,58,71,85
186,159,100,122,83,58,77,95
191,159,99,129,85,59,70,95
223,162,91,132,83,57,64,95
233,137,85,128,69,46,57,91
237,134,84,134,60,39,61,95
250,136,77,132,57,38,55,82
264,150,79,139,57,38,57,83
242,142,83,126,53,37,56,75
219,146,79,127,52,36,55,72
284,148,76,123,56,41,51,68
282,143,88,144,67,41,49,72
276,139,82,161,80,50,57,77
287,144,82,170,85,51,58,81
288,158,79,174,87,54,64,92
254,156,90,175,86,54,70,102
290,154,86,173,94,77,107,116
285,161,88,148,81,77,110,123
271,151,83,152,84,82,114,122
295,147,84,138,81,80,112,117
274,140,84,146,85,87,129,122
224,157,81,134,69,66,104,107
240,169,93,150,75,63,104,111
247,179,92,134,67,58,104,115
234,181,101,146,76,61,107,125
230,197,94,142,72,49,79,109
236,185,91,134,75,53,79,108
216,167,75,159,78,50,64,86
221,168,77,171,77,50,56,78
203,160,66,183,70,46,48,61
210,161,61,177,68,47,49,69
214,183,62,176,62,43,42,71
231,183,64,139,44,39,48,77
239,191,56,117,45,44,65,91
250,188,64,101,44,47,68,90
276,171,65,109,49,46,72,88
260,136,66,116,53,44,70,84
273,140,62,139,55,44,68,91
255,139,62,142,55,38,58,85
245,147,55,143,57,38,58,85
205,149,54,163,56,36,55,91
219,158,55,166,57,37,56,95
196,176,57,159,68,39,57,92
194,156,61,162,67,39,51,83
197,145,68,163,64,42,56,92
224,143,71,154,65,44,54,81
220,142,72,148,63,44,53,81
235,128,74,171,59,45,52,84
234,133,74,189,72,49,59,89
265,149,78,194,79,44,51,83
244,145,77,184,75,41,46,80
249,142,74,184,79,40,52,76
255,140,77,182,80,41,59,67
259,136,95,210,80,39,53,59
226,116,102,208,76,39,53,57
228,108,104,221,85,47,57,61
231,114,107,228,85,48,53,62
216,102,101,209,80,43,48,69
245,119,95,158,68,42,50,74
248,145,78,142,63,41,51,72
260,149,75,119,52,34,53,73
268,144,83,113,52,37,54,71
273,137,90,132,51,41,58,68
259,120,76,133,53,39,57,65
258,102,78,138,57,41,55,70
257,104,74,140,56,39,49,69
242,120,67,133,52,37,50,79
222,139,58,106,51,37,46,75
225,142,59,100,50,45,63,104
227,188,68,102,49,46,68,111
213,191,70,103,55,46,68,113
257,195,65,106,54,47,72,116
254,191,74,112,57,46,73,120
236,191,86,131,61,40,60,101
269,146,83,130,60,37,59,92
273,143,92,144,56,37,59,89
227,123,93,138,56,38,56,75
238,124,85,135,54,36,53,73
259,141,77,125,55,40,53,67
243,135,69,114,53,39,47,68
264,141,63,96,61,45,53,71
291,145,66,100,65,47,58,77
309,149,80,130,82,57,67,77
314,143,86,154,84,52,65,72
303,145,85,158,83,56,74,68
290,143,84,156,74,50,71,68
261,141,92,164,75,47,65,75
232,137,83,165,64,39,61,77
191,128,80,148,65,42,66,88
174,130,87,170,75,40,59,88
194,143,87,179,79,45,69,99
196,139,76,173,77,48,73,98
196,128,72,145,69,46,79,115
217,151,77,179,74,48,74,113
231,147,75,169,71,50,78,118
198,131,75,158,68,48,74,124
239,129,78,168,74,46,70,133
248,150,81,171,74,46,59,116
264,134,76,127,65,50,76,121
265,141,72,115,64,51,77,122
265,144,72,115,70,52,78,107
227,149,74,109,67,51,75,86
226,143,74,106,66,52,78,82
188,128,65,103,64,48,72,72
199,139,64,104,62,43,73,97
215,143,81,141,56,41,71,103
230,183,102,140,60,52,82,106
227,174,103,144,61,50,80,111
237,180,103,149,60,47,74,115
230,166,106,152,60,47,68,86
217,174,98,130,69,48,64,84
202,153,73,125,64,36,50,84
195,163,70,137,63,35,51,83
179,169,71,137,61,38,54,78
198,172,68,135,60,41,62,85
216,155,54,122,48,39,63,97
236,131,55,130,50,45,70,99
238,132,59,119,54,46,69,95
244,129,62,121,56,43,67,97
226,128,60,125,61,53,72,97
221,167,63,129,66,61,80,104
216,165,90,123,71,60,78,98
233,167,85,128,73,67,83,97
283,182,88,121,69,68,85,96
284,183,107,113,69,63,75,100
281,151,107,135,72,56,70,85
273,167,91,177,68,58,82,91
339,175,99,179,65,59,92,94
345,163,94,180,65,65,105,100
367,172,79,182,62,63,105,98
418,180,88,181,72,74,114,94
426,169,86,145,71,72,110,92
368,150,84,131,70,71,108,97
329,145,87,142,72,70,108,95
313,133,86,147,73,73,115,92
260,132,81,148,62,70,111,92
286,141,103,180,77,70,106,95
303,140,108,198,81,65,100,89
357,147,105,191,81,70,120,113
341,152,102,209,78,69,121,117
369,151,99,194,73,78,136,126
363,160,91,167,56,83,145,163
349,165,86,148,59,102,173,179
332,157,92,152,75,121,194,194
344,194,101,135,78,125,197,198
299,191,101,135,77,119,188,192
272,185,86,136,82,122,188,163
293,180,86,166,103,131,181,148
258,220,90,162,93,110,143,135
257,194,87,150,99,136,190,141
285,189,94,152,109,166,241,152
286,183,92,146,121,188,275,180
343,197,86,123,99,172,261,187
374,177,81,140,99,171,257,166
388,176,78,145,96,161,242,168
381,189,74,165,101,155,223,179
401,195,88,195,85,126,182,156
362,193,108,196,94,128,187,154
392,187,110,194,124,165,229,202
391,183,115,213,129,159,215,197
408,175,111,200,119,134,196,200
383,178,104,201,130,153,218,207
376,160,91,201,131,158,225,202
316,158,92,208,112,122,183,152
319,171,86,190,101,111,168,141
288,195,85,192,105,110,154,114
290,191,83,159,85,74,108,89
256,195,75,150,75,57,87,86
336,229,83,165,77,62,98,115
323,219,83,185,86,68,109,119
320,198,82,191,81,68,106,114
324,210,84,190,81,67,101,111
336,219,81,199,80,67,100,112
247,162,60,169,65,65,100,95
317,178,70,162,67,76,139,143
310,186,77,156,71,75,136,140
308,169,81,156,71,74,137,144
342,170,85,144,74,75,138,152
354,179,87,147,76,68,129,151
379,188,88,137,77,61,101,126
406,187,84,137,73,62,98,127
416,192,79,130,71,63,97,128
395,179,74,125,70,64,99,131
397,229,81,147,73,68,107,141
303,214,79,132,59,57,92,119
269,203,86,144,60,56,92,119
259,233,98,179,77,68,106,124
244,236,107,176,78,65,104,118
211,180,106,162,77,68,104,100
222,169,108,179,78,69,97,102
301,176,101,180,77,69,99,103
323,150,94,152,66,66,93,90
332,146,85,161,63,66,90,84
348,146,83,159,70,71,94,95
344,179,90,159,76,69,103,113
289,190,92,149,78,73,110,115
255,171,84,148,74,64,100,114
243,182,87,144,75,66,106,117
216,188,84,145,80,71,112,114
226,174,77,145,82,71,104,98
192,164,80,166,86,64,93,100
201,166,84,164,87,70,104,105
249,177,89,177,92,70,99,113
256,175,91,172,82,53,77,103
248,169,86,160,75,48,72,100
292,162,94,137,70,49,71,101
302,170,90,140,69,41,59,118
250,140,83,122,59,42,70,109
267,139,90,163,59,44,78,123
300,140,94,164,55,46,80,124
271,159,82,158,48,43,80,117
259,144,80,158,47,47,88,99
270,148,82,159,48,45,76,103
243,156,85,162,59,50,66,88
229,155,86,173,63,56,71,89
261,136,84,170,62,62,80,102
262,135,89,166,67,59,65,99
260,172,98,186,80,61,65,89
284,172,90,147,70,56,63,88
288,173,89,130,71,49,59,89
268,171,97,185,80,45,51,77
309,196,103,212,88,57,62,73
339,166,94,203,78,64,81,74
333,160,90,209,77,64,87,70
304,154,95,221,82,70,88,65
312,172,95,182,78,71,86,68
289,148,88,163,69,65,88,78
257,153,101,152,67,58,82,82
243,182,109,162,81,58,76,81
252,186,100,153,77,52,72,83
220,167,93,151,74,48,70,78
232,169,102,144,74,43,66,76
220,169,94,182,80,43,65,73
243,149,89,182,75,47,70,80
267,142,84,175,68,46,72,84
277,158,90,174,69,45,72,92
235,170,84,197,65,52,81,90
241,167,80,167,57,46,71,89
230,165,76,185,64,47,66,85
211,189,79,192,68,47,68,93
214,185,79,199,74,58,80,91
228,168,78,170,74,53,68,90
230,159,81,209,76,53,68,86
254,163,84,182,66,52,71,93
247,150,81,178,72,61,81,82
236,143,89,181,72,54,72,81
229,145,92,192,74,54,70,81
244,218,91,148,75,56,71,92
199,213,94,147,73,63,85,87
187,207,95,148,64,54,76,96
195,215,101,162,60,52,71,92
292,219,95,158,54,54,79,104
282,152,94,153,59,64,96,102
286,152,90,145,60,65,102,113
313,154,100,138,59,68,104,108
350,156,81,117,59,72,112,116
274,153,100,128,71,90,132,107
275,166,93,138,66,85,122,108
282,158,100,144,64,81,113,107
246,154,89,165,68,79,110,102
212,142,87,159,71,79,106,94
224,141,72,164,78,64,89,96
220,132,83,169,83,65,86,94
223,145,74,193,89,59,74,91
221,158,79,210,100,61,76,101
186,156,89,214,98,61,81,112
195,155,86,198,85,56,77,105
244,186,85,185,78,58,92,103
242,185,84,157,70,58,94,97
243,171,79,108,50,58,95,84
260,172,74,104,57,56,96,77
237,172,74,141,72,56,95,77
187,144,68,171,80,50,78,81
185,165,73,199,92,59,84,88
197,175,80,214,100,61,81,86
186,176,72,218,96,60,71,83
198,183,76,198,87,53,57,84
215,171,80,191,90,61,66,84
219,148,76,189,97,62,71,79
244,150,72,190,92,63,85,97
255,150,79,192,100,75,107,114
270,147,94,223,103,82,118,119
259,148,94,216,98,82,122,122
275,173,94,191,82,79,123,125
252,166,94,177,85,84,125,129
232,164,94,167,72,71,106,113
221,167,71,141,70,65,95,107
253,193,70,147,72,69,103,117
231,172,84,160,71,65,93,109
237,179,93,168,76,59,81,96
254,180,88,182,91,69,90,94
256,207,94,188,87,68,94,100
231,186,94,181,88,61,71,86
226,187,89,173,92,63,92,109
244,174,86,181,87,64,98,119
243,180,85,175,73,55,91,123
242,150,80,154,76,60,97,126
247,151,76,155,76,63,104,120
256,146,77,178,85,72,105,107
231,158,69,158,78,67,99,93
224,157,74,155,82,69,105,101
229,149,73,160,80,64,94,88
217,147,77,160,76,60,88,86
221,161,68,137,70,55,81,84
251,175,82,152,76,77,107,111
271,181,79,141,72,76,106,106
269,191,83,145,71,75,106,108
268,196,82,152,72,74,106,109
261,192,81,149,64,68,99,124
229,182,69,147,60,48,74,103
195,176,83,184,74,47,67,95
198,166,84,174,77,49,75,100
209,171,100,180,78,47,75,103
263,167,103,180,81,45,76,85
280,179,101,167,79,39,65,95
296,177,103,126,63,36,66,99
294,175,104,130,57,33,59,101
286,164,95,120,56,42,67,102
237,172,106,135,61,51,67,110
224,136,107,166,71,54,73,108
222,131,106,180,76,56,71,107
224,171,111,178,80,57,70,106
224,186,106,167,80,56,69,104
235,186,94,166,75,50,63,89
223,198,105,145,68,45,59,79
253,205,103,157,69,48,60,78
283,182,96,159,64,47,61,71
282,162,98,156,62,50,58,79
283,156,96,159,64,53,64,81
337,159,85,157,71,59,73,89
328,156,81,136,73,62,78,100
290,168,79,144,73,62,80,97
289,170,87,183,94,69,85,94
293,171,91,178,93,65,80,94
226,179,98,186,102,70,83,88
249,179,108,190,105,71,95,90
268,158,107,177,103,70,96,97
282,167,105,150,92,68,98,110
266,165,106,193,99,75,101,106
296,160,103,203,95,72,96,108
258,180,91,246,99,70,85,98
269,183,97,256,105,73,85,91
327,196,99,290,104,72,85,84
329,216,113,278,110,69,84,84
313,203,116,279,108,76,93,78
306,188,115,241,97,74,88,73
297,191,122,243,98,74,87,77
232,232,113,195,90,70,86,83
244,211,98,164,74,68,91,90
229,214,90,136,58,51,78,104
222,211,87,131,57,49,77,105
227,236,77,122,53,48,79,108
207,176,99,165,83,48,69,91
225,206,108,229,119,61,62,93
262,215,111,230,122,62,59,81
281,215,117,243,130,66,63,83
278,198,120,254,134,68,62,96
313,206,102,230,123,68,69,101
308,170,98,191,104,64,72,99
291,160,99,222,109,67,76,102
279,175,92,219,109,69,85,104
266,173,83,218,98,68,95,92
258,160,91,250,102,67,91,91
229,161,83,233,86,57,84,87
243,191,76,204,80,58,86,96
250,175,78,195,67,50,79,96
242,151,77,195,81,46,57,86
250,166,73,159,78,44,54,79
267,177,69,159,76,46,61,90
264,151,72,159,70,42,53,74
269,146,68,160,73,47,55,76
273,163,89,146,68,53,61,80
241,147,83,156,55,52,70,86
230,164,82,183,57,56,84,81
211,159,94,210,63,55,87,96
200,162,95,225,74,57,85,91
220,164,86,236,79,60,88,99
222,180,89,235,81,58,84,99
211,163,91,226,85,54,65,90
223,159,83,206,87,59,70,83
229,165,102,209,93,68,82,90
213,155,99,195,83,66,88,84
211,197,101,195,91,70,88,89
227,208,99,205,88,71,89,94
210,214,104,211,84,65,82,83
197,210,88,192,69,55,75,78
268,226,83,193,67,45,61,80
262,174,94,184,61,45,59,73
270,165,102,164,68,48,61,92
270,158,98,168,80,62,83,96
283,223,99,169,85,59,79,97
248,207,105,184,96,67,84,99
239,216,109,191,95,64,85,95
236,207,103,182,90,62,83,69
244,201,99,176,82,54,72,74
239,159,96,170,77,56,76,81
201,176,96,149,70,51,73,84
246,170,79,138,68,51,70,85
268,190,88,147,73,50,69,88
261,215,87,127,72,44,61,95
249,190,107,151,94,43,57,90
267,186,112,178,89,37,50,87
237,197,111,176,88,38,54,86
209,181,112,167,85,42,63,87
217,179,125,263,105,56,64,83
229,228,107,261,88,56,62,82
210,218,107,245,93,60,66,74
225,221,112,268,101,61,70,78
225,220,112,273,103,62,63,76
250,200,101,209,86,53,65,77
276,151,100,197,85,50,62,76
277,150,92,190,79,46,56,86
293,164,87,168,67,42,53,87
288,173,77,178,60,36,49,89
275,180,81,170,66,46,47,87
244,183,89,193,73,52,56,89
248,181,92,213,83,56,59,80
274,160,88,210,87,59,57,80
271,150,92,214,92,62,65,79
254,142,86,232,98,53,63,74
257,177,84,219,96,51,69,80
273,177,82,200,88,44,67,79
209,173,82,194,83,43,66,74
212,181,100,181,80,40,64,78
221,194,144,151,61,43,67,92
260,180,143,170,55,40,61,88
250,180,144,193,72,52,69,92
250,184,143,198,83,61,79,96
252,180,141,199,81,58,75,93
248,165,96,184,78,54,69,80
193,145,96,187,78,57,74,73
189,150,94,180,66,48,68,70
216,144,99,180,56,35,57,68
218,139,84,199,72,39,57,69
217,144,83,218,79,43,57,68
218,152,82,215,75,41,50,74
266,157,80,205,75,44,49,76
252,146,81,200,78,47,47,78
247,141,78,184,68,46,51,75
252,159,76,162,62,46,56,76
279,162,79,141,67,48,57,81
255,155,79,140,63,45,59,83
248,168,75,145,58,43,61,84
256,181,74,140,54,44,64,88
271,163,81,152,59,50,64,86
267,152,81,141,51,44,57,84
231,151,102,180,66,46,55,78
243,146,103,178,71,52,69,82
232,144,105,175,77,54,79,89
238,154,102,172,75,52,78,88
237,177,108,188,75,54,77,79
267,180,89,148,66,53,78,79
264,182,97,161,71,49,77,73
264,179,95,169,66,45,65,62
245,183,94,173,65,40,66,60
236,167,83,158,66,39,66,61
234,169,78,160,61,38,68,65
232,167,70,153,53,37,58,69
226,162,70,146,48,33,53,67
217,146,72,135,50,32,51,78
197,146,73,133,49,34,53,80
167,161,93,130,57,34,47,76
193,167,87,110,54,33,43,77
218,167,90,109,59,34,45,108
209,169,91,116,59,40,56,107
242,173,104,169,81,45,60,105
251,166,111,211,96,48,61,104
243,168,117,230,101,55,67,100
228,174,118,232,108,59,70,72
261,190,114,228,109,60,64,83
295,194,101,195,97,58,58,83
287,183,74,176,79,55,62,89
280,168,62,159,75,51,58,87
275,164,58,158,63,52,68,96
274,163,68,178,63,55,76,89
217,150,78,200,64,58,78,87
225,148,89,195,72,57,76,86
201,146,89,194,67,59,79,86
201,160,87,200,69,55,66,71
204,150,83,181,64,47,56,69
211,156,77,157,59,43,56,68
198,164,74,169,59,42,54,67
242,180,86,180,69,43,49,76
257,175,101,177,72,41,49,75
237,180,117,178,78,41,44,70
257,162,133,181,80,40,45,83
271,155,130,144,73,41,51,82
253,163,135,174,78,38,50,70
261,155,125,168,71,38,54,80
261,145,112,165,64,34,53,75
237,140,89,161,66,36,57,66
212,135,85,179,79,35,56,64
244,113,70,173,83,43,62,70
240,144,86,171,81,44,66,63
232,159,100,170,84,45,67,63
239,170,103,164,80,46,67,62
263,172,103,145,67,57,89,78
233,191,109,107,44,51,88,77
217,178,98,135,59,52,91,80
227,163,92,138,63,55,94,80
212,156,92,163,67,54,91,78
219,167,91,181,72,42,69,60
197,142,90,182,76,45,63,59
204,151,94,168,67,43,59,66
229,154,81,172,64,41,56,67
258,158,78,158,65,42,68,79
234,152,79,139,59,44,65,81
260,180,87,134,55,42,70,83
347,192,84,140,54,44,69,86
335,194,92,126,51,44,71,89
334,205,95,133,53,45,57,84
333,205,107,184,55,43,61,83
320,179,90,181,54,41,58,76
214,158,94,174,61,50,70,65
203,177,103,201,96,74,89,63
177,161,98,199,102,75,94,61
208,158,88,152,104,77,94,69
242,163,87,149,105,78,93,74
276,150,85,149,107,76,84,69
278,129,69,136,78,50,59,73
284,130,77,147,76,46,52,72
279,140,83,188,85,53,71,73
248,134,89,194,87,55,71,70
225,146,86,212,88,57,71,82
231,141,82,216,93,60,74,86
218,137,85,202,84,59,75,83
209,117,79,173,76,49,56,77
210,115,80,170,76,52,63,80
193,95,100,148,71,46,64,70
194,81,101,138,72,47,66,74
212,85,103,143,77,49,66,81
200,95,123,168,89,60,73,91
224,121,121,174,88,57,70,92
233,130,109,175,89,56,83,93
220,135,113,169,87,52,83,90
241,133,115,194,99,54,87,102
284,157,119,186,92,49,86,102
268,134,118,179,89,52,87,101
258,123,117,192,98,57,79,101
270,118,112,195,95,57,76,95
251,127,104,179,83,55,71,79
227,103,72,161,75,52,73,72
225,116,72,156,77,50,71,72
241,116,71,151,67,46,76,81
253,154,70,153,64,52,80,79
248,155,76,148,68,58,85,77
226,153,74,141,64,54,77,73
250,156,82,147,68,59,78,79
231,157,88,149,65,56,67,68
205,150,90,151,72,52,60,64
206,160,93,184,69,46,52,64
211,159,106,209,85,51,56,67
172,156,101,209,83,47,51,52
181,160,100,206,80,44,49,71
193,136,100,198,74,45,52,77
167,114,92,155,72,47,58,79
160,134,86,121,53,40,55,74
172,127,90,117,48,39,66,84
178,128,82,92,45,44,74,71
168,140,86,99,41,41,75,68
181,151,93,116,41,37,73,64
213,139,97,114,47,40,77,72
227,141,91,121,46,40,72,77
227,137,92,124,43,34,61,74
234,120,87,111,45,35,60,73
248,124,81,103,49,39,57,76
216,112,84,133,63,40,50,71
206,130,86,132,69,42,46,54
221,190,90,129,71,49,65,68
213,205,91,147,73,48,62,73
190,200,95,150,69,45,64,73
201,205,83,163,64,44,71,73
227,203,92,184,70,46,74,80
206,155,86,190,73,44,71,81
194,136,86,194,72,44,71,76
228,132,80,195,77,45,71,74
247,150,79,167,71,41,62,76
213,145,67,149,70,43,61,67
223,149,68,156,71,40,48,55
279,153,68,153,73,43,48,55
264,154,61,148,67,41,45,55
251,135,57,157,67,42,48,54
277,127,57,149,58,37,49,56
280,167,76,143,59,33,48,59
235,166,74,131,63,36,50,57
239,171,88,159,77,58,78,65
243,177,88,160,75,57,77,60
215,193,88,166,76,56,76,57
213,157,74,158,72,57,81,56
207,171,77,149,66,56,88,71
190,172,70,125,65,55,80,67
197,177,77,126,66,58,81,75
203,157,87,152,68,59,88,79
189,154,87,165,71,60,85,75
208,171,86,163,69,59,80,66
214,170,80,171,59,41,66,65
188,155,72,180,71,44,70,59
187,167,70,156,71,43,63,64
212,201,67,143,71,44,65,68
194,173,82,146,72,42,60,65
188,171,86,135,72,42,62,63
183,192,83,100,56,38,54,62
204,190,79,94,56,37,47,50
182,173,80,98,56,35,44,42
225,179,68,94,57,38,46,47
221,173,68,80,52,42,57,49
245,173,72,99,53,44,68,61
226,166,75,114,60,43,69,61
230,143,75,121,62,44,73,65
200,140,86,162,69,42,71,63
221,164,83,168,71,39,62,65
209,142,92,164,72,35,51,53
217,150,89,151,65,34,50,54
222,161,92,143,59,33,42,52
207,162,95,106,52,37,44,49
199,156,99,121,57,39,42,44
191,163,94,114,55,40,45,45
178,167,98,118,62,46,59,48
163,170,100,125,70,55,70,51
178,178,90,133,72,54,73,58
181,169,92,129,72,54,77,62
189,169,86,140,72,53,75,63
203,173,84,140,70,51,77,62
215,155,79,164,67,43,69,59
204,141,75,152,67,45,70,58
193,136,63,143,62,46,71,72
223,151,61,141,60,47,75,81
288,148,56,145,57,45,62,97
316,155,53,152,79,55,73,114
324,154,57,174,89,63,84,118
327,174,62,170,89,63,83,106
324,155,66,164,89,63,78,100
267,155,68,173,89,65,84,87
220,153,69,149,70,55,77,66
236,151,72,130,61,54,88,67
232,161,73,152,69,56,93,74
225,164,69,151,70,57,98,82
258,164,68,139,72,58,99,81
293,189,70,131,70,60,96,80
273,198,69,122,62,50,78,71
276,175,64,96,50,45,69,64
262,165,67,96,53,42,65,58
239,166,70,124,48,34,55,53
203,162,74,124,54,37,60,51
239,162,65,123,53,35,51,52
232,164,67,126,58,37,50,52
270,177,73,145,66,41,45,48
292,177,71,132,69,41,47,58
295,164,69,144,74,42,40,62
274,171,71,144,73,39,41,61
303,184,74,142,71,41,44,61
283,173,68,122,59,36,47,64
250,161,69,107,56,37,51,61
272,165,66,99,54,37,54,55
273,155,79,107,67,47,58,62
271,130,73,112,69,46,61,77
251,137,73,120,71,48,60,78
282,156,74,134,72,46,56,76
263,142,89,133,68,48,53,76
256,138,77,139,63,42,44,73
224,135,83,147,67,41,35,55
224,127,105,151,73,41,33,46
197,152,107,144,81,53,68,78
200,192,97,143,79,52,73,86
190,194,101,151,76,51,75,85
186,198,99,151,73,52,85,88
205,209,78,149,78,64,105,94
190,179,74,144,67,54,85,66
199,168,74,145,64,51,83,62
222,165,83,143,72,51,82,63
231,187,84,137,71,50,75,75
209,187,90,133,59,41,58,66
217,200,93,135,59,42,58,67
193,170,95,147,59,42,55,61
179,168,88,161,48,41,60,62
173,146,95,160,49,51,69,50
206,136,87,206,62,45,60,59
212,134,89,206,63,47,62,60
204,137,84,191,61,48,66,63
248,148,77,170,61,45,65,89
256,157,76,178,65,36,54,90
269,157,79,134,62,39,52,90
270,135,74,147,70,44,55,96
279,135,78,156,79,45,58,97
251,163,90,191,96,55,58,75
240,148,85,181,96,57,60,70
201,144,85,200,92,58,65,63
188,160,84,197,86,54,61,56
176,162,89,191,80,52,55,48
195,126,86,177,63,46,49,44
206,137,87,175,58,47,53,56
224,138,88,150,55,43,58,73
268,133,88,143,54,44,60,82
287,137,77,155,53,44,60,85
294,144,78,144,52,47,64,91
288,144,87,145,58,44,60,87
309,200,89,146,68,47,51,79
285,196,95,145,69,47,46,77
293,197,95,136,71,50,51,79
269,206,91,165,75,51,50,72
287,212,80,180,75,54,55,78
266,171,77,172,69,52,61,80
258,177,71,180,71,57,71,72
238,171,76,184,70,53,67,71
255,159,78,146,65,49,68,82
238,143,75,130,63,49,69,81
235,129,69,136,62,50,67,84
282,125,76,126,56,45,59,89
301,124,73,114,62,56,76,89
301,137,73,122,58,56,72,79
299,142,73,126,53,55,66,73
291,184,76,130,49,52,66,64
258,190,80,122,55,56,71,67
244,211,79,130,49,45,52,61
235,215,92,131,47,40,54,69
254,216,93,137,48,38,65,70
282,203,99,180,85,36,62,69
279,196,98,215,101,38,58,64
300,191,106,218,106,42,67,74
292,178,95,224,111,45,66,66
299,190,102,215,111,47,60,70
283,187,102,209,104,56,69,75
295,189,98,192,99,56,66,78
265,175,96,208,103,53,58,71
264,173,96,236,110,52,56,69
246,150,95,240,114,53,53,67
235,143,89,207,99,49,45,65
222,144,84,187,84,43,45,60
220,143,80,161,72,44,46,61
231,150,76,105,58,44,49,67
241,159,78,126,49,42,47,70
274,168,74,142,53,37,45,67
259,185,82,147,57,39,48,65
262,188,84,151,58,46,57,65
261,187,85,168,59,45,60,63
253,198,86,189,77,49,58,58
236,192,94,188,77,48,57,57
261,180,104,219,95,61,59,71
260,170,105,221,98,59,51,72
256,186,132,221,96,61,47,70
281,175,130,198,86,59,46,74
267,168,126,200,89,62,54,75
258,205,125,167,70,49,50,71
279,223,125,161,64,43,49,71
271,211,100,164,69,42,54,70
237,208,104,180,71,43,60,69
245,221,100,200,73,37,55,67
236,192,87,202,75,39,57,57
250,180,83,204,74,40,57,60
273,183,81,198,69,47,71,69
289,191,73,196,71,43,67,68
284,185,73,196,79,43,65,68
286,171,71,214,87,44,65,72
257,162,69,215,88,45,64,67
268,151,67,206,90,39,44,59
262,139,66,203,86,40,42,65
284,125,74,193,74,40,45,73
277,133,78,184,73,38,43,72
259,132,88,179,70,38,43,73
255,153,84,173,66,44,56,78
258,156,87,159,73,50,63,73
230,152,89,156,84,55,68,68
254,164,82,136,71,53,65,71
271,167,70,133,73,54,71,74
296,147,75,135,78,54,73,74
305,149,96,128,77,47,68,71
312,163,92,105,63,40,61,69
304,148,101,117,70,44,63,63
313,153,103,127,74,47,60,65
294,172,108,133,72,44,52,63
279,163,104,154,74,49,52,65
271,169,107,185,88,58,59,66
275,177,104,187,89,58,60,67
266,174,106,184,85,58,67,61
245,152,96,177,80,52,62,67
247,166,88,172,73,53,67,76
240,166,86,177,63,43,61,75
236,172,78,166,54,42,64,76
228,165,78,189,59,41,62,83
242,168,91,231,83,45,64,80
232,188,83,220,79,41,58,74
264,183,76,197,74,44,61,75
247,183,79,207,72,44,62,77
247,197,82,197,75,45,58,68
233,202,78,178,67,47,54,63
244,175,80,177,70,50,56,72
240,189,126,185,73,53,55,72
248,173,145,174,81,63,56,72
249,177,147,165,79,64,57,82
247,169,148,149,71,63,60,88
284,172,154,188,78,64,60,92
258,133,121,193,75,59,57,92
246,135,102,214,73,46,50,87
251,117,99,221,67,45,53,84
257,123,96,215,68,42,49,82
216,132,79,183,64,37,47,63
240,138,84,179,82,70,95,78
260,132,86,156,79,77,103,87
259,127,83,146,86,86,101,86
268,135,89,193,95,91,104,86
264,114,89,200,94,91,104,87
267,111,81,186,78,73,74,86
245,123,72,187,77,68,69,78
260,183,86,187,72,61,77,77
241,192,79,142,55,53,71,71
227,198,86,129,57,54,75,69
207,199,88,127,57,51,74,58
220,225,100,129,61,51,70,61
223,198,85,125,57,43,62,66
228,179,81,116,59,48,66,67
232,173,93,175,68,51,66,75
234,190,99,188,83,51,66,80
227,174,87,182,84,50,65,86
185,155,91,190,89,53,67,75
189,183,104,211,87,50,69,77
221,200,97,182,81,44,66,76
243,200,92,184,71,46,61,75
239,187,95,224,70,46,62,72
264,195,93,230,71,48,63,80
291,185,81,203,67,48,59,83
273,176,81,192,65,50,61,80
262,158,83,194,71,46,59,77
273,166,90,159,75,45,60,84
264,180,100,148,82,45,58,79
235,165,103,167,92,51,58,78
242,174,106,184,97,59,79,83
225,175,111,163,90,58,77,81
225,183,112,171,85,56,72,70
245,194,102,177,80,56,75,75
241,192,100,186,81,55,82,74
244,179,88,174,73,46,60,67
242,192,75,174,70,44,63,68
242,188,66,160,76,44,66,72
220,165,77,172,75,41,68,72
216,179,81,153,66,34,58,71
234,179,82,155,65,36,59,72
240,167,91,172,72,38,55,72
241,174,100,181,66,46,55,66
252,172,100,164,62,43,47,65
268,166,102,169,61,48,51,66
264,169,101,153,59,52,60,66
257,170,95,138,55,56,69,67
252,160,86,131,68,62,83,72
271,166,78,154,72,68,90,78
263,180,72,152,73,68,92,86
239,187,83,168,80,67,90,91
240,191,88,177,81,67,85,87
285,187,85,185,75,60,71,87
254,174,87,183,78,57,67,76
268,189,95,177,82,61,70,82
307,190,90,162,72,59,68,81
314,183,99,151,71,57,70,85
271,176,97,148,63,52,69,80
286,174,97,125,56,54,71,86
255,131,90,124,53,48,66,73
211,130,86,125,55,46,64,65
211,161,85,179,69,46,62,60
211,165,84,176,81,57,74,64
198,176,88,170,79,56,68,63
189,173,100,189,92,59,67,58
211,165,104,195,94,59,68,73
251,147,96,163,81,58,72,89
257,158,95,162,70,47,63,89
268,149,103,163,69,42,65,96
288,167,92,157,64,52,81,103
276,194,96,169,65,51,77,92
270,191,100,156,73,55,73,79
293,176,100,144,72,54,70,80
273,192,96,165,76,61,74,72
289,181,88,147,62,55,66,63
311,163,78,130,60,56,65,64
284,170,74,131,47,54,67,63
258,168,76,129,48,54,66,61
267,153,62,100,43,50,70,64
234,147,69,127,55,39,59,64
194,130,76,157,67,39,57,63
220,152,72,148,69,40,59,64
222,161,73,152,69,40,59,61
228,172,73,153,72,38,57,63
231,172,67,148,75,43,56,64
256,178,68,126,66,44,59,69
228,153,79,156,82,50,58,70
235,151,77,157,85,54,59,81
219,131,85,160,81,51,49,81
219,135,88,150,69,50,55,82
188,136,84,147,68,51,58,77
214,153,88,121,49,45,59,78
213,145,93,137,55,46,63,68
206,144,88,129,59,51,63,57
207,144,89,123,61,48,67,57
226,137,92,114,61,51,73,67
226,131,82,113,61,46,68,74
230,154,83,112,62,47,70,73
245,167,96,132,67,46,74,84
250,172,97,132,82,49,71,87
249,179,94,147,88,47,70,100
245,157,103,146,85,49,80,114
247,139,105,136,90,56,92,128
251,136,134,155,93,56,90,128
262,154,142,164,86,61,96,132
277,164,152,151,81,61,91,135
271,186,144,161,86,63,85,124
284,186,149,164,79,61,74,118
290,196,111,125,67,58,72,119
283,178,101,135,59,49,58,111
259,167,91,142,62,48,58,90
264,146,99,139,62,49,74,86
253,150,85,143,59,36,68,78
264,135,97,167,66,37,66,74
248,136,103,157,70,40,67,74
261,136,94,159,65,38,67,77
251,145,85,155,60,34,60,77
249,136,90,153,63,43,60,92
211,137,80,132,58,43,60,93
217,145,70,145,65,46,59,91
208,146,79,146,69,50,63,94
216,145,76,156,70,48,48,90
213,152,70,146,66,44,46,88
242,146,71,168,67,43,54,91
272,147,71,162,66,45,67,98
301,180,63,155,63,45,67,95
293,189,75,173,78,44,65,94
287,184,77,186,82,46,67,80
281,188,86,183,90,55,78,80
259,198,154,189,92,56,73,75
211,189,180,185,95,56,75,81
213,176,177,160,86,56,76,85
204,175,179,166,93,60,81,91
168,169,179,168,97,54,65,78
161,155,128,149,90,47,60,77
171,115,89,148,86,48,73,75
191,136,88,143,86,51,80,74
197,133,83,124,68,43,75,78
234,156,76,107,54,42,84,89
235,160,75,108,52,46,87,93
246,168,95,121,53,43,72,89
224,145,100,134,51,40,66,86
221,158,111,138,59,51,84,82
225,153,109,129,55,55,82,80
221,155,115,129,56,52,80,75
210,181,128,153,64,53,82,76
232,196,143,174,75,56,87,83
235,190,139,171,71,46,69,72
227,181,143,176,71,47,72,76
243,186,162,200,82,52,75,77
291,177,154,186,81,55,75,85
278,177,135,156,72,52,69,81
280,178,132,162,81,56,78,90
276,218,131,157,84,51,66,81
276,209,108,144,78,50,64,83
253,191,95,147,74,46,74,79
257,176,98,153,73,46,80,76
269,180,99,151,65,43,74,69
258,130,104,153,68,49,73,66
255,133,98,137,61,45,72,65
232,140,89,122,61,44,58,60
245,152,83,115,61,44,52,73
241,159,95,118,62,46,47,75
239,174,106,131,62,40,48,74
226,175,104,136,71,42,48,72
227,175,111,133,67,45,63,86
288,176,117,135,67,42,62,88
273,170,116,143,66,43,65,87
269,152,106,148,63,42,65,89
312,167,106,142,54,42,64,97
305,166,98,154,58,41,56,83
229,158,92,152,58,42,51,72
247,150,97,148,60,41,49,73
279,175,106,145,59,42,55,85
228,162,104,147,57,42,55,77
246,158,105,137,54,44,59,86
256,165,114,138,59,47,63,87
239,179,108,141,63,47,64,85
202,193,95,136,65,45,58,71
232,208,98,138,70,49,62,77
227,209,141,151,79,58,87,88
211,202,135,158,79,58,86,93
222,202,125,153,83,58,85,92
231,173,128,150,84,59,85,94
215,158,130,146,80,54,84,93
203,151,88,134,73,42,52,82
263,174,94,121,67,40,53,90
258,167,97,139,63,38,52,94
270,187,100,139,60,43,63,95
278,174,94,140,62,48,74,96
269,180,90,137,58,47,72,88
233,176,95,170,65,48,69,70
231,189,94,151,58,49,70,64
211,163,83,143,54,45,65,63
211,163,89,146,61,46,56,61
222,162,89,159,61,45,54,62
226,161,87,130,56,43,60,71
234,140,91,136,55,42,61,69
229,139,99,135,55,42,66,74
206,138,104,132,45,35,64,67
200,157,104,121,43,35,69,64
212,184,125,125,56,61,99,79
210,186,122,108,55,63,98,80
225,186,114,132,64,64,91,78
228,188,107,129,68,66,90,79
247,189,105,127,67,67,96,89
225,168,68,115,59,45,60,72
216,159,79,119,60,45,68,73
230,173,86,137,51,40,68,71
232,183,87,164,53,40,67,72
244,176,99,180,61,48,72,80
234,162,101,195,65,50,73,77
248,161,95,225,85,57,77,85
224,180,95,236,101,59,80,92
227,169,104,243,111,62,85,96
216,168,96,230,107,54,74,84
222,165,101,217,104,54,76,81
222,181,103,192,88,49,76,74
222,148,101,150,70,47,71,62
222,151,93,148,56,41,66,54
248,155,93,157,64,45,66,59
241,166,81,162,66,41,62,65
235,153,74,151,62,37,52,62
242,160,72,146,60,36,55,67
273,180,80,121,63,38,56,76
248,187,77,109,55,35,65,93
260,180,79,116,52,35,65,91
254,180,81,147,60,37,64,93
259,216,82,151,61,42,64,96
229,197,79,148,57,44,64,89
215,179,77,148,56,46,56,65
192,174,81,144,62,48,65,86
193,167,81,115,55,44,61,88
186,155,88,154,64,45,61,83
186,160,79,143,61,45,66,86
204,174,92,169,75,43,61,87
210,172,99,189,79,40,48,64
198,187,102,200,82,42,51,59
211,169,98,172,75,37,50,56
244,167,97,175,74,32,42,64
224,157,94,159,61,30,40,66
232,158,88,136,50,31,41,66
257,149,82,123,46,31,50,73
260,130,78,122,45,38,65,79
220,152,84,121,47,43,74,72
232,159,81,128,49,43,75,70
226,181,91,137,52,46,76,69
206,183,95,142,54,50,77,64
219,207,91,140,55,48,66,72
223,202,86,134,55,45,57,70
209,199,83,180,63,46,58,68
209,189,73,179,72,46,57,70
227,197,75,175,72,41,47,70
176,174,79,189,73,38,50,52
174,160,78,205,71,39,47,58
175,156,89,153,66,41,49,76
163,148,89,141,53,41,51,84
130,124,87,163,53,40,53,84
181,107,88,150,55,42,47,84
182,134,89,127,53,40,46,80
198,144,77,130,49,33,43,66
225,152,69,137,50,32,42,58
233,153,90,115,44,31,40,58
193,157,87,111,37,29,41,64
192,131,93,117,42,34,44,73
179,115,95,120,42,37,44,69
145,105,97,114,41,37,41,64
154,131,86,104,44,38,43,65
159,127,89,101,46,39,46,62
151,131,82,115,48,38,49,59
166,134,83,115,49,37,49,61
177,151,85,110,51,44,70,76
174,157,70,122,55,47,74,80
200,168,82,149,61,49,76,83
206,166,90,150,66,54,81,82
192,168,87,150,65,54,81,80
199,169,94,156,72,51,71,70
199,147,98,155,69,48,68,69
190,138,89,129,65,43,64,67
200,149,87,109,55,33,57,64
211,160,85,101,57,35,59,64
221,147,71,99,52,34,56,62
222,157,70,84,50,34,52,56
211,166,68,93,49,36,53,50
232,169,63,118,65,45,70,53
215,162,63,117,65,48,76,67
193,155,81,135,66,47,76,74
208,152,82,141,70,48,80,86
209,151,79,134,69,47,82,86
186,137,82,120,52,39,68,97
200,128,96,125,50,35,60,90
197,125,88,112,50,35,57,84
170,125,84,110,43,38,70,73
200,135,94,128,47,42,76,88
185,161,89,130,49,43,77,75
183,175,79,130,52,44,76,80
198,185,96,143,50,43,75,81
227,191,104,150,53,38,59,84
230,191,100,148,61,39,58,80
241,175,105,172,61,37,55,79
250,159,110,202,73,39,60,76
234,148,95,211,79,39,62,77
276,153,90,209,80,45,62,76
278,143,82,204,73,39,50,70
291,138,82,193,79,44,54,80
276,143,82,171,68,41,51,77
290,150,86,161,68,40,52,75
247,152,80,170,72,46,62,71
224,153,82,184,71,46,66,64
199,161,85,172,69,49,73,57
221,176,76,164,69,48,72,56
243,185,84,166,67,49,70,58
218,163,88,166,63,41,61,55
218,167,92,152,70,45,66,56
223,166,90,163,77,42,57,49
223,160,94,186,82,44,54,58
200,153,93,190,81,43,54,56
242,166,89,182,83,46,57,66
257,153,87,184,80,44,50,64
254,140,78,169,69,40,47,62
244,156,69,144,60,38,50,59
235,163,76,142,67,43,55,61
211,156,77,137,65,42,60,53
188,156,71,128,58,38,55,59
181,159,76,131,58,40,58,65
204,133,75,133,58,42,55,59
210,114,51,105,46,40,60,60
199,106,55,111,45,34,52,59
203,114,65,124,50,38,56,53
215,153,66,130,54,36,62,55
202,154,68,135,59,37,69,72
195,156,78,155,64,37,62,71
190,160,84,157,70,43,61,71
185,156,81,170,70,43,60,72
181,117,80,170,66,46,54,69
211,131,85,175,65,46,48,56
214,125,79,154,61,44,55,59
224,122,72,154,54,45,76,70
257,124,67,131,53,44,74,77
266,154,74,122,53,41,77,80
232,145,81,147,69,46,80,76
236,158,88,164,76,48,74,73
221,154,92,166,81,46,54,62
204,156,93,165,85,50,58,65
215,146,102,187,87,50,49,62
217,136,96,177,91,46,42,61
206,129,89,169,89,45,42,62
221,129,84,179,85,46,55,66
203,122,95,194,92,45,55,56
212,99,75,181,92,44,60,56
217,97,76,167,78,43,65,67
228,110,76,161,75,50,81,65
221,155,80,137,72,54,88,66
235,160,67,113,60,54,88,68
202,176,82,108,59,55,87,68
211,181,75,111,56,55,88,61
209,181,76,109,51,48,74,59
238,154,71,126,52,38,57,64
234,154,82,170,55,40,61,68
235,151,74,172,60,43,67,71
239,153,79,173,58,42,63,73
268,158,81,174,64,43,69,81
279,163,83,183,65,42,71,73
277,163,79,156,58,38,68,66
296,181,76,150,55,35,61,67
286,172,72,146,55,33,58,65
267,163,83,160,49,39,69,69
236,167,93,140,48,41,68,73
229,161,86,143,54,43,66,72
199,134,88,151,62,47,70,69
193,150,90,155,66,48,71,68
172,158,92,167,76,43,56,56
155,144,82,179,80,45,57,55
153,146,85,168,78,48,69,61
195,142,87,174,78,44,64,61
197,143,97,173,77,44,61,59
205,140,86,143,65,41,59,59
206,142,91,135,61,36,54,58
215,157,95,150,67,36,64,65
220,155,91,159,75,45,75,69
233,151,82,154,79,45,77,73
233,168,75,151,79,47,83,74
243,168,69,145,80,56,90,76
247,165,75,156,84,54,76,67
213,192,75,137,70,47,64,69
263,198,77,146,69,49,68,73
272,176,77,158,68,51,70,74
267,180,77,154,66,47,72,76
250,167,63,125,53,45,69,74
246,148,62,124,52,47,77,66
190,157,64,115,47,45,74,64
216,162,71,101,49,44,71,76
215,159,72,106,53,43,63,68
212,162,73,121,57,43,66,71
220,160,89,123,56,39,58,75
227,152,84,116,54,41,61,76
194,147,80,115,55,38,55,61
192,146,90,117,53,35,52,63
202,152,91,124,53,35,49,64
193,134,74,123,60,40,54,65
172,116,74,128,60,38,51,58
175,111,86,129,58,41,56,66
178,121,81,151,63,41,57,67
181,113,77,144,63,44,61,65
179,118,77,152,54,39,60,60
188,156,76,152,54,38,62,61
181,173,75,159,67,39,56,57
174,176,75,127,57,38,53,52
176,178,78,113,52,37,56,54
209,187,91,105,56,41,60,64
225,156,90,101,55,40,58,67
227,143,87,89,41,39,68,67
236,144,89,107,51,41,71,77
238,141,90,124,53,38,65,78
213,136,74,115,58,42,70,72
211,155,86,150,74,45,77,68
206,148,80,180,76,43,72,66
205,131,73,177,78,44,67,57
191,135,84,177,83,48,78,59
225,153,88,178,80,49,95,63
210,154,79,151,69,46,95,64
209,157,76,126,67,44,99,62
196,186,86,123,61,47,105,63
215,194,81,123,54,43,98,60
193,173,76,135,51,37,72,66
185,157,77,132,50,38,64,63
239,165,97,142,60,45,75,77
255,156,87,146,62,40,75,78
262,151,88,140,61,41,79,79
260,156,92,132,61,41,80,69
257,156,89,169,64,40,81,68
199,143,66,152,48,33,61,49
193,123,84,155,56,37,58,48
165,117,81,162,59,37,49,41
146,126,77,158,56,34,47,42
149,130,80,124,57,36,45,45
160,129,85,126,60,34,47,51
156,117,68,121,53,32,49,58
146,113,63,102,48,31,54,59
154,131,76,111,51,38,81,61
176,131,71,116,50,37,90,71
205,144,65,117,52,40,91,74
220,159,66,117,56,40,88,72
223,162,75,122,65,46,91,75
232,147,69,160,84,45,74,81
229,159,73,159,85,45,62,74
218,150,77,163,86,45,60,69
208,150,82,164,88,47,71,69
209,154,83,161,82,43,71,66
203,165,77,120,63,41,64,59
201,163,79,115,60,43,66,60
198,176,85,103,54,44,67,61
190,167,82,101,50,40,59,62
235,197,78,114,70,43,61,74
224,186,81,134,91,55,67,76
226,182,95,134,93,58,80,74
217,174,89,152,100,58,83,75
223,179,91,174,104,57,80,70
200,145,93,173,93,53,74,60
205,144,91,163,76,40,70,54
218,152,74,172,77,35,57,61
227,150,80,170,78,40,50,59
229,143,74,146,66,41,49,58
229,156,68,136,64,41,47,60
242,152,71,156,65,41,44,59
224,131,74,157,67,41,46,59
243,126,72,150,65,46,56,64
256,131,73,150,70,46,58,71
247,129,86,166,75,47,57,66
255,140,107,142,72,48,59,71
250,148,110,143,72,48,56,67
227,154,107,148,69,36,52,65
209,151,114,167,71,43,52,59
219,133,107,151,68,43,58,64
208,114,80,157,69,42,59,60
214,118,75,156,67,43,58,60
230,108,80,141,61,43,54,58
219,110,77,132,60,44,59,58
198,124,76,153,61,47,69,59
201,142,82,151,66,54,86,70
215,154,86,143,66,57,92,79
199,159,85,201,81,60,91,76
207,159,83,197,85,60,93,80
207,154,80,187,86,60,93,76
198,134,83,196,84,53,81,76
181,109,73,192,78,49,76,66
178,102,69,135,71,49,83,70
205,94,66,131,59,45,78,71
205,84,72,142,61,45,67,76
250,141,66,128,63,45,62,74
259,154,70,128,62,42,59,75
254,180,76,127,56,39,50,71
238,195,76,129,60,38,47,66
240,199,68,128,58,30,46,62
181,172,68,131,57,31,48,54
168,155,66,132,58,30,44,46
164,127,58,141,65,32,42,49
169,123,56,142,67,32,48,51
229,150,56,125,61,37,53,56
252,173,61,122,57,35,47,54
251,181,62,121,60,36,49,55
294,212,64,117,50,33,51,53
285,205,67,103,45,34,50,60
237,187,64,107,51,29,45,57
212,168,57,111,55,38,48,58
216,178,62,114,55,45,61,64
172,142,70,124,64,47,65,67
184,150,78,151,69,51,69,61
191,151,81,148,65,49,67,56
195,145,80,146,61,48,88,68
185,125,76,143,61,46,89,65
166,121,69,138,57,47,92,66
208,119,55,110,49,46,98,79
213,124,62,117,56,47,103,85
223,118,65,116,58,42,85,77
235,128,69,124,67,44,77,77
238,136,67,111,61,43,72,76
196,133,68,110,63,39,62,63
184,120,60,103,58,37,56,56
190,125,56,95,57,39,62,57
196,114,52,107,50,34,59,61
194,127,52,116,55,35,60,62
190,130,53,121,56,34,52,57
229,135,51,132,57,34,54,64
212,149,57,137,59,35,50,60
203,147,61,142,65,40,50,55
204,132,56,143,62,39,48,54
223,129,54,141,61,39,49,58
183,129,63,137,65,53,62,55
188,120,58,131,63,52,61,61
202,127,63,105,54,47,59,60
232,169,74,106,56,45,60,58
217,174,85,117,61,49,62,58
224,189,89,155,70,40,54,58
218,186,94,170,84,48,64,53
212,197,87,180,88,50,63,52
185,167,85,177,86,50,61,56
181,157,75,170,82,49,64,54
172,139,65,154,81,50,58,48
183,137,58,140,72,42,49,53
180,151,60,132,70,44,53,54
190,150,56,142,72,49,64,54
199,163,61,143,77,53,62,62
233,164,69,147,86,60,67,69
226,165,82,183,96,68,72,66
220,166,88,189,97,72,80,68
211,188,87,180,98,69,71,64
196,188,86,205,99,66,71,61
156,181,81,189,84,56,65,54
170,183,75,163,74,46,62,56
153,157,70,209,86,37,50,50
142,123,74,227,92,40,52,53
141,102,75,213,87,37,52,45
141,134,70,216,94,41,56,54
136,134,64,229,98,42,50,52
171,157,65,199,93,43,46,57
181,160,62,178,87,54,72,66
190,165,64,179,93,57,78,67
202,162,69,196,91,55,82,61
209,163,68,178,86,55,85,71
227,176,59,154,76,53,84,69
223,178,63,155,76,46,72,62
213,175,53,148,67,42,65,61
203,163,60,131,58,40,57,63
214,164,60,119,48,39,58,53
181,131,65,128,51,42,64,53
173,132,62,134,43,36,55,49
243,151,63,123,42,37,58,58
251,147,52,107,39,38,64,64
241,152,55,110,40,35,61,66
260,152,51,96,35,35,60,63
285,151,49,99,41,37,70,79
243,135,48,131,43,34,66,73
243,146,53,136,47,32,60,66
233,134,52,133,50,35,61,63
220,121,59,147,60,35,55,66
257,156,65,152,66,40,53,67
256,161,70,156,79,46,54,70
256,153,76,166,81,52,62,70
261,149,83,170,81,51,62,75
244,151,79,159,75,51,68,77
174,107,78,148,66,45,58,60
163,96,79,117,58,42,56,61
149,107,68,90,53,35,49,62
168,156,70,92,52,36,48,58
190,160,71,102,55,34,44,62
207,165,66,105,60,34,43,62
252,170,63,102,50,37,46,59
262,170,83,133,59,39,48,61
251,140,73,138,58,37,48,61
240,145,72,132,54,36,45,50
244,140,71,122,49,40,50,59
202,131,67,121,50,39,54,61
197,158,58,94,41,35,53,69
195,148,57,86,45,34,50,68
210,140,63,119,45,37,54,71
224,145,69,123,47,37,57,67
235,155,74,123,50,37,55,66
232,118,66,127,53,40,53,55
223,120,66,154,52,42,54,55
202,122,65,134,53,39,53,54
177,115,60,140,56,38,54,66
199,109,61,155,64,37,60,73
200,111,62,155,72,38,62,74
220,122,66,153,72,38,69,78
231,142,63,162,72,42,68,77
221,147,64,156,70,40,65,70
183,146,69,156,61,37,55,63
203,152,69,152,48,36,55,63
187,155,77,134,50,35,44,54
199,156,90,138,59,34,52,58
203,159,88,148,66,40,51,55
213,169,81,143,66,40,52,53
197,177,82,145,67,44,66,60
216,182,75,150,70,46,72,70
215,166,55,134,66,44,67,72
222,158,63,128,63,37,67,73
222,146,73,121,61,41,71,76
218,124,76,143,65,38,61,72
215,145,84,145,58,38,58,70
207,160,87,142,58,41,71,74
199,172,83,139,51,44,75,68
208,175,76,163,63,42,75,67
202,183,81,150,61,40,72,66
211,160,69,146,61,39,74,67
212,146,73,168,59,35,61,59
213,136,76,172,59,36,58,63
193,136,75,149,46,35,57,63
216,126,61,136,44,37,58,59
178,116,64,137,51,39,51,51
180,125,78,130,62,46,58,61
191,119,76,130,63,48,77,72
207,118,87,140,73,55,84,75
191,121,91,164,82,57,81,73
204,143,92,162,77,54,81,74
194,137,82,153,72,55,91,75
191,155,83,155,75,51,75,60
181,178,90,171,84,47,68,60
173,177,91,161,81,47,70,65
162,164,93,160,83,52,77,69
153,163,90,158,82,46,58,60
185,150,86,154,82,45,57,69
210,117,70,137,71,45,59,67
206,112,65,143,67,41,67,67
239,113,56,145,71,39,63,62
245,103,50,152,71,37,61,59
205,96,60,153,75,40,60,54
217,148,54,150,71,35,64,57
219,145,64,142,70,36,59,53
188,157,64,131,63,34,57,55
188,160,63,124,65,35,56,56
205,162,58,122,62,31,54,53
207,117,62,118,61,29,45,59
215,126,62,152,76,38,44,71
247,131,71,159,84,43,45,70
247,129,71,165,82,45,54,70
242,131,69,163,80,48,61,69
225,140,68,184,81,48,59,65
217,136,75,195,64,40,52,50
176,111,78,193,56,36,51,50
175,105,81,183,56,35,48,57
165,155,82,184,55,34,43,62
150,154,80,160,52,36,50,62
153,161,73,108,52,38,50,64
169,168,61,102,53,38,53,71
181,171,57,105,53,55,80,75
215,167,59,104,57,59,82,73
213,186,68,115,60,57,79,70
236,198,61,110,63,57,89,76
229,191,62,113,62,56,92,71
217,193,68,113,58,39,69,61
200,174,69,109,51,31,68,59
196,158,61,98,49,37,72,59
173,143,59,94,47,42,67,55
193,141,57,95,49,43,59,53
239,144,54,95,50,44,62,55
228,141,53,98,50,44,62,59
230,123,51,111,63,50,65,61
237,110,59,121,67,50,67,68
236,122,68,124,68,50,70,73
199,118,67,126,66,50,64,69
218,106,64,126,66,49,60,74
229,119,71,133,59,45,61,88
235,135,72,175,58,43,52,83
217,125,65,171,58,47,54,85
216,129,64,170,58,47,55,86
199,123,65,175,64,49,56,82
180,115,57,172,67,46,53,66
190,106,49,125,73,54,70,72
193,123,51,119,69,47,66,64
199,119,53,116,70,48,69,65
207,132,54,113,69,50,73,72
237,137,55,91,60,52,82,76
219,129,53,79,44,43,68,73
216,127,54,88,47,45,69,76
225,136,53,88,48,46,69,75
219,122,47,84,45,42,64,65
204,130,55,127,55,42,49,55
196,134,59,149,64,49,56,49
231,139,62,148,65,52,66,62
214,133,63,149,67,52,68,67
231,138,64,160,74,54,69,69
215,128,64,159,71,51,69,69
217,178,68,160,69,47,71,73
179,165,66,165,69,41,60,59
172,166,65,163,67,43,63,54
143,168,74,183,66,43,74,53
175,177,68,169,75,50,80,55
177,146,64,162,75,50,75,50
204,146,65,158,73,51,76,57
232,151,65,157,72,52,82,63
236,162,55,122,71,55,85,65
215,171,57,127,61,49,84,72
265,157,52,131,54,46,83,75
244,153,51,135,58,45,84,70
234,143,54,138,60,43,74,67
237,152,56,139,55,37,56,66
234,126,55,122,51,33,45,56
172,141,59,111,53,34,51,59
187,147,62,110,57,40,57,62
169,153,60,127,65,42,61,60
180,141,56,123,64,41,63,64
197,154,64,126,63,42,66,65
206,141,66,116,62,47,78,69
198,138,64,113,54,43,74,70
194,142,63,119,48,43,72,69
217,134,68,120,47,43,68,61
209,130,62,112,48,45,68,62
198,133,62,118,52,38,48,47
195,128,59,122,55,38,46,46
229,134,63,92,51,41,61,51
191,129,64,94,57,42,62,54
214,137,64,121,67,41,65,57
267,140,61,125,66,43,66,66
308,159,64,120,68,44,67,66
300,150,65,128,71,42,59,63
308,153,58,132,70,40,59,62
316,159,59,118,62,40,54,68
284,153,65,108,60,39,55,67
265,151,65,105,56,39,59,87
293,153,60,96,54,38,58,102
323,162,63,80,49,39,59,104
316,152,60,86,49,37,56,101
316,151,51,83,45,37,55,104
309,144,47,87,50,39,53,88
270,139,55,103,53,38,45,69
267,133,65,116,56,41,55,70
288,132,72,107,52,43,57,72
293,128,75,106,54,45,58,71
307,127,84,101,49,40,57,74
371,141,97,91,46,41,59,84
349,138,91,93,45,37,52,84
338,139,90,94,46,38,54,80
374,168,97,103,51,67,93,98
412,184,93,106,50,71,100,132
391,193,80,117,49,73,104,139
393,201,80,114,52,75,106,145
443,199,88,117,54,75,109,159
423,180,82,107,48,52,82,146
377,164,83,126,51,46,71,120
380,155,86,116,51,43,62,111
414,144,89,108,48,46,66,113
352,178,83,116,44,43,58,100
353,191,92,117,46,42,55,109
358,210,93,100,51,46,59,102
392,206,86,96,53,52,79,113
369,250,91,99,49,47,77,115
372,232,91,77,49,49,79,113
433,226,79,81,46,48,83,125
450,264,76,81,39,48,84,131
447,269,77,75,35,43,74,134
436,231,67,72,38,44,71,125
439,228,55,73,36,43,68,121
381,233,56,74,41,50,82,130
384,161,89,87,39,48,82,125
337,157,111,113,40,45,83,113
375,181,119,117,39,45,82,125
365,187,122,117,41,50,88,131
363,200,149,143,47,47,71,109
397,210,132,132,48,48,75,137
419,199,120,116,49,51,79,163
414,195,112,109,51,54,83,166
449,198,120,115,52,57,92,182
502,213,103,103,49,57,96,196
529,212,105,110,49,57,94,181
528,217,100,105,46,56,90,157
519,222,100,106,49,56,91,151
544,273,93,102,49,52,83,165
518,265,98,102,48,50,76,144
433,260,96,100,49,48,75,145
498,279,100,100,50,45,70,150
512,306,100,100,46,48,70,151
500,287,118,120,47,44,70,125
505,290,104,97,46,46,74,128
539,295,103,88,45,44,68,125
505,308,105,92,45,47,83,134
485,268,125,113,47,44,80,128
489,249,109,96,44,49,83,143
468,232,106,95,43,50,87,154
456,286,110,101,48,53,103,167
448,263,108,108,47,55,101,169
442,279,87,85,43,53,99,168
395,279,89,87,44,52,99,154
412,301,87,91,45,50,97,148
389,258,81,86,39,46,82,131
359,261,79,72,39,41,70,113
371,261,85,76,38,40,69,114
365,262,89,71,37,37,56,100
334,247,95,75,34,33,46,85
364,261,93,74,38,43,79,105
338,253,92,74,37,43,80,97
335,239,82,68,35,44,81,93
338,245,76,63,35,44,84,91
321,244,81,79,41,46,92,94
301,236,87,80,37,37,69,72
319,233,88,80,40,40,71,80
320,244,92,80,42,40,70,87
314,235,92,85,41,40,70,86
316,223,86,70,51,47,74,92
321,236,80,69,50,46,68,89
323,236,81,68,48,45,74,88
340,232,76,69,50,44,77,84
359,242,70,61,50,46,76,89
380,262,67,60,38,40,67,83
365,257,72,61,39,41,68,85
401,297,63,63,40,43,60,91
410,355,77,66,43,47,62,98
453,400,101,106,46,47,61,106
465,395,95,101,45,43,60,111
462,398,93,99,46,43,59,110
461,377,99,103,43,40,58,110
437,320,93,102,37,31,53,101
383,263,77,67,35,29,54,96
350,245,90,75,34,32,55,89
339,212,88,75,32,32,61,86
284,281,86,70,35,34,63,80
283,276,96,77,40,35,64,90
259,257,97,79,39,38,62,85
256,257,95,84,41,36,63,84
301,277,98,85,40,39,61,86
285,180,95,81,39,37,54,77
264,194,83,73,34,38,53,64
268,185,82,69,36,39,55,66
283,199,104,88,45,43,55,67
267,185,111,88,46,41,55,70
287,199,113,89,49,41,58,80
286,180,110,88,50,42,55,79
272,195,107,89,49,39,53,75
338,184,76,56,42,35,51,76
310,174,67,60,43,36,55,72
294,166,66,62,42,39,54,66
341,179,86,69,40,38,57,72
342,183,88,68,38,38,59,75
254,198,92,73,35,35,59,78
289,204,91,71,38,35,57,83
289,203,92,71,38,34,63,82
275,186,80,74,38,35,65,84
315,227,75,70,42,38,66,83
334,211,70,62,42,40,65,79
318,213,68,59,37,38,60,75
325,231,71,60,38,36,54,77
302,267,71,47,38,35,50,79
259,226,71,48,33,34,49,84
259,225,81,47,34,36,54,82
289,267,84,51,36,40,71,95
285,261,94,52,39,41,71,100
306,235,90,54,39,39,69,99
317,247,102,60,40,40,67,96
291,245,108,67,43,37,63,93
244,209,113,67,43,34,47,78
242,204,111,68,38,32,44,71
206,193,112,72,38,34,46,57
215,173,103,65,35,32,52,56
312,190,91,61,35,38,54,74
314,171,83,56,35,34,52,74
305,164,69,51,36,39,57,74
331,182,64,39,36,44,67,85
345,198,63,39,40,46,68,88
269,188,63,39,35,42,64,76
269,188,59,40,33,43,68,74
277,186,62,40,32,41,65,77
273,176,66,43,33,38,73,72
281,195,63,45,31,37,74,83
278,212,65,39,32,37,74,79
286,211,67,44,32,39,72,80
283,221,72,56,32,38,73,78
277,232,72,55,33,39,67,83
250,205,68,54,30,36,60,70
248,193,62,54,31,38,59,68
256,193,64,56,32,33,59,68
301,204,85,56,35,37,61,75
279,189,85,61,36,31,48,63
304,217,84,60,37,34,50,70
315,231,88,66,38,34,51,74
302,226,91,62,36,37,55,78
273,204,66,53,33,34,49,72
297,232,68,49,31,35,49,79
253,206,75,52,30,32,46,68
245,192,78,47,28,33,46,64
249,249,73,48,33,32,44,66
229,275,88,69,34,32,45,64
194,248,86,75,32,32,47,55
202,250,82,79,34,32,46,57
207,247,74,79,35,35,48,59
224,191,82,83,32,36,50,55
246,164,81,67,33,37,49,58
272,192,85,63,35,35,45,58
287,179,83,56,31,36,51,64
294,193,85,55,33,37,57,74
299,204,89,56,36,36,52,71
316,227,87,65,36,39,53,78
309,204,87,63,38,39,53,79
304,243,88,62,40,41,63,86
311,248,93,67,42,39,61,93
327,248,82,61,41,39,64,102
332,314,72,53,40,36,65,101
457,369,81,63,42,44,80,119
488,394,83,66,43,42,70,115
478,391,74,64,39,40,67,103
493,386,79,65,38,41,65,104
468,313,74,61,38,41,63,98
356,273,68,53,35,40,54,77
299,199,82,62,36,41,55,72
308,237,86,59,37,39,55,76
278,258,101,64,38,38,53,66
284,264,102,65,38,41,59,69
268,263,96,62,39,36,57,80
276,258,89,61,39,33,53,81
298,239,90,62,40,34,50,78
289,295,75,59,41,37,56,83
279,299,87,61,41,33,49,80
293,297,85,60,39,34,44,77
295,335,83,50,38,36,48,77
262,331,82,53,38,39,53,74
251,266,81,50,36,37,51,68
280,261,74,52,35,38,55,75
249,259,81,63,41,39,54,66
259,221,78,64,39,39,52,68
282,197,86,64,37,37,50,75
305,205,81,62,36,38,50,75
291,216,82,62,39,39,57,74
333,207,87,101,41,39,54,83
316,278,119,133,50,38,58,90
314,310,110,131,49,41,57,86
299,301,116,134,52,41,56,87
293,292,122,138,50,39,44,84
258,324,118,107,46,42,58,84
285,267,88,62,39,41,56,78
267,248,98,67,41,38,55,85
266,267,113,78,39,38,56,85
260,280,104,70,39,37,60,83
275,280,106,73,36,34,53,87
273,285,113,84,34,35,53,85
271,292,109,82,35,37,54,81
246,281,96,76,36,36,53,76
257,278,95,75,37,40,57,80
242,285,104,76,36,37,51,67
211,276,101,68,37,36,49,65
204,256,102,68,34,34,48,60
225,275,94,58,31,33,51,62
232,259,107,62,44,37,61,69
253,192,99,62,45,39,64,71
277,200,91,68,51,41,69,75
282,199,92,72,54,43,70,80
272,177,100,72,55,44,69,77
277,187,88,73,46,35,63,70
270,208,80,68,45,34,61,68
241,203,85,61,36,32,56,63
293,220,84,57,34,30,56,67
309,215,74,54,34,32,56,69
303,213,72,56,29,32,43,72
314,201,81,67,34,32,42,81
314,203,78,66,34,30,40,80
289,186,74,67,34,33,40,76
294,202,78,75,38,30,35,76
312,201,84,79,41,32,43,78
294,206,85,79,38,31,40,65
290,245,94,82,38,35,42,63
294,236,93,82,37,32,44,66
295,232,91,76,35,33,47,75
298,232,95,71,38,41,61,76
287,231,94,74,36,41,63,75
335,182,85,74,40,41,67,89
310,181,84,79,42,41,73,92
282,192,84,82,46,47,81,91
240,188,73,80,44,41,69,84
269,250,61,70,47,41,71,94
217,250,60,68,46,40,69,89
217,269,76,60,48,44,62,83
219,248,74,56,42,37,50,75
237,257,77,58,44,37,48,78
220,195,77,57,43,38,45,74
213,197,82,56,46,44,53,71
237,192,68,53,41,41,54,79
251,208,72,58,41,42,55,80
262,196,72,57,40,42,58,82
253,214,79,56,40,48,70,78
263,203,73,55,33,42,62,72
260,198,82,71,31,40,57,62
262,194,86,71,36,41,57,75
279,201,102,89,36,41,59,71
313,170,106,92,36,40,56,73
343,185,106,92,36,40,59,81
337,171,101,82,40,39,60,88
326,170,102,92,40,39,59,79
295,193,88,75,42,38,54,78
262,221,74,72,41,31,46,86
229,215,79,73,43,31,51,90
237,218,77,72,40,35,57,89
257,218,72,59,38,33,57,89
281,221,81,67,41,39,63,95
305,191,86,68,41,40,62,102
295,228,104,80,45,42,67,96
298,236,102,79,45,39,63,97
322,245,99,80,44,39,63,105
321,228,94,71,38,33,59,97
302,236,99,71,39,32,58,85
333,214,84,55,32,34,52,98
329,211,88,58,35,41,60,95
309,188,94,63,37,41,59,91
282,188,109,70,36,48,66,96
293,191,105,74,37,48,64,94
350,211,110,84,45,50,82,121
334,206,115,85,43,50,83,123
370,247,111,78,42,52,93,143
400,243,152,133,43,49,91,144
384,233,154,138,45,53,94,144
390,216,150,133,38,49,80,133
419,251,149,134,41,47,79,134
399,221,151,138,43,47,72,115
381,220,110,94,45,44,67,109
428,238,114,88,43,42,68,128
394,233,119,98,49,49,81,139
382,193,115,96,46,58,106,156
430,206,119,96,47,60,112,168
469,248,111,98,49,61,113,173
452,236,109,99,50,60,116,164
440,237,102,88,44,58,112,151
451,267,100,87,44,47,88,153
404,249,110,86,47,48,87,147
388,210,108,70,46,47,87,153
386,208,105,73,45,45,79,151
373,202,103,75,48,41,71,145
387,189,114,101,53,52,76,143
423,219,98,100,50,48,75,147
473,264,112,122,47,53,84,158
644,284,126,119,58,71,129,279
775,307,130,131,61,82,156,341
795,300,123,113,60,91,178,352
817,304,131,113,65,97,181,356
847,281,147,130,91,128,212,399
776,267,215,149,93,137,198,338
695,270,264,161,105,175,208,285
740,281,307,182,136,230,257,278
721,255,308,182,137,241,292,289
683,351,355,169,127,232,303,238
651,435,409,199,145,253,423,243
608,436,388,190,148,301,424,253
508,438,369,173,122,268,403,256
502,509,500,205,138,294,433,273
503,478,493,208,145,328,454,277
509,457,507,212,178,399,654,333
535,497,544,246,184,366,722,329
559,531,570,265,201,391,776,331
532,554,509,258,202,445,860,371
543,649,581,315,245,482,879,431
515,655,558,313,218,437,790,404
596,674,542,317,213,430,766,464
690,701,570,349,228,423,754,584
885,744,687,410,293,473,784,734
879,660,636,373,269,450,782,736
932,627,603,352,267,430,712,741
942,591,603,338,271,442,731,759
883,531,575,311,247,427,704,686
727,392,380,228,156,279,534,475
736,354,338,208,154,273,549,443
761,372,318,208,154,305,564,448
758,373,308,254,137,287,512,411
812,373,283,252,138,286,485,384
824,383,279,235,132,282,483,399
832,419,254,242,103,223,419,374
875,412,247,246,93,181,366,365
864,394,238,237,91,160,315,308
837,452,203,223,82,149,309,325
825,434,195,227,78,144,308,346
839,418,192,215,76,144,297,352
706,407,195,232,69,109,239,315
686,386,173,164,71,111,252,337
657,288,163,157,70,108,245,318
636,273,149,144,68,116,259,283
600,286,150,149,66,111,244,270
713,277,194,139,67,114,241,292
646,276,196,142,56,106,218,241
654,321,189,126,57,102,217,242
680,333,192,124,58,92,176,248
680,298,214,132,63,80,141,232
590,294,181,104,61,76,141,200
609,340,170,93,60,75,150,204
601,309,171,95,59,76,152,197
686,313,170,100,58,68,152,209
699,316,145,94,54,71,156,247
680,324,133,94,54,72,157,251
708,298,122,107,59,76,172,278
735,331,118,107,61,79,175,291
674,344,115,104,58,69,158,276
625,416,158,115,57,63,152,240
618,429,196,113,60,65,147,236
581,413,191,100,54,59,125,218
523,381,190,98,50,52,104,185
472,341,187,99,48,60,132,188
468,248,171,123,41,57,130,181
499,240,126,128,37,55,133,200
484,247,120,127,42,56,134,192
495,240,121,132,45,68,155,210
562,266,131,138,49,60,127,211
584,287,105,110,53,63,129,211
539,261,116,99,49,62,128,196
559,254,113,95,49,63,131,192
578,264,112,91,46,54,117,177
490,290,103,82,45,63,130,159
443,255,109,101,44,61,121,148
473,281,106,106,46,62,119,146
435,292,109,108,46,58,107,122
383,300,108,108,49,70,130,121
352,260,110,106,45,67,128,122
335,258,104,81,47,64,127,123
294,293,94,82,46,63,131,115
339,288,93,82,48,66,130,130
372,273,93,82,44,49,102,139
446,284,98,92,48,45,95,152
459,305,96,87,43,46,97,153
480,270,88,76,42,48,91,154
471,276,99,85,46,48,93,152
433,275,103,89,46,53,95,135
361,273,108,89,49,53,89,111
405,258,104,89,53,56,100,129
396,238,106,91,52,54,103,141
380,207,96,84,50,54,105,142
390,259,109,94,52,48,98,141
368,266,115,112,50,48,96,142
314,252,111,106,48,45,86,124
285,255,108,105,47,46,84,105
262,272,110,104,46,46,82,91
339,239,100,99,42,46,88,113
351,218,81,64,38,43,85,118
335,215,81,62,35,43,89,119
333,198,83,65,35,42,85,120
354,176,85,81,31,35,75,119
263,152,73,72,29,33,76,96
242,142,67,71,29,34,86,93
278,154,76,75,32,35,78,96
273,161,75,71,34,35,80,98
243,170,65,50,32,35,77,88
261,163,65,46,34,37,68,87
304,159,82,71,37,38,67,94
271,151,72,69,36,36,69,83
293,119,75,68,33,35,70,88
301,145,87,75,39,35,68,87
348,171,87,75,36,33,80,108
364,190,70,52,38,35,78,111
374,194,85,62,38,35,73,111
366,209,82,63,40,35,75,112
372,193,80,67,35,38,78,122
339,177,81,68,34,35,65,102
299,178,87,77,32,38,64,91
306,185,80,68,32,36,70,101
333,179,84,71,35,42,82,103
323,169,77,60,37,47,99,104
289,163,77,60,37,50,103,105
294,164,74,60,36,47,102,112
282,155,73,65,37,48,98,108
239,167,68,61,36,47,93,101
276,165,83,80,37,39,71,92
277,171,86,88,37,34,65,89
266,152,84,82,37,34,63,78
290,183,79,78,40,39,70,94
298,173,102,95,39,36,74,92
258,173,90,82,37,38,81,90
300,174,91,76,38,41,83,98
314,178,104,84,40,42,77,95
305,152,103,81,35,42,81,87
354,145,85,61,37,46,81,103
363,142,83,58,38,46,75,105
360,161,106,71,41,50,83,109
371,164,92,68,44,55,94,116
397,174,100,93,50,60,113,121
391,179,97,97,51,59,112,115
384,185,98,97,49,58,112,115
393,185,79,92,48,57,117,110
402,205,85,101,44,52,112,113
359,190,81,82,39,45,91,108
338,203,92,85,37,45,98,127
354,216,94,91,37,44,103,139
325,214,85,85,37,43,94,141
313,198,78,68,35,41,92,139
351,207,89,77,38,41,88,139
345,197,94,88,46,46,82,128
362,218,98,81,47,49,92,121
375,221,106,87,46,49,90,119
373,215,121,94,48,51,93,111
407,223,109,83,46,51,95,112
448,243,99,69,37,45,88,108
464,220,95,73,39,47,80,126
460,201,101,80,41,46,80,127
502,221,94,80,46,64,124,172
469,212,109,88,48,67,128,169
421,180,106,82,46,65,124,163
390,184,104,79,45,64,122,149
407,205,93,69,46,69,129,156
330,183,84,61,40,52,95,107
302,178,75,69,39,51,89,103
310,185,72,69,43,53,95,106
319,192,83,68,42,50,95,101
368,182,90,73,44,51,105,107
369,195,91,77,50,55,103,114
434,199,91,81,57,65,131,164
439,203,93,82,54,63,131,164
442,189,87,83,56,68,129,165
389,193,84,94,54,66,117,153
405,202,82,94,48,64,113,154
363,208,74,80,40,53,77,106
338,202,79,84,39,52,74,100
305,199,80,85,36,46,74,97
333,207,81,77,32,38,74,102
327,196,82,76,31,34,66,91
317,194,84,81,31,39,67,86
328,208,78,78,32,39,66,85
330,207,74,78,34,37,67,93
309,197,62,65,35,37,58,85
330,183,71,63,35,39,63,92
322,192,69,54,33,33,62,88
433,236,73,55,37,39,67,119
462,243,84,59,38,44,70,129
466,249,87,60,39,44,69,136
469,253,82,63,42,46,84,148
483,254,82,69,42,47,92,149
392,230,80,66,39,50,101,135
372,224,73,82,41,53,106,122
392,227,88,94,43,54,112,139
387,241,88,90,45,54,105,134
449,241,85,87,47,55,102,141
477,218,89,88,47,54,93,147
471,216,86,79,47,46,84,144
486,227,77,72,45,44,76,132
470,202,79,76,41,42,71,123
396,187,78,72,38,39,63,114
489,210,76,93,44,49,96,144
497,247,74,83,39,51,98,149
464,223,65,80,39,53,99,140
466,227,56,76,38,53,98,138
499,251,66,78,39,58,109,142
385,222,62,58,30,44,77,106
396,206,65,76,36,51,104,133
370,219,67,83,37,50,106,133
372,232,72,85,38,55,109,135
346,208,68,87,36,53,111,128
360,224,64,89,43,57,117,130
352,209,71,80,41,51,102,107
348,213,72,71,40,52,106,110
352,201,69,70,45,55,112,131
344,199,70,68,45,52,100,133
346,186,75,64,44,54,106,150
332,176,73,59,47,60,116,152
334,154,78,63,46,58,112,153
368,175,84,65,44,54,106,140
395,185,91,76,46,55,111,147
416,205,98,97,49,49,95,126
446,224,103,128,53,43,75,127
467,232,109,144,63,45,74,128
445,240,114,150,61,43,68,129
420,234,106,146,60,45,68,124
387,215,105,133,58,49,79,139
376,233,96,103,52,50,86,132
391,233,95,81,39,52,91,139
377,202,92,81,37,49,89,130
375,206,92,83,39,48,91,137
395,213,85,81,36,47,95,132
387,175,90,85,35,44,89,129
347,157,81,80,37,40,82,112
334,159,74,68,38,41,82,112
340,157,74,62,35,40,73,108
294,189,74,61,35,38,71,87
267,196,83,71,34,35,61,84
299,208,84,72,34,35,62,89
324,251,83,73,35,34,66,98
297,264,80,70,37,43,93,95
301,237,79,74,36,43,83,99
330,239,83,88,39,45,89,103
304,248,76,93,39,46,92,100
282,208,78,88,41,49,97,98
322,208,81,90,37,42,84,104
338,246,84,88,40,44,97,121
311,246,73,70,39,43,95,118
354,231,93,88,39,42,99,131
377,250,92,96,46,51,114,145
355,247,89,95,46,51,107,133
422,207,88,94,44,49,99,123
436,199,91,95,42,48,99,128
414,196,72,71,42,49,95,114
387,163,69,64,30,35,69,93
436,148,77,69,36,41,73,110
374,167,78,71,39,44,79,111
413,187,105,92,42,48,90,131
421,187,109,94,38,46,86,136
437,186,109,95,45,51,88,137
422,205,106,97,40,46,86,133
414,185,105,101,39,45,87,130
399,182,66,72,38,43,76,122
419,191,65,71,40,44,77,134
415,221,67,70,35,40,77,134
394,233,64,64,36,42,79,129
395,247,66,54,35,38,68,126
343,228,71,63,31,38,70,104
320,231,65,66,30,36,68,77
351,221,66,64,31,40,74,88
328,196,65,62,29,36,66,84
315,193,67,67,28,38,73,89
345,221,63,62,30,36,71,97
362,213,60,55,32,42,79,113
336,191,53,50,30,40,73,112
335,179,58,64,31,40,73,111
349,199,70,76,38,42,66,108
346,219,79,89,40,45,68,112
292,228,78,90,40,42,61,97
271,232,81,98,42,47,66,82
298,244,80,93,45,52,79,92
297,228,73,87,38,48,75,91
271,176,59,77,36,44,70,80
289,190,61,75,37,45,72,88
370,227,66,70,39,43,68,93
376,230,63,67,35,39,56,88
353,237,89,96,38,45,68,88
379,272,99,102,40,49,82,98
413,263,103,104,41,51,87,105
353,245,102,104,37,48,83,105
373,226,102,106,41,50,100,116
413,245,81,76,40,46,95,115
396,224,79,67,43,43,85,109
356,218,74,69,41,36,77,96
380,246,72,64,46,46,91,103
339,249,71,60,41,40,69,87
356,232,76,76,45,42,69,86
354,219,72,76,44,42,72,89
355,219,72,70,44,50,83,96
315,189,72,69,39,42,68,83
331,207,72,72,40,43,74,88
289,198,71,68,37,40,73,87
307,226,66,70,38,47,81,85
318,246,65,72,38,39,69,78
339,238,64,77,38,40,70,83
322,232,65,81,39,39,64,77
307,230,54,68,42,44,73,76
300,227,55,63,42,47,79,74
281,201,56,63,42,51,83,78
267,192,52,56,42,52,84,75
260,176,50,57,41,52,87,79
256,199,59,59,36,48,77,78
305,178,60,61,32,39,65,84
301,203,62,66,38,42,72,81
313,221,68,79,41,47,84,83
365,248,72,86,42,48,89,87
392,241,66,84,44,49,90,89
353,231,64,83,45,45,82,79
359,228,107,99,41,40,75,80
353,217,121,93,37,31,58,78
350,207,121,78,35,30,48,71
332,182,122,79,31,32,53,68
323,183,130,78,30,36,65,71
318,166,184,56,28,37,65,67
331,174,207,81,31,40,71,71
270,156,230,89,31,39,70,67
278,159,234,87,31,38,71,88
266,152,233,88,34,40,69,88
260,143,181,85,35,40,66,89
243,144,151,85,34,41,74,97
311,145,134,91,38,48,92,121
293,144,129,93,38,50,100,116
364,149,124,99,38,51,107,127
391,146,112,100,38,51,113,133
393,150,115,91,35,47,107,129
345,149,90,81,33,42,95,111
337,169,96,81,33,41,95,112
262,176,100,72,30,40,87,97
226,189,117,84,31,42,83,93
214,188,167,76,34,43,79,86
217,180,179,71,32,41,75,80
221,167,178,66,29,42,63,67
239,153,180,66,32,37,57,69
253,150,210,49,33,32,48,67
294,181,198,61,52,49,85,87
334,205,200,65,54,54,89,96
339,202,200,76,56,52,92,101
334,210,201,81,57,60,108,101
338,200,169,90,58,62,115,106
374,214,163,101,47,52,91,93
356,225,152,102,49,53,95,92
359,236,150,95,47,53,93,87
387,243,157,94,47,45,75,91
367,241,165,85,47,43,63,78
295,195,131,67,44,48,73,88
295,210,131,73,45,46,74,81
299,199,138,73,44,43,69,85
264,196,128,72,43,43,68,84
268,196,116,77,44,42,69,85
258,207,155,82,42,37,63,72
275,170,220,90,39,35,52,85
258,187,233,94,40,37,50,82
259,195,256,116,44,39,56,79
263,214,261,112,43,46,65,86
289,203,242,102,48,79,74,93
271,223,185,88,60,121,88,94
272,220,179,94,63,127,93,90
320,228,180,94,66,130,96,104
324,249,177,94,66,132,96,97
333,254,176,97,62,118,93,97
322,230,175,97,50,76,78,84
324,224,170,105,48,68,82,84
289,228,151,88,38,62,79,84
292,194,157,95,39,52,73,89
287,210,156,99,40,43,68,87
280,203,160,98,38,40,71,85
269,208,162,82,37,37,61,87
276,182,155,92,38,35,52,74
322,194,140,86,34,38,58,80
313,194,163,88,39,40,56,84
325,194,161,95,40,38,59,87
319,190,155,105,42,38,57,86
300,209,171,108,48,40,62,85
281,215,173,116,56,40,56,81
284,198,159,113,52,51,79,82
292,204,157,109,51,49,73,81
301,209,167,104,47,49,73,79
292,201,139,83,43,51,74,76
254,190,137,68,34,57,98,79
258,177,130,61,37,47,87,81
274,193,135,66,41,51,91,95
294,202,157,76,43,54,92,99
323,209,176,82,45,56,103,102
325,198,186,82,42,49,86,110
326,197,183,82,44,50,85,104
320,201,195,87,42,47,85,98
295,197,210,110,45,46,92,94
277,207,201,118,40,38,80,93
313,217,192,117,42,39,78,116
299,218,193,118,39,38,74,120
287,209,187,116,40,37,73,115
295,220,152,94,40,41,67,122
349,197,148,90,40,42,68,136
310,203,195,131,40,41,65,105
322,216,207,141,43,42,68,106
335,220,204,138,42,43,65,109
328,196,203,133,39,41,62,101
271,187,198,132,43,39,58,78
292,243,150,92,42,43,60,83
282,251,144,79,38,43,56,72
277,239,131,75,38,47,60,87
286,236,115,85,36,43,59,89
303,253,135,82,36,42,59,86
305,193,170,86,35,39,56,85
296,166,161,87,36,36,58,86
304,182,160,89,33,32,58,67
340,204,167,85,36,34,60,77
354,213,160,79,35,35,64,89
355,210,125,74,34,33,67,100
350,220,146,79,35,32,66,100
343,199,147,79,36,38,80,106
328,188,128,66,32,37,82,112
322,185,161,76,31,43,96,120
315,180,164,76,32,43,94,111
325,174,141,67,29,45,93,115
328,171,140,85,29,41,79,108
324,236,163,149,32,39,77,104
319,277,144,161,32,37,56,90
306,283,141,169,31,37,58,87
290,282,171,170,31,35,56,81
351,299,185,163,31,38,67,115
353,280,173,108,31,41,66,112
331,233,176,96,35,39,64,107
337,284,189,98,37,38,62,106
345,289,166,95,37,39,65,115
267,300,180,93,37,41,83,86
289,278,177,94,39,40,82,88
298,275,160,104,40,40,85,88
310,243,143,99,43,40,86,98
344,265,146,99,45,42,89,101
360,250,114,97,46,37,65,107
325,235,122,96,44,36,66,101
322,238,123,73,39,36,63,105
312,209,119,57,39,40,62,101
277,189,117,60,37,40,62,90
242,175,129,65,35,38,59,78
244,192,117,65,36,38,65,81
250,185,110,68,44,46,77,76
242,185,110,71,44,48,75,74
266,203,120,70,43,47,77,74
284,213,118,69,43,51,83,82
293,198,125,72,45,52,80,86
274,210,142,71,39,48,77,89
273,232,146,76,36,46,77,88
255,213,158,75,37,44,74,85
315,212,149,72,36,40,67,90
305,211,145,76,35,38,59,84
302,191,129,71,33,32,48,77
307,175,122,68,31,28,41,74
329,181,116,75,36,37,50,84
275,165,124,89,35,39,57,73
309,173,130,89,33,38,58,83
322,188,137,95,36,43,66,86
324,183,150,92,36,45,68,87
321,177,130,87,32,38,60,84
323,205,119,76,34,38,57,82
314,212,145,81,40,43,67,76
306,228,141,76,39,40,65,80
305,234,127,75,39,39,67,84
280,223,138,76,39,42,76,83
277,204,150,74,38,41,78,82
271,211,129,58,30,36,71,83
282,189,141,50,31,38,73,82
314,189,151,60,32,36,76,83
308,196,146,55,31,35,70,78
281,187,136,56,28,37,66,73
266,199,132,67,31,38,69,72
267,261,127,74,31,35,63,69
217,255,112,67,32,37,61,67
227,256,112,69,35,42,75,72
288,270,108,75,44,42,78,89
284,249,96,70,43,45,84,91
291,188,76,73,43,46,87,91
290,200,82,75,43,46,88,89
298,199,89,77,42,40,73,85
246,205,109,74,36,40,73,75
259,214,114,77,39,40,71,77
234,201,117,64,37,40,67,75
278,193,116,73,36,41,71,75
275,188,108,81,40,42,71,76
285,199,93,85,40,41,66,77
293,193,96,79,35,37,67,74
319,198,109,80,36,39,69,79
293,205,115,71,37,40,65,84
281,211,121,80,34,40,68,78
269,177,127,80,33,36,66,74
247,174,127,87,34,37,58,70
222,168,120,88,36,41,63,70
249,156,113,88,32,36,60,72
282,185,112,95,30,34,57,77
279,191,100,96,32,37,67,81
321,194,98,94,40,48,88,97
357,200,84,94,38,44,82,97
332,234,87,94,39,45,84,95
301,218,87,79,43,46,83,93
312,217,96,70,41,44,75,92
287,212,93,66,33,33,51,79
256,217,95,65,32,36,57,83
272,184,95,68,31,34,51,80
325,180,93,70,29,37,59,98
317,200,111,73,29,39,62,96
307,212,109,70,30,39,62,93
333,218,108,68,34,39,61,93
323,228,121,72,39,44,61,95
277,222,116,58,39,49,60,79
297,200,90,60,40,49,65,88
282,179,88,60,40,50,68,91
285,166,91,61,44,61,103,102
354,180,78,59,43,62,115,117
354,201,98,70,48,58,113,117
357,207,96,72,49,57,110,108
394,232,101,76,53,58,110,109
385,238,103,79,52,53,89,100
366,203,98,72,51,50,77,88
400,234,83,74,45,49,82,95
386,232,84,67,46,53,86,104
378,229,80,63,42,51,92,105
378,216,83,63,37,41,79,100
365,233,86,68,36,39,76,95
352,183,101,71,35,40,74,91
356,189,104,74,32,37,74,87
371,175,111,74,34,43,74,104
370,201,129,77,35,45,76,118
362,194,137,80,38,48,80,124
375,207,126,76,39,45,83,128
374,200,126,76,39,44,77,126
330,203,122,76,38,37,68,108
325,235,109,72,36,38,70,97
319,225,97,65,33,38,67,90
299,219,95,54,34,43,72,82
313,228,106,55,39,47,77,88
341,229,112,55,37,44,74,94
318,179,102,62,40,43,74,103
303,190,111,59,38,39,76,106
280,174,108,67,37,37,70,110
279,161,98,64,29,35,74,112
260,173,91,67,31,37,75,112
310,186,111,63,29,39,79,110
294,187,112,81,34,41,75,103
297,192,113,77,34,38,68,95
284,216,111,76,36,41,74,94
292,205,119,72,39,51,93,95
351,190,103,71,43,58,102,116
351,180,90,54,39,56,103,117
351,187,87,48,38,55,102,117
352,171,97,55,40,53,93,116
336,171,98,84,39,46,75,110
228,178,96,85,35,32,50,63
239,181,116,84,36,38,59,64
265,177,115,85,44,56,93,80
261,163,109,84,44,57,100,77
325,208,128,64,44,59,106,90
312,220,150,77,43,63,107,91
329,218,138,78,41,59,101,92
306,219,142,78,38,53,90,97
301,234,166,78,36,50,79,93
248,220,155,85,38,48,72,83
266,201,136,88,45,50,88,94
235,205,132,93,51,58,98,95
315,235,137,104,56,53,87,85
332,228,113,172,68,56,91,94
332,222,110,205,86,58,90,92
333,313,119,217,96,58,81,86
373,317,119,216,93,49,68,88
321,297,113,214,91,50,77,92
296,306,116,170,84,51,76,83
321,298,115,128,65,51,80,91
338,198,105,95,44,44,73,91
315,204,103,92,43,45,76,93
348,225,97,87,39,43,74,90
349,205,86,83,36,38,72,88
317,195,92,90,34,37,70,82
315,214,104,86,35,38,76,79
308,213,107,93,43,45,82,71
279,188,113,92,48,46,76,68
342,209,114,89,49,47,81,76
339,206,108,74,48,46,79,81
322,182,109,99,49,47,73,82
354,218,111,101,45,45,80,103
346,224,106,98,39,40,77,100
284,209,111,101,40,46,81,97
295,211,139,127,45,44,78,96
297,270,151,158,77,51,83,101
249,238,155,200,100,52,71,82
248,225,158,212,107,55,72,81
277,232,159,227,110,50,64,82
329,253,132,230,112,53,68,100
332,202,110,223,94,46,66,95
336,190,97,183,66,41,65,92
334,195,102,176,60,40,67,102
370,221,105,165,59,41,69,111
327,200,104,141,51,39,68,99
324,187,96,104,50,43,65,98
319,206,99,102,50,46,65,102
339,227,98,96,46,46,61,98
363,232,115,76,39,44,58,92
350,229,124,110,43,45,58,83
345,241,127,111,46,45,67,91
350,250,132,117,50,41,67,90
331,229,127,128,50,40,66,81
297,210,109,133,57,48,82,82
318,234,94,114,55,45,86,90
310,227,89,113,53,42,79,79
322,227,88,116,53,45,83,80
329,237,104,108,54,47,85,82
363,242,118,146,64,46,82,85
376,222,122,141,68,48,78,84
389,226,129,154,69,50,79,91
438,312,147,152,68,49,77,97
425,308,140,149,66,47,73,96
360,296,118,106,53,47,72,90
330,298,117,117,51,46,70,83
316,305,117,104,50,43,66,78
240,216,87,96,46,40,62,66
247,221,95,95,49,44,65,75
234,218,112,145,53,36,58,75
225,204,111,151,55,37,57,75
229,201,102,146,52,42,77,82
241,199,114,151,55,43,79,81
295,213,105,157,56,43,81,88
309,207,97,114,52,42,79,87
336,235,112,104,46,41,80,94
385,233,124,111,48,38,71,117
370,208,110,106,46,37,72,120
344,253,108,100,42,37,68,109
332,291,157,110,48,46,66,107
315,269,147,104,47,49,69,105
333,266,141,104,46,48,66,89
355,280,143,102,44,49,68,89
340,226,145,100,47,50,72,93
359,201,105,86,40,43,74,94
426,226,104,76,45,42,74,102
364,215,99,65,43,43,72,90
348,217,112,92,48,40,67,88
358,211,114,87,45,36,58,87
362,209,112,86,43,37,56,96
326,217,120,85,41,49,90,103
329,224,121,89,40,46,89,99
344,255,137,74,46,51,91,104
364,261,141,82,48,50,93,106
367,257,125,87,48,51,99,106
333,239,117,89,46,42,75,90
355,269,124,83,48,50,85,107
324,230,102,103,37,44,84,104
290,223,95,109,39,44,83,97
290,234,117,106,40,42,80,87
322,238,116,104,39,38,73,91
313,197,112,107,38,29,59,84
340,214,125,85,39,29,55,81
379,236,128,80,38,32,57,95
418,231,109,75,34,29,45,105
384,219,107,73,39,36,60,100
370,221,115,83,36,35,58,88
362,256,125,81,37,38,62,91
407,255,131,82,38,42,73,106
353,237,137,82,40,45,76,98
348,231,136,81,36,40,65,95
366,259,129,67,42,41,67,102
372,212,122,64,44,43,78,104
276,188,121,63,39,38,76,77
324,231,131,71,41,37,80,97
329,236,134,77,41,42,84,103
329,219,154,88,35,40,82,101
321,224,152,99,35,38,74,102
329,224,147,91,37,39,72,106
319,178,134,90,34,37,66,91
322,173,134,97,37,36,63,84
356,182,131,102,41,39,67,91
345,173,121,99,38,39,65,83
343,178,131,101,36,35,54,77
312,180,132,104,45,42,63,84
313,181,138,97,41,40,63,86
285,186,145,107,40,41,59,85
305,192,143,113,39,40,63,92
301,184,147,113,42,43,78,97
311,185,144,111,34,42,85,97
335,202,138,120,37,47,93,102
330,194,109,103,38,45,93,101
332,198,117,90,39,49,100,104
342,205,104,97,39,47,91,104
335,205,111,105,45,41,77,97
368,214,113,98,45,43,80,111
354,204,119,93,47,44,80,108
349,196,108,90,46,39,68,99
341,191,101,81,44,42,66,101
344,200,134,113,53,54,77,102
288,169,132,128,54,51,69,81
313,159,128,130,52,49,66,78
357,220,133,135,57,56,77,91
348,216,136,135,57,57,77,85
334,227,100,101,50,53,76,83
366,260,103,84,52,58,85,96
333,288,119,93,53,59,89,94
263,235,110,86,47,52,81,82
268,238,102,87,48,52,93,81
257,224,99,87,45,47,85,79
230,203,105,82,39,41,75,71
241,187,94,67,41,45,85,83
327,202,108,76,43,46,86,100
397,239,148,84,43,48,83,123
410,267,150,80,42,46,84,126
412,271,166,103,50,50,91,134
420,268,172,106,49,45,79,132
404,265,162,100,47,45,77,123
338,242,128,92,51,46,84,108
342,207,156,110,54,45,86,109
335,222,133,100,49,40,78,97
347,207,120,98,53,52,91,107
295,196,130,100,53,54,97,105
280,216,134,100,52,53,94,102
272,207,97,88,49,54,97,98
253,173,129,90,47,55,104,95
238,242,132,92,43,44,92,78
248,247,128,89,43,43,87,74
267,217,126,108,38,40,80,66
254,240,142,113,43,37,75,68
274,256,130,103,40,35,73,69
269,202,133,107,45,45,88,72
280,215,135,113,51,49,90,83
313,235,155,100,54,49,85,86
321,230,146,86,53,53,87,89
305,207,131,90,57,55,89,88
296,192,123,83,53,47,77,84
275,180,124,77,50,40,70,77
280,182,124,78,55,44,72,79
276,175,116,82,53,42,69,74
267,172,116,76,49,39,61,75
259,183,135,73,48,43,62,74
287,205,138,80,45,43,59,77
240,210,119,78,38,39,56,73
247,205,121,81,37,43,58,79
268,215,133,85,42,48,63,83
266,209,118,88,41,46,65,85
263,210,113,85,45,49,70,86
283,195,146,85,44,48,74,87
282,206,156,86,48,52,81,82
265,214,143,92,53,51,79,81
287,227,153,99,62,58,80,86
268,238,151,96,58,55,77,80
246,231,118,113,59,56,81,75
259,221,105,118,58,49,72,89
263,213,109,121,57,52,73,89
247,222,87,122,50,45,71,84
240,198,88,121,51,45,72,80
230,193,82,111,50,50,68,80
214,209,139,109,47,52,69,73
213,209,142,94,37,43,61,67
228,186,148,85,35,41,60,68
222,162,143,86,37,44,66,76
235,174,145,79,35,39,71,83
217,153,105,83,36,36,67,76
215,151,95,87,38,40,71,86
269,170,86,84,39,52,108,94
272,171,84,84,39,55,108,90
298,165,76,83,40,54,104,88
299,182,84,68,48,56,108,86
301,203,92,68,51,61,113,77
267,199,94,69,51,51,77,66
266,201,97,74,55,46,72,66
232,199,106,79,54,46,74,62
256,188,107,90,48,46,73,65
287,192,105,86,44,39,66,65
249,182,107,89,44,38,70,60
244,184,107,83,37,41,72,61
237,182,104,82,36,42,68,57
240,199,80,68,41,44,72,68
190,167,73,74,41,40,77,69
206,169,81,91,50,42,76,70
214,179,103,102,56,39,75,72
225,196,104,95,58,38,73,73
245,178,103,94,55,38,76,75
246,171,105,97,55,42,70,77
247,160,96,79,48,40,66,79
248,157,83,75,43,42,68,80
246,149,80,89,50,51,82,93
259,190,81,93,54,50,79,111
257,196,80,94,55,50,77,110
270,203,81,93,55,50,75,108
276,190,81,97,64,55,84,113
284,185,78,95,56,47,72,102
257,132,74,94,53,55,85,88
257,130,73,90,50,53,84,87
234,129,76,99,49,55,88,93
213,129,66,104,47,54,76,82
191,110,67,131,61,63,109,90
152,99,66,132,70,60,109,73
186,93,65,133,73,62,111,79
186,79,63,129,71,59,109,74
201,84,61,125,77,60,114,78
209,85,57,121,72,50,86,71
244,95,65,128,73,51,87,88
221,88,63,128,77,52,89,83
229,88,68,160,103,63,94,86
233,79,68,165,96,67,86,82
223,78,71,156,99,70,89,82
184,76,85,170,93,65,80,67
187,84,88,182,101,66,77,64
207,85,85,162,85,63,90,63
202,88,90,156,86,58,94,72
222,85,87,154,86,55,91,74
228,73,72,153,103,58,81,68
233,73,78,157,101,61,78,66
211,70,84,159,102,64,62,67
213,70,79,171,111,75,80,74
205,67,83,176,107,77,85,72
192,67,81,163,95,86,98,71
184,59,76,153,97,101,108,79
195,55,67,152,94,102,115,98
193,49,67,142,85,92,100,92
205,53,67,131,91,89,94,94
207,57,65,129,92,79,80,93
222,72,68,117,79,55,69,90
202,74,74,125,90,55,49,63
221,74,71,121,94,56,51,62
234,79,68,140,94,58,52,56
233,73,69,143,102,64,67,61
221,71,60,144,107,69,71,56
249,79,53,130,96,65,94,64
240,83,53,128,96,68,98,61
220,80,63,138,104,76,108,67
241,85,65,137,99,70,107,70
241,80,67,141,100,64,103,73
213,71,69,153,120,66,94,70
235,68,75,165,121,76,92,79
232,63,68,157,111,72,78,74
236,57,70,157,109,75,70,74
258,57,70,154,103,82,78,76
262,57,70,151,80,84,66,75
231,69,93,179,86,77,73,62
238,73,94,157,84,75,74,60
224,74,90,161,86,79,90,59
209,76,99,169,94,77,98,59
214,75,110,160,91,67,96,60
226,62,84,107,77,77,97,70
269,71,88,123,86,105,110,84
259,69,90,113,81,106,99,81
251,63,86,122,79,106,86,82
281,71,76,126,83,112,99,83
274,69,80,131,81,105,107,75
214,63,75,120,66,78,101,65
264,64,75,124,75,74,109,70
264,74,91,113,80,75,109,68
241,71,99,120,85,73,99,69
241,77,103,115,89,82,103,80
245,70,104,115,92,85,102,78
228,74,104,107,86,78,92,78
233,67,86,97,77,75,93,78
229,63,70,82,74,76,93,79
242,62,77,81,74,72,69,69
240,63,72,85,74,72,63,75
225,58,79,94,72,72,61,71
223,65,78,98,72,70,64,73
212,69,83,96,68,61,60,79
193,68,71,93,64,54,59,76
196,69,73,90,73,54,87,80
189,68,76,126,82,62,96,83
204,59,79,128,83,62,90,79
198,52,74,131,80,61,90,68
193,49,76,133,80,64,99,72
202,61,72,129,71,59,76,62
187,61,61,87,57,51,65,53
166,62,63,84,57,57,72,52
194,65,61,78,55,58,80,67
193,64,60,75,55,51,72,68
184,48,62,72,48,51,76,64
191,51,62,80,51,56,95,75
182,52,63,78,53,50,93,76
153,50,66,76,55,53,87,68
154,51,62,77,52,50,84,64
140,62,62,90,59,48,83,67
211,71,59,88,64,43,68,72
208,68,54,91,66,42,63,74
208,70,74,95,65,35,60,70
237,70,74,92,63,41,63,72
233,63,75,89,69,51,84,78
172,50,79,99,70,55,84,65
174,51,87,130,69,61,98,65
194,49,70,127,69,63,106,66
158,47,83,132,70,62,114,70
172,46,82,126,57,53,102,60
160,45,82,114,50,51,101,58
172,51,81,73,41,47,89,56
164,51,81,76,38,43,82,53
165,48,71,73,39,41,65,50
149,48,74,79,47,40,60,49
186,53,79,91,46,38,62,63
180,47,75,101,45,36,58,63
185,53,81,101,45,37,64,71
186,56,77,101,47,40,67,68
191,60,76,101,46,48,68,73
160,55,72,95,54,50,60,63
188,64,68,81,56,55,82,65
167,58,57,77,57,54,76,58
167,58,59,74,55,54,75,62
183,61,60,77,54,49,77,67
227,71,59,78,57,56,85,82
205,64,63,81,58,53,65,78
223,66,70,82,61,54,65,89
238,67,73,80,61,53,65,87
253,73,72,72,62,52,66,92
221,65,75,65,50,40,62,80
239,70,72,63,51,40,62,84
238,70,77,68,53,39,63,83
252,74,73,70,54,37,65,84
264,74,76,74,62,51,92,74
266,77,78,86,64,53,91,72
259,74,76,90,59,52,93,73
255,90,68,87,55,51,92,64
236,88,69,86,56,58,96,63
214,79,73,83,44,46,64,66
215,76,73,71,44,45,60,66
197,76,78,73,48,45,58,63
215,55,80,74,53,52,66,61
217,56,84,80,50,47,64,62
200,56,82,82,49,46,63,58
191,55,80,78,46,42,62,58
209,76,74,70,46,48,67,59
174,75,72,76,44,46,64,62
189,79,84,96,64,48,59,70
209,82,96,99,65,47,60,76
221,94,92,101,65,51,61,78
210,82,91,105,61,46,54,79
225,87,93,100,58,40,49,76
211,82,82,91,38,35,58,64
186,82,76,92,41,37,56,55
164,79,79,92,42,37,56,48
184,77,87,100,49,42,66,47
184,73,84,101,52,45,75,51
171,73,90,92,50,45,66,50
169,71,85,91,49,43,67,51
209,69,107,98,49,43,68,67
195,64,101,92,48,39,59,62
177,66,121,92,52,47,97,67
177,65,117,95,56,53,103,69
204,71,123,110,73,57,104,80
160,61,109,104,76,57,106,70
160,68,124,103,76,62,119,76
182,70,106,100,70,53,100,72
184,71,120,104,67,47,95,70
156,64,108,82,45,42,94,56
195,76,112,84,47,44,92,63
199,83,101,87,43,40,82,62
192,80,97,88,44,38,58,62
195,85,95,86,46,41,55,65
200,83,98,87,47,40,56,64
173,76,107,88,43,36,50,57
169,63,102,75,41,34,54,56
160,86,108,82,45,38,57,50
176,92,99,87,48,38,58,46
181,118,103,91,57,44,59,47
186,120,81,91,58,51,78,53
232,127,104,104,73,55,71,47
266,114,116,111,75,56,78,66
298,118,123,107,70,55,79,88
304,105,117,102,64,54,86,91
335,118,117,99,64,52,76,97
316,128,112,85,48,53,87,107
327,130,99,71,42,53,85,99
306,123,88,70,48,58,89,84
303,120,95,76,49,54,82,81
284,108,97,75,47,50,83,81
309,97,85,76,47,47,77,83
271,92,85,78,50,47,82,89
278,92,92,76,47,42,76,86
274,84,85,74,44,41,77,86
247,80,86,75,42,44,80,77
203,75,85,76,48,59,102,73
217,80,91,75,53,57,100,65
188,84,103,104,55,58,100,67
183,90,104,99,57,62,109,66
211,89,104,101,63,66,113,73
199,83,123,104,61,50,92,60
171,75,119,106,63,49,89,59
148,63,103,78,62,49,89,56
158,56,103,76,60,49,94,82
133,59,107,70,54,41,83,78
153,73,85,63,51,46,85,82
214,78,86,62,44,46,81,93
215,82,107,72,44,46,82,92
203,81,113,76,45,43,69,78
255,80,125,78,47,44,70,81
274,69,124,81,49,41,62,80
241,69,119,90,48,41,63,67
252,66,115,80,46,41,67,70
278,73,112,83,49,53,91,79
230,71,92,83,48,54,94,72
204,75,97,87,58,68,111,79
192,73,103,76,55,67,111,77
205,70,84,75,54,68,109,82
167,63,84,76,49,59,101,69
158,59,86,77,48,59,103,72
161,61,105,74,35,39,88,64
172,83,100,69,36,40,89,70
141,92,111,71,35,42,96,62
158,96,112,69,43,57,102,74
173,99,112,67,45,56,100,81
209,94,98,77,41,55,103,90
210,74,97,82,45,59,108,90
223,74,89,79,50,59,102,91
229,86,85,77,53,47,79,85
220,84,93,82,57,48,73,74
176,83,81,72,62,49,68,59
196,85,86,88,61,45,64,58
178,75,78,92,58,41,63,60
157,54,88,96,57,45,71,58
179,58,84,97,52,42,69,65
187,60,95,97,47,37,65,63
208,66,91,80,44,34,56,66
226,69,99,82,49,38,59,60
228,75,93,79,40,33,46,56
218,70,97,87,45,40,52,48
222,76,97,94,45,42,62,57
196,75,98,93,45,43,63,52
200,80,93,88,42,53,81,61
223,78,101,86,50,55,83,63
214,76,94,83,50,50,80,60
207,81,82,75,51,50,71,52
218,84,82,76,52,56,82,57
197,77,89,86,53,47,64,51
165,82,79,110,60,51,64,52
179,92,92,108,62,55,78,59
163,82,92,106,61,55,84,61
123,81,101,108,63,51,77,57
134,87,103,113,68,53,81,63
176,95,108,88,59,48,80,72
179,88,101,87,63,55,85,76
185,93,107,99,71,57,84,76
189,95,98,94,67,55,85,75
185,90,108,90,60,53,89,68
153,83,100,94,61,55,87,55
143,91,106,94,53,48,68,44
241,209,124,89,47,46,73,52
261,211,128,92,55,50,75,54
269,225,114,84,56,49,68,57
287,229,136,90,55,48,70,65
281,225,133,87,57,47,73,64
208,125,114,82,55,48,64,57
198,117,114,91,53,48,57,59
188,92,112,89,49,45,54,63
170,91,104,82,50,46,52,57
179,96,101,92,48,46,55,61
170,94,112,94,46,43,56,64
174,99,112,87,43,39,57,65
194,102,114,93,48,44,63,70
185,86,98,96,48,52,70,75
192,81,98,86,48,50,67,72
204,87,82,84,51,53,73,71
192,85,79,91,55,54,73,68
182,77,85,92,57,56,69,61
210,107,91,88,57,50,68,65
212,114,82,83,57,52,75,74
205,108,95,84,56,49,73,76
213,115,124,100,54,47,74,77
234,116,129,104,50,40,76,77
217,91,128,103,49,40,75,71
241,86,131,103,45,37,74,76
283,113,130,105,44,38,78,83
274,107,111,92,40,39,79,82
246,107,99,94,43,40,76,80
244,106,97,97,41,38,75,84
218,117,106,99,45,41,79,74
168,114,97,96,51,42,76,66
170,122,89,89,53,40,73,68
217,126,86,74,47,43,77,67
234,214,97,74,50,45,81,74
240,228,121,83,56,43,70,72
243,225,122,85,51,47,76,75
250,232,124,86,57,51,84,76
242,250,127,84,57,52,81,75
287,189,131,87,58,56,78,71
281,182,120,88,55,57,82,79
274,184,120,95,63,64,91,86
288,168,117,94,62,62,88,87
286,137,117,98,62,63,90,93
226,127,108,96,61,58,86,88
226,103,92,90,58,57,83,88
249,108,88,79,56,48,73,84
230,120,87,86,55,48,75,82
206,123,89,89,56,49,78,82
198,122,87,92,57,46,77,76
237,165,104,101,60,46,81,83
233,148,106,99,52,43,69,81
233,148,108,89,49,46,78,96
225,151,122,83,49,51,79,91
232,176,132,85,50,56,80,96
195,151,113,67,44,54,81,87
178,151,113,67,44,54,85,81
185,146,117,70,46,50,75,65
226,157,108,79,45,42,71,73
256,151,116,79,44,36,71,70
243,138,122,92,47,36,76,66
236,141,122,97,51,42,83,68
234,141,139,104,59,43,89,71
224,141,137,109,61,43,90,72
212,126,122,111,61,46,102,74
240,136,117,102,60,47,93,75
251,141,120,108,59,41,81,76
240,137,98,116,52,38,78,70
226,120,91,107,50,36,82,68
207,117,90,104,49,36,70,65
189,106,86,107,49,39,80,72
180,120,81,116,57,42,86,70
188,127,79,124,59,43,77,71
205,130,79,146,75,52,83,73
220,138,68,148,79,57,107,77
215,140,74,146,78,54,106,75
264,132,82,136,74,56,110,80
275,152,101,127,73,57,109,79
261,161,109,105,58,49,96,69
239,152,106,97,54,46,81,63
269,152,112,96,55,56,104,64
229,147,112,91,53,52,103,58
218,133,100,74,50,50,105,58
222,117,90,70,44,57,122,62
227,113,93,74,45,56,118,65
188,103,88,88,49,46,97,60
210,153,85,109,62,53,98,65
238,155,83,117,66,54,100,66
227,170,97,114,67,52,100,71
246,175,94,113,65,54,109,79
324,199,102,106,61,53,104,85
302,162,97,97,43,44,97,81
278,152,93,94,42,47,97,84
312,137,84,96,37,44,108,88
315,135,93,102,42,44,103,81
237,98,91,106,46,45,103,68
243,176,100,95,52,55,110,70
242,181,97,95,57,58,116,69
218,188,96,105,68,62,96,63
222,190,102,105,66,61,88,61
217,192,94,99,67,69,104,72
243,136,91,105,70,64,101,76
236,137,116,104,68,63,96,75
216,123,112,96,63,61,94,73
182,116,104,99,68,60,92,71
205,118,108,98,65,50,74,60
184,117,102,88,57,48,66,54
181,121,77,86,56,45,68,57
187,123,88,77,50,41,58,54
219,156,88,66,45,41,68,63
208,153,81,74,47,43,68,65
195,154,82,78,48,43,66,62
195,143,79,75,44,43,66,57
197,142,76,87,43,43,73,60
185,136,74,92,49,44,69,63
191,137,84,94,48,42,69,69
255,139,89,110,51,43,71,68
278,145,89,120,53,42,64,68
279,145,86,117,55,43,60,65
269,130,91,116,48,40,64,57
265,125,94,118,51,48,79,50
196,100,89,116,45,49,82,51
192,106,85,104,44,50,81,51
187,121,86,102,41,48,82,57
184,109,81,97,48,52,85,59
170,122,80,84,45,47,72,71
180,120,88,68,46,45,70,72
160,107,95,74,44,43,81,74
145,92,94,75,54,45,82,72
153,101,94,76,50,38,70,76
150,92,83,87,52,42,78,69
147,90,90,105,57,44,78,67
217,117,81,104,60,45,68,66
228,119,77,103,52,48,64,60
223,112,83,103,49,47,65,50
243,121,85,91,50,43,54,43
237,126,73,74,46,41,52,43
163,101,79,72,54,55,88,54
171,105,80,69,59,59,98,60
178,115,83,76,61,61,100,61
147,105,76,79,61,60,100,62
145,99,79,77,61,65,111,66
151,100,72,74,54,55,87,55
127,87,84,96,56,46,72,49
132,74,74,96,57,41,70,48
166,69,79,102,59,41,103,67
186,88,78,100,56,42,105,69
200,87,85,101,55,49,116,77
236,140,78,90,51,48,120,77
249,148,79,92,49,54,123,78
268,175,79,88,51,61,107,75
281,172,88,84,50,58,97,67
272,174,87,86,49,51,84,63
251,142,92,84,49,52,80,68
258,144,99,83,50,52,96,68
228,130,105,90,49,45,92,65
204,126,97,97,50,46,92,67
201,121,92,92,48,46,97,66
218,117,88,92,46,49,102,66
178,106,81,99,45,45,87,65
184,119,68,89,42,46,83,60
189,118,63,78,43,45,80,60
203,126,76,88,47,46,74,66
191,134,75,86,48,42,65,58
211,131,71,69,46,41,60,60
239,112,69,71,43,38,58,65
234,125,80,73,40,39,61,65
223,121,71,70,39,38,70,61
234,114,70,76,36,40,74,63
228,115,73,77,38,42,71,63
178,98,81,87,48,56,106,60
174,85,70,99,52,56,106,62
191,89,71,106,50,57,99,57
181,138,79,104,52,57,103,66
167,144,90,108,54,59,112,65
173,146,83,102,50,48,87,67
168,142,95,97,51,52,86,65
147,139,97,91,53,54,90,66
120,85,87,88,59,63,97,61
141,121,80,86,55,62,90,70
143,127,88,86,55,61,83,66
153,132,76,81,51,56,80,67
168,137,71,75,52,56,100,69
164,142,79,81,47,52,97,66
166,111,74,114,57,54,103,59
164,119,69,138,65,58,106,56
197,129,76,138,68,57,107,58
202,129,74,144,69,54,92,58
210,129,67,141,74,58,86,63
203,124,77,132,77,57,78,60
210,133,75,115,70,54,79,62
180,119,73,115,68,54,76,60
181,114,76,109,65,54,70,65
179,115,80,112,61,46,79,75
169,121,71,98,51,41,75,75
170,89,69,86,47,39,66,73
164,83,78,87,49,38,74,75
140,84,82,85,46,38,77,71
129,134,94,75,41,35,70,55
172,133,98,67,39,35,72,58
161,136,101,68,44,36,81,57
158,141,91,68,41,37,74,53
163,139,90,69,43,41,68,52
169,83,82,91,42,46,71,47
125,78,93,93,46,45,71,46
133,79,89,88,45,44,68,47
129,77,95,99,46,44,70,56
125,76,93,107,54,50,82,56
127,73,90,91,55,48,80,56
134,68,75,90,53,52,80,55
150,80,75,93,54,52,77,56
158,79,80,84,51,52,79,52
164,84,99,84,48,42,69,52
158,92,102,90,51,38,62,53
164,92,101,88,50,37,71,55
154,74,102,102,55,37,76,53
157,70,96,100,56,42,83,49
161,67,79,96,54,45,82,58
177,54,69,90,51,44,79,59
188,63,80,92,49,42,73,60
188,70,90,80,49,44,69,59
185,73,95,82,54,45,64,56
171,76,92,75,52,42,62,45
154,76,100,73,52,43,68,43
125,73,93,77,60,52,72,50
142,70,85,81,56,50,70,51
145,77,83,83,49,44,61,54
148,77,92,89,51,45,61,55
151,76,95,88,54,47,58,61
144,72,94,89,44,36,48,50
124,72,96,101,57,39,54,64
137,69,87,99,63,39,56,65
150,90,95,98,62,45,63,69
148,92,89,108,61,45,60,67
172,96,96,106,67,46,58,72
170,100,94,91,55,45,68,63
147,102,98,104,59,47,79,65
142,79,84,110,63,44,73,65
145,77,90,117,63,45,81,67
124,74,88,120,61,46,94,69
128,81,86,116,62,43,89,70
166,106,109,117,63,50,89,67
237,134,110,114,62,48,93,71
254,142,108,105,71,50,94,68
257,142,107,116,69,47,82,59
255,135,108,122,73,54,97,62
269,133,95,110,68,49,97,79
208,106,91,114,69,48,93,71
215,100,85,108,56,44,89,81
244,105,92,95,64,48,91,84
247,105,101,101,62,41,68,80
240,80,100,113,60,40,72,80
249,79,107,114,61,45,85,90
223,70,104,113,61,42,81,89
192,61,112,109,51,41,79,87
196,59,103,101,46,40,85,88
190,65,100,101,46,42,71,74
202,99,98,98,50,45,58,79
218,105,102,100,52,49,63,79
236,106,84,100,58,52,70,85
243,107,81,100,62,52,62,84
237,99,70,82,62,47,62,92
245,70,73,79,62,47,67,82
230,63,77,80,65,45,65,75
226,67,90,92,67,43,55,70
208,62,103,113,74,48,77,77
217,74,106,121,75,49,75,72
197,70,103,120,69,44,75,69
222,75,102,124,67,41,76,68
203,74,96,115,59,37,79,65
205,76,88,94,49,31,79,60
198,84,86,87,51,35,91,66
192,100,90,87,61,41,92,66
175,107,94,95,60,47,99,70
183,106,94,99,62,52,109,74
184,110,89,94,62,56,98,70
169,97,89,98,60,53,89,60
159,81,96,94,49,47,86,58
157,74,90,79,54,48,83,55
155,83,81,75,62,46,70,53
156,89,84,81,61,41,69,53
156,93,84,89,60,43,79,50
188,101,64,88,66,49,75,51
185,100,64,89,61,42,66,48
212,94,63,84,54,38,68,54
212,85,64,80,53,39,66,57
204,80,71,65,51,40,64,61
171,71,80,76,43,38,66,60
198,74,73,71,45,41,69,65
198,85,85,76,42,40,64,67
193,86,94,74,41,44,77,65
196,88,88,76,38,41,68,63
222,88,90,77,41,40,70,68
202,105,93,82,41,41,81,62
201,102,92,82,41,44,81,54
227,109,83,90,42,39,70,55
232,115,88,90,48,39,72,55
223,115,78,82,48,41,79,56
221,106,82,92,55,45,81,67
219,97,85,99,59,42,83,74
194,92,81,97,58,43,87,70
190,93,97,100,62,46,91,67
178,120,102,106,62,42,86,65
170,116,99,104,65,45,79,54
131,118,89,92,61,46,76,40
130,120,99,92,62,51,77,47
145,127,82,91,57,51,72,52
143,128,98,82,54,55,69,47
164,126,96,74,43,50,75,47
157,124,104,79,39,48,75,47
170,131,139,108,44,44,73,46
188,120,144,103,41,39,73,43
191,99,136,107,43,35,67,44
170,96,137,108,40,31,59,58
178,95,135,108,43,38,67,63
189,95,94,92,42,40,66,62
151,101,88,95,46,41,63,62
146,95,86,99,54,41,66,66
159,104,80,102,63,44,80,64
161,107,71,107,66,44,78,61
144,94,76,104,66,41,76,62
142,99,71,106,68,42,77,64
145,116,67,102,65,46,80,63
146,108,70,99,62,50,80,56
160,106,82,95,61,47,76,66
153,110,86,89,60,47,79,66
172,100,91,87,61,54,94,67
204,99,86,81,58,53,105,70
202,98,93,81,57,49,96,75
186,102,95,91,57,53,98,65
191,96,88,87,57,56,104,65
192,96,83,93,53,49,90,64
188,107,85,96,54,46,75,60
176,127,84,95,51,42,72,50
215,130,82,107,56,63,119,64
224,132,75,113,60,64,115,64
216,147,80,112,59,64,116,68
195,126,84,112,59,66,116,64
217,129,90,129,63,66,115,69
189,124,91,118,62,45,61,63
190,124,99,117,61,46,79,67
193,109,95,120,68,46,83,60
190,110,104,127,72,45,81,62
166,82,95,114,69,45,85,58
161,112,104,112,64,44,96,61
164,119,104,109,60,42,83,62
167,122,112,106,57,45,81,67
172,122,119,102,54,50,82,68
179,129,129,104,52,51,77,69
179,109,115,94,48,52,82,65
182,108,111,92,47,50,78,64
169,98,100,84,42,49,86,68
174,101,94,88,39,41,84,66
168,95,86,88,42,47,92,66
163,86,86,88,38,44,79,68
158,82,95,86,42,51,87,62
164,93,116,95,40,48,75,51
158,89,103,93,43,52,87,55
180,90,103,99,47,51,86,65
177,93,106,104,54,53,82,60
156,88,97,101,54,44,81,61
166,83,72,102,59,46,81,62
163,92,88,98,56,43,67,60
171,94,81,89,59,43,62,46
174,89,77,90,57,41,63,56
195,102,74,96,56,43,53,56
195,99,77,102,66,54,63,57
194,90,62,105,74,58,78,56
183,100,71,103,77,59,75,60
206,116,123,104,79,64,78,62
185,120,126,99,80,64,76,60
180,123,138,89,72,55,70,58
173,122,135,87,64,53,62,60
152,108,133,85,54,52,69,61
143,119,87,81,54,48,71,60
140,109,88,88,51,47,74,64
132,105,67,85,47,47,79,62
147,110,68,87,56,49,79,63
177,126,94,93,57,45,73,57
169,113,97,104,60,44,77,56
176,106,94,112,64,47,81,51
194,107,106,116,64,45,74,59
195,112,106,111,57,41,71,55
188,102,88,113,62,43,70,59
187,103,91,111,66,50,92,69
200,107,92,107,68,51,85,81
189,110,86,104,76,54,86,78
182,111,92,104,77,54,94,80
170,117,87,97,72,59,107,81
171,103,90,100,64,52,83,71
149,104,89,92,61,50,83,56
147,99,79,98,56,50,87,55
149,87,78,105,58,49,83,54
148,78,71,105,63,44,70,55
141,103,67,106,62,42,69,52
138,107,64,120,67,40,69,52
173,114,65,118,63,36,63,55
221,119,59,111,60,40,67,57
220,116,59,104,54,41,66,54
219,117,62,94,50,42,68,56
226,110,87,80,42,44,70,56
196,104,89,75,39,43,69,53
133,97,88,76,36,39,60,53
132,100,90,80,35,35,49,51
137,72,85,74,37,34,59,52
172,88,71,72,33,34,69,69
186,100,72,71,37,34,70,68
190,101,74,71,41,37,69,65
192,100,76,75,48,40,70,67
192,102,77,80,50,42,63,70
178,109,77,82,54,41,56,64
162,101,78,88,57,49,78,69
171,101,75,87,55,48,80,71
186,106,70,93,50,44,79,71
182,111,73,106,49,40,77,63
188,102,65,104,48,42,72,54
219,105,69,105,46,40,56,58
222,117,74,108,48,38,55,57
213,109,82,104,50,41,55,53
244,105,76,94,52,40,57,70
233,101,76,88,50,40,55,72
211,94,83,83,53,45,54,64
200,79,79,81,54,48,56,65
205,83,83,78,53,47,59,67
158,86,87,91,65,53,65,51
157,92,86,97,68,57,71,47
161,94,71,95,65,52,82,57
155,101,85,98,66,55,87,60
181,100,85,100,64,56,86,63
181,102,93,100,54,53,81,62
174,125,102,114,53,49,77,64
167,127,104,112,51,48,61,59
184,128,95,110,49,43,48,56
170,130,109,114,54,41,50,59
173,125,101,102,52,37,50,60
167,91,97,83,48,35,51,62
201,86,102,86,48,37,61,66
191,83,100,90,54,47,74,69
165,84,84,86,55,54,84,61
172,82,88,86,53,55,84,60
200,117,84,82,54,56,88,63
173,123,84,87,56,57,83,63
202,121,83,85,49,49,71,64
218,130,79,85,46,42,59,70
212,136,78,97,52,46,64,70
215,111,78,106,56,44,62,71
248,107,69,108,64,42,60,79
241,112,72,112,66,43,61,82
255,96,84,117,66,41,62,85
296,89,82,107,62,37,69,96
337,84,85,105,65,43,76,108
342,115,93,101,65,47,76,103
332,111,93,122,86,52,77,97
352,115,78,117,93,57,83,96
322,118,94,120,93,56,74,87
264,117,95,119,88,51,64,65
224,96,91,115,81,47,64,60
229,100,90,91,58,42,62,64
166,94,91,95,50,37,60,54
169,89,83,95,57,38,56,54
191,95,85,99,59,40,55,56
200,98,87,109,72,38,54,53
241,98,91,113,72,38,67,58
251,106,95,108,71,36,66,69
258,116,88,112,65,38,68,73
248,127,82,102,64,39,77,74
251,120,91,90,54,44,76,83
215,116,86,89,54,48,74,91
219,125,119,95,51,49,73,87
231,123,126,93,52,49,72,86
225,108,127,98,53,49,65,84
207,138,120,101,50,47,66,76
191,138,126,106,53,40,54,57
167,130,127,119,63,42,46,52
144,137,115,111,66,42,45,49
139,146,114,108,64,41,58,47
169,116,115,106,65,44,65,53
170,114,111,98,59,44,68,55
189,112,85,90,48,44,76,60
192,103,89,97,46,48,78,59
188,94,88,113,53,52,79,64
169,92,85,119,52,47,78,58
182,95,82,126,60,51,77,58
229,120,94,114,64,53,86,59
249,125,94,110,63,49,87,62
276,121,94,99,62,42,80,73
284,126,98,94,62,41,75,78
305,127,96,90,54,36,73,78
270,100,112,107,51,36,58,77
260,91,115,106,54,37,55,78
255,107,120,102,47,39,57,70
253,103,118,97,43,42,59,65
251,109,126,94,48,47,70,77
244,116,92,74,46,48,71,72
232,114,84,76,39,48,68,68
225,100,83,85,44,47,74,65
231,97,86,91,47,47,72,72
202,85,80,94,46,40,62,60
206,81,81,106,58,44,75,68
209,90,88,124,63,47,97,68
192,101,86,117,62,50,92,68
161,107,86,113,60,51,100,60
150,119,84,108,56,55,107,60
175,128,81,99,51,48,96,61
162,121,72,69,47,46,77,67
157,110,92,82,50,45,88,67
195,108,94,86,52,42,78,70
214,134,96,86,53,39,78,78
243,123,94,81,47,38,83,83
252,121,91,85,53,43,83,80
273,123,67,76,59,48,75,88
268,121,54,72,63,50,75,90
254,75,46,68,67,48,67,83
199,69,54,83,68,49,59,73
238,73,66,83,68,52,63,83
238,69,82,86,67,53,66,85
237,77,110,92,64,51,68,81
269,85,114,89,61,54,70,89
271,99,114,80,61,56,70,87
244,99,109,79,57,48,64,73
226,105,105,69,47,41,58,63
207,96,136,68,47,41,58,74
186,96,140,75,46,37,58,64
185,84,147,75,44,38,60,67
176,81,149,81,42,36,57,69
185,81,154,83,43,35,51,66
240,86,107,81,48,40,63,55
243,82,96,73,46,39,63,58
239,91,93,78,51,41,62,56
230,98,95,74,52,42,62,57
228,107,84,81,58,47,73,64
189,104,81,83,58,46,73,64
169,102,83,93,61,47,73,62
183,96,86,90,58,44,72,63
191,98,82,87,59,44,81,71
197,85,77,83,53,45,82,65
182,91,78,85,49,43,79,60
173,102,80,79,43,40,76,60
161,98,70,78,40,38,76,59
154,91,81,92,47,49,91,58
186,104,84,95,56,46,85,62
184,97,84,96,58,49,83,64
188,97,106,125,65,55,91,64
192,101,103,128,66,58,100,64
217,96,95,120,64,52,79,62
186,115,91,115,58,50,75,58
182,118,93,110,56,44,71,55
201,111,67,78,47,41,61,57
206,117,68,74,58,44,52,60
179,123,77,88,57,39,58,54
193,109,85,101,62,42,64,59
192,111,84,99,61,44,69,63
185,117,86,103,68,47,77,59
177,111,84,99,60,41,73,54
177,107,83,100,61,44,69,52
148,87,79,92,62,56,90,53
148,111,86,96,64,61,93,55
137,102,80,104,65,58,91,56
131,105,89,108,66,59,90,57
138,108,99,101,62,59,99,63
144,109,98,96,57,46,88,66
151,99,88,89,51,39,84,66
140,105,93,71,44,38,80,67
147,103,88,68,44,42,88,69
162,98,65,56,39,41,77,64
167,104,70,63,44,41,62,56
218,113,90,86,53,43,57,65
240,122,87,91,57,45,76,68
244,125,90,95,61,40,71,65
234,128,97,102,64,40,70,65
263,124,92,106,62,37,76,81
242,131,80,126,68,36,80,80
236,128,92,143,70,35,66,86
254,121,89,144,70,34,59,87
256,125,83,142,67,33,61,87
232,124,97,139,67,33,66,79
232,99,96,113,57,37,71,74
248,98,83,88,55,42,70,65
227,99,81,87,55,43,74,61
219,89,83,89,61,49,90,62
208,94,76,92,59,49,83,54
176,85,70,95,61,47,77,49
159,124,75,96,59,45,81,59
165,126,82,93,52,51,105,67
179,135,79,94,48,48,99,72
171,131,79,87,53,48,98,73
182,142,88,86,50,46,98,81
196,120,94,87,44,46,99,74
195,125,91,84,47,43,75,73
187,115,91,85,45,38,62,71
196,121,83,83,37,37,59,72
200,113,85,95,47,36,53,64
159,108,77,105,53,32,46,64
164,103,84,108,53,27,40,69
171,107,86,103,51,30,47,69
196,102,97,111,55,33,48,75
183,104,95,103,50,33,58,73
192,94,95,94,45,37,70,73
189,92,93,90,47,40,72,73
203,91,97,92,47,37,73,70
182,93,86,92,46,35,72,62
206,87,100,87,46,46,84,67
205,88,91,84,51,44,74,64
200,101,88,88,58,52,93,55
168,100,85,86,58,53,92,58
160,97,90,83,59,54,94,62
128,93,73,78,66,49,77,56
173,109,76,70,68,49,78,63
200,112,73,81,67,40,57,67
210,117,78,88,70,42,61,69
215,119,75,90,69,40,59,64
219,122,74,96,58,36,62,64
225,106,74,101,53,38,70,60
203,106,72,88,48,39,74,56
231,101,63,91,52,36,72,55
231,97,72,95,57,42,78,55
234,112,73,95,58,43,82,57
191,109,76,100,61,42,80,57
191,93,80,106,60,40,75,52
141,89,105,138,70,46,78,52
138,108,101,153,79,45,76,53
128,92,99,152,80,47,73,56
145,100,98,151,80,51,76,66
140,99,99,147,78,50,74,66
160,109,78,108,63,44,69,65
169,101,85,76,51,47,69,63
183,110,80,76,48,45,68,63
180,103,79,70,45,39,56,49
175,106,78,70,47,38,53,48
168,96,78,83,52,43,58,48
189,97,78,89,48,39,67,62
195,91,79,88,51,42,69,59
196,85,81,88,49,39,69,63
213,81,82,91,47,40,72,83
229,100,93,86,47,35,66,86
197,98,109,87,48,35,63,80
193,104,109,80,44,33,59,82
187,111,115,83,48,42,65,81
194,119,116,87,49,45,66,71
198,109,109,99,50,47,69,66
200,110,88,94,54,56,78,62
185,113,86,94,56,60,84,62
178,112,88,95,58,57,82,65
169,106,88,104,59,54,81,58
136,105,89,87,54,53,83,59
163,106,91,94,50,44,71,63
182,98,97,105,57,43,64,66
196,104,113,104,58,48,61,63
196,117,122,100,56,49,59,66
198,116,126,115,66,51,63,65
204,114,121,114,71,51,67,70
215,117,118,109,71,51,72,75
205,128,116,112,72,49,72,75
189,120,110,103,72,50,82,72
186,116,101,84,64,46,75,70
201,120,104,84,65,50,73,67
173,116,103,80,59,44,64,59
185,96,75,85,61,44,76,58
189,92,80,88,66,47,68,57
189,113,82,90,65,48,72,66
173,113,79,87,60,45,79,63
177,109,80,86,64,54,99,65
171,125,88,73,54,48,94,65
180,124,79,69,51,45,96,68
202,110,84,73,51,46,94,61
180,101,82,63,52,52,95,56
174,110,79,65,45,44,73,50
175,99,94,82,55,48,72,48
172,100,88,82,54,50,73,45
141,103,79,79,54,49,76,44
156,120,88,82,53,44,68,45
181,115,95,87,56,44,68,42
179,109,85,86,54,41,66,41
193,123,90,90,55,41,68,47
200,122,92,95,60,45,76,57
198,108,91,97,61,44,72,61
174,119,89,99,58,47,81,69
189,125,87,87,53,46,85,68
203,119,90,80,50,45,83,72
217,113,92,87,52,48,74,66
210,135,93,88,52,46,74,66
204,118,100,88,56,46,67,58
195,114,91,86,58,48,64,62
186,106,83,90,59,47,62,59
170,109,87,86,54,41,59,70
194,116,95,95,51,39,61,72
204,142,94,100,48,39,69,74
202,142,104,102,44,36,71,73
184,139,103,100,44,37,69,70
191,140,96,99,40,35,70,57
165,118,92,88,43,43,77,51
163,94,87,82,44,42,75,57
157,95,79,95,44,43,72,57
186,97,79,99,47,42,73,56
197,103,81,96,49,46,77,66
197,105,83,110,46,44,72,71
209,112,81,110,43,41,64,64
220,110,79,99,44,42,62,63
195,118,82,96,50,44,62,63
176,112,98,107,52,40,55,52
183,109,88,105,58,34,46,58
178,113,89,101,66,38,52,60
159,115,85,104,66,45,79,69
150,117,83,112,67,47,81,67
153,122,64,108,65,46,80,68
167,120,73,100,62,49,80,59
160,102,70,107,56,49,85,62
171,100,81,111,68,55,88,77
181,87,81,114,64,51,85,78
208,94,95,114,67,51,85,82
208,93,88,110,65,52,89,82
214,93,92,103,63,50,81,80
213,93,94,104,53,40,60,61
217,98,97,98,52,42,66,62
208,98,87,85,50,48,73,60
185,108,88,83,51,48,80,58
182,108,85,77,50,47,80,59
181,104,77,69,47,46,75,54
177,109,74,67,47,48,76,59
168,99,85,77,54,46,71,59
190,90,84,81,52,43,61,63
182,110,86,88,57,44,64,59
197,121,95,101,55,42,61,58
198,121,100,97,53,37,59,59
201,117,87,90,42,33,55,58
199,114,91,88,42,35,55,58
208,111,91,85,46,38,57,63
202,108,79,72,51,37,60,67
214,95,72,74,60,46,72,68
201,95,71,80,64,45,81,65
187,101,61,80,65,42,81,65
179,99,92,86,65,40,76,60
186,103,96,90,67,45,78,57
171,103,102,87,58,33,63,57
185,104,116,89,60,39,62,66
208,103,125,92,62,45,69,73
224,99,109,92,61,44,74,74
206,89,107,95,56,43,88,75
226,94,105,99,58,43,88,75
208,95,90,91,51,39,79,67
197,101,81,84,46,34,70,55
177,91,77,99,47,34,65,50
188,93,72,93,59,35,42,51
166,92,70,93,66,38,43,48
174,92,77,100,69,38,46,47
172,83,76,107,71,40,51,52
164,80,75,103,66,41,50,54
149,77,75,114,56,41,54,56
146,82,72,112,53,47,65,49
153,89,74,108,50,46,67,58
141,87,78,113,51,46,66,60
163,93,75,101,50,46,71,61
183,114,85,84,51,45,69,62
197,116,86,80,45,36,65,67
207,108,81,77,43,37,61,59
237,120,83,95,49,35,62,70
227,124,84,102,59,35,58,72
247,114,78,102,64,40,61,77
227,109,78,115,72,38,59,72
226,117,82,123,77,42,62,77
200,105,76,102,71,41,60,63
201,96,85,93,68,42,59,62
166,89,79,96,71,39,56,61
192,97,75,86,66,43,55,67
169,88,79,84,61,38,51,61
187,93,86,85,64,41,51,62
202,102,75,102,61,38,55,70
215,110,83,105,57,37,57,63
190,98,84,103,54,35,54,58
194,97,82,97,54,35,55,57
187,102,80,96,50,31,59,60
166,97,82,76,49,35,63,58
159,93,76,72,39,36,65,64
165,106,85,83,40,37,64,64
160,114,90,91,43,36,63,64
181,120,96,99,41,44,70,66
191,121,99,105,42,43,61,61
190,124,105,99,41,38,56,54
199,114,101,101,48,46,66,55
217,113,98,103,50,49,73,62
216,93,89,96,53,49,80,61
214,104,85,99,58,52,85,59
218,93,83,103,66,57,88,67
258,98,81,116,65,53,88,73
265,114,86,112,66,55,93,69
242,113,86,112,64,53,79,71
257,96,93,110,58,49,73,74
263,96,94,124,58,44,72,67
217,108,96,107,58,47,87,62
215,102,89,101,54,44,73,66
253,114,89,99,55,44,76,70
248,135,82,97,54,42,77,68
227,144,89,77,44,47,84,70
239,134,86,66,46,63,98,86
217,121,81,66,48,66,100,84
178,117,79,66,48,66,100,78
205,104,83,68,50,68,101,78
212,94,64,67,57,69,101,80
216,99,68,75,58,53,66,62
209,103,67,83,58,48,65,58
197,102,67,79,58,45,63,55
145,89,64,73,57,44,66,52
150,112,73,71,50,41,73,53
125,107,69,72,44,32,70,47
144,109,73,71,48,32,68,49
167,126,71,87,56,38,72,59
177,130,65,91,61,42,79,69
174,105,61,93,66,41,64,69
188,116,61,95,68,45,68,75
181,128,65,97,63,44,74,76
165,108,75,88,61,44,73,69
167,101,73,88,57,40,65,59
186,109,71,92,54,44,83,60
165,101,76,91,57,43,87,53
177,106,77,96,61,51,91,60
177,118,63,92,55,48,92,61
184,120,61,88,55,51,100,68
182,116,58,87,56,46,89,64
185,117,79,86,56,47,87,68
221,110,94,79,54,44,85,75
241,109,105,82,55,45,85,82
240,109,110,88,62,43,73,80
226,107,112,88,63,49,88,82
245,101,97,81,58,47,85,88
217,86,79,79,58,43,79,80
209,78,90,90,69,48,83,81
201,81,88,83,62,45,86,76
195,93,86,75,58,42,78,77
201,111,88,82,60,45,83,85
183,113,103,84,61,44,83,81
169,132,83,72,52,39,76,75
165,138,84,84,55,43,75,77
193,132,88,90,56,41,60,77
164,124,84,86,56,39,56,57
174,127,62,78,51,41,62,66
190,101,66,76,46,38,58,65
189,93,73,82,54,39,62,64
182,102,70,79,55,38,65,64
220,95,74,78,52,38,60,73
207,97,73,83,55,39,60,69
187,93,78,90,59,41,70,65
211,94,68,81,49,36,74,75
219,82,66,86,48,35,73,72
175,94,61,85,50,34,74,60
187,102,75,88,48,32,86,59
197,110,83,102,47,39,97,61
182,112,84,101,52,45,101,59
168,112,88,100,53,46,99,65
168,101,87,98,50,46,102,70
172,85,73,96,53,49,89,71
197,79,74,73,50,43,71,72
186,75,72,71,44,41,65,65
172,73,70,68,45,42,64,57
184,73,69,70,46,43,61,54
180,71,78,64,43,39,59,49
156,126,60,74,46,46,67,55
159,130,60,72,53,51,73,65
174,136,64,73,49,51,78,72
179,134,67,85,48,49,78,74
169,133,61,92,49,50,77,75
155,89,61,86,42,46,82,73
188,87,78,98,49,41,79,66
184,82,80,97,51,40,76,61
174,94,79,89,53,42,77,63
180,101,82,83,53,41,82,67
208,102,84,84,59,54,98,84
248,100,70,66,46,53,104,87
258,104,66,77,47,53,105,84
272,121,76,76,50,55,104,81
279,129,71,79,49,56,101,79
274,122,68,71,43,42,74,56
219,124,73,77,56,42,58,49
211,127,71,84,71,45,58,55
209,123,68,116,81,48,61,57
199,111,68,127,85,50,65,58
216,115,67,135,87,51,64,70
207,114,57,139,83,47,55,66
206,121,86,136,78,48,70,65
195,106,85,118,66,43,71,63
191,103,84,109,60,44,78,66
155,102,86,103,60,44,80,55
159,98,92,92,57,45,84,58
158,82,72,96,49,42,73,55
148,87,70,95,53,42,72,56
162,92,67,90,55,46,86,67
171,92,67,86,52,45,86,76
174,96,64,87,49,45,87,77
172,105,72,95,51,45,88,79
182,104,69,85,46,45,88,80
177,100,70,84,50,51,79,71
170,101,70,85,50,54,79,59
178,96,65,84,50,51,72,55
179,91,54,60,48,57,90,56
169,96,64,92,63,67,95,59
215,102,63,103,64,59,84,76
237,99,61,101,64,57,84,81
227,116,69,106,64,60,90,81
222,126,68,104,63,56,79,85
237,118,62,80,49,45,72,84
198,108,70,77,39,41,68,66
166,113,74,87,42,46,79,61
177,117,79,82,41,42,76,66
168,100,78,84,45,45,72,57
200,124,76,101,59,49,70,62
200,132,76,113,69,56,75,64
205,128,73,112,72,61,90,70
192,112,60,112,72,61,88,65
248,115,60,127,81,61,83,71
211,108,78,115,71,57,86,70
204,107,70,97,64,52,91,69
200,111,86,90,58,44,65,60
213,107,88,90,61,50,73,69
161,113,87,80,48,43,71,65
152,94,72,73,49,44,71,58
186,110,78,77,48,43,65,62
198,105,67,80,48,42,73,66
193,113,65,83,43,36,67,60
186,112,73,68,37,37,75,62
210,131,77,70,38,34,75,65
203,136,72,65,34,33,77,58
191,141,78,75,45,36,73,57
185,134,80,76,48,39,72,61
196,131,71,84,56,44,68,62
168,132,73,86,57,44,66,62
139,109,75,85,56,45,60,64
137,113,61,76,49,42,59,66
149,118,63,76,49,38,58,66
130,113,61,67,43,34,55,60
155,102,53,62,37,33,50,54
176,113,57,68,43,34,49,54
175,107,70,91,51,34,45,53
164,110,72,103,69,44,61,49
196,113,82,104,68,42,65,57
197,121,80,104,70,47,79,63
192,132,78,107,72,51,80,68
198,136,82,99,72,56,85,70
211,138,77,82,56,52,88,75
199,141,75,82,59,55,89,76
185,123,77,110,70,57,81,70
177,120,76,117,75,55,81,65
190,118,65,111,70,50,77,65
191,113,67,115,69,55,95,69
185,115,60,121,72,61,112,69
192,116,66,99,62,56,112,73
212,101,68,83,49,54,118,84
195,101,64,75,49,54,117,80
195,101,62,69,52,49,93,74
187,106,63,57,46,39,70,67
191,116,64,57,53,40,68,66
170,112,63,63,60,41,72,57
164,111,62,86,63,40,69,59
208,117,71,101,73,48,86,61
212,111,72,109,78,50,87,63
207,110,74,122,77,53,88,59
210,118,81,157,82,53,93,53
213,114,84,154,93,59,93,52
158,104,76,146,83,54,82,48
162,112,73,148,81,53,82,59
185,98,71,139,79,51,80,62
186,100,66,103,70,48,60,72
181,113,62,91,51,43,65,71
181,116,67,94,52,44,60,75
209,112,66,81,45,47,64,66
193,126,60,89,56,49,72,69
187,115,58,81,56,51,73,60
221,102,63,83,53,49,73,66
221,111,65,83,58,50,73,61
196,105,66,84,59,47,73,62
185,102,82,87,53,43,65,57
183,129,79,95,55,41,61,59
150,131,76,94,57,41,63,58
152,126,77,92,54,48,77,64
163,134,77,94,55,46,75,63
179,126,73,96,51,46,76,62
198,102,71,88,46,46,76,62
193,96,73,87,49,49,84,62
193,92,67,89,48,39,74,56
186,83,66,99,56,39,70,55
168,86,67,91,60,45,85,56
157,94,75,87,62,51,108,58
189,103,79,97,67,61,107,57
190,113,79,97,72,60,110,55
170,121,81,85,67,61,111,55
195,115,76,82,61,60,106,60
244,120,67,86,60,56,88,68
227,119,61,81,52,42,76,67
225,127,64,80,48,40,68,66
242,117,66,94,46,39,69,71
265,128,59,94,52,39,71,79
216,122,68,95,54,38,67,68
209,116,69,92,52,39,66,67
200,108,67,89,51,40,64,67
190,145,65,76,49,42,72,66
135,138,68,66,43,38,61,53
129,141,63,65,38,36,59,52
148,150,64,68,35,35,63,52
159,148,67,71,35,34,72,54
172,110,69,66,34,30,59,52
172,107,71,74,42,35,68,50
172,93,69,85,52,41,66,54
190,100,71,89,59,50,79,64
188,100,86,94,57,50,82,67
211,100,81,96,61,54,94,70
214,102,74,95,57,49,90,70
211,118,76,97,54,46,94,70
198,112,104,112,52,38,99,64
194,112,91,107,55,37,90,60
157,129,95,107,57,32,79,56
153,132,102,115,59,33,80,54
155,123,99,105,59,37,78,52
139,131,65,81,60,40,67,46
165,144,75,91,66,45,70,52
154,134,74,98,65,46,84,51
147,130,67,94,69,47,81,54
216,134,72,103,72,53,85,66
242,124,78,107,73,53,83,69
226,99,67,95,66,51,82,65
245,102,77,92,62,51,67,67
248,103,79,103,62,51,64,65
219,96,73,93,60,44,52,55
182,95,68,91,58,46,58,52
186,110,69,94,66,50,62,52
176,105,61,93,73,52,63,47
185,112,78,98,73,56,85,52
164,114,78,98,74,63,110,56
171,104,77,93,70,61,110,61
182,98,77,97,70,58,110,63
166,92,73,96,65,59,112,64
181,93,47,68,59,54,96,61
163,86,46,72,54,46,72,58
187,98,49,81,59,45,73,57
199,96,53,78,53,42,69,59
203,104,50,82,49,36,69,58
208,117,56,85,50,36,72,57
252,119,71,87,54,39,78,59
228,116,70,83,50,36,66,51
200,111,69,82,51,40,69,45
204,123,71,77,51,40,65,45
191,120,80,82,57,41,62,52
182,119,67,75,51,36,47,66
190,113,71,76,54,40,51,69
192,111,73,81,55,39,51,69
200,111,79,86,58,43,56,71
209,102,78,86,52,45,62,78
165,102,79,90,55,47,65,61
164,102,75,87,52,47,67,64
178,112,75,77,45,45,66,74
190,103,65,71,44,47,67,75
186,99,60,64,43,44,60,67
192,104,74,64,41,40,61,66
214,104,77,61,40,38,56,67
233,99,76,71,44,39,62,60
212,85,82,74,55,44,61,58
192,101,81,77,55,44,73,56
195,95,70,81,57,44,75,64
172,96,68,87,59,43,73,57
125,97,68,85,58,41,66,52
151,100,63,88,47,37,109,56
165,89,78,94,53,45,106,64
163,101,83,86,52,45,104,56
173,108,80,80,48,44,107,57
173,106,82,78,51,47,109,57
199,141,82,85,60,45,68,63
198,159,72,82,63,44,71,57
196,152,78,84,63,44,67,55
186,150,83,91,65,45,66,56
221,158,80,93,65,43,70,63
191,137,80,82,54,43,84,56
201,177,85,76,46,38,77,56
272,201,90,87,47,39,79,68
273,210,91,97,60,49,99,70
267,210,95,102,60,48,98,68
300,232,97,101,65,49,90,73
296,190,91,99,63,48,91,70
250,165,74,92,67,59,105,69
251,150,73,76,55,53,87,66
240,142,67,72,55,52,82,63
196,104,69,77,54,51,74,56
203,109,88,87,58,55,79,64
194,113,89,86,54,44,71,54
192,114,93,93,53,43,71,53
191,115,95,98,54,44,75,62
185,114,103,93,50,43,75,60
165,105,82,84,52,36,68,53
163,98,81,83,51,33,55,56
165,109,76,77,52,33,56,64
167,112,80,72,51,31,53,57
166,99,66,72,48,30,50,59
159,96,65,72,42,31,51,57
149,99,64,78,51,38,61,55
139,89,66,101,56,41,63,47
140,95,86,111,56,44,69,49
142,103,85,110,57,44,71,48
160,110,87,111,58,45,70,54
176,127,88,120,57,41,77,58
176,128,85,103,55,38,78,60
168,138,64,108,61,41,83,65
199,157,68,114,63,48,89,77
211,170,71,130,77,54,96,82
217,160,73,119,78,61,91,85
244,163,72,126,77,60,87,85
251,150,74,115,74,57,78,83
225,124,78,119,76,55,75,74
201,98,78,103,64,49,70,68
184,94,75,101,58,37,58,60
166,111,77,91,55,39,58,57
187,120,68,87,53,39,55,52
186,124,58,83,52,37,48,49
191,126,56,83,53,37,52,43
202,120,54,91,51,37,60,49
197,97,53,92,55,38,65,52
171,104,57,87,55,38,67,54
178,100,63,84,55,39,78,54
170,95,57,78,51,44,77,55
144,100,56,67,52,43,71,48
153,112,61,63,52,55,80,53
162,90,58,71,50,53,82,59
155,96,56,65,51,52,83,63
171,97,64,80,62,57,105,67
182,100,67,94,63,61,113,81
170,101,68,95,58,51,106,75
158,108,65,95,57,52,102,69
174,104,61,95,56,55,105,69
182,105,63,86,42,45,78,65
174,124,70,79,39,39,75,59
263,232,72,76,43,42,79,77
271,241,77,73,51,47,87,78
291,268,79,73,51,44,74,75
284,271,79,79,61,47,81,84
293,266,98,101,70,49,72,78
215,169,94,106,71,49,67,63
195,157,94,112,70,47,70,60
149,102,94,115,72,44,69,64
166,108,90,113,65,41,63,59
161,101,67,106,64,41,61,57
169,106,69,112,67,45,61,55
194,103,68,105,63,41,46,60
191,100,64,100,62,42,44,55
190,83,64,100,61,43,50,51
195,119,62,78,49,40,53,55
206,136,61,68,40,33,58,57
202,136,61,79,53,36,59,55
207,139,64,87,53,40,70,57
208,192,69,89,56,43,71,64
198,175,71,92,59,46,73,61
186,182,73,93,61,43,67,59
171,187,90,113,70,49,78,60
166,183,88,119,73,49,67,57
160,177,86,120,71,45,60,54
174,215,81,122,72,45,70,67
178,202,82,119,70,47,80,67
178,203,58,90,53,41,73,66
207,206,64,77,45,39,73,73
197,175,64,78,52,40,76,73
177,120,67,77,54,45,74,63
222,114,67,99,65,50,74,65
260,119,72,108,71,49,70,69
241,129,77,104,71,51,80,65
245,134,81,107,74,62,102,58
262,135,86,104,72,60,99,65
234,138,83,83,63,55,93,66
226,127,80,77,57,55,99,77
266,130,76,80,63,58,92,75
265,135,78,71,58,47,63,74
255,136,71,75,53,44,56,69
256,136,81,81,52,47,67,67
229,131,83,78,48,46,72,50
186,115,78,78,47,41,72,48
179,85,73,81,46,39,76,48
226,78,86,83,46,40,76,58
239,90,87,83,57,46,78,64
250,90,89,83,58,45,71,64
252,95,95,104,62,45,67,66
259,108,95,104,58,42,67,68
225,105,86,103,62,46,76,67
215,100,74,97,53,39,77,76
209,100,68,100,55,36,72,77
202,107,67,75,45,35,72,77
208,100,64,76,55,39,70,81
202,107,57,72,61,46,75,76
184,110,60,76,67,49,72,59
170,118,68,78,65,51,76,66
167,113,60,79,64,52,78,65
156,112,62,74,60,52,82,58
150,103,69,82,61,48,72,56
166,93,64,76,53,44,69,62
164,98,74,80,53,43,66,51
171,97,78,80,54,44,69,52
173,99,76,81,51,44,75,58
234,108,72,69,44,40,79,62
224,101,75,74,47,39,76,63
226,91,61,88,58,39,93,74
221,95,54,91,62,36,90,73
223,89,51,87,61,41,93,72
162,85,53,90,59,37,89,72
157,93,57,99,60,43,102,77
165,96,72,80,50,43,89,67
160,98,79,75,44,45,90,65
165,108,79,78,53,54,92,69
170,111,84,76,56,58,93,68
166,105,80,80,64,57,75,56
162,101,82,87,63,58,77,60
163,98,78,86,66,59,75,65
145,111,77,86,61,48,77,59
140,112,69,84,60,45,85,62
129,129,79,91,55,45,91,64
118,128,65,91,55,44,91,64
136,134,63,90,53,50,114,72
128,120,71,101,67,58,107,70
124,115,75,109,70,59,98,68
134,96,69,91,66,58,94,65
143,100,65,85,66,57,92,64
126,79,62,86,65,52,70,55
149,76,59,78,50,42,72,60
158,81,55,70,46,44,76,56
156,93,67,69,49,42,76,54
152,91,64,65,47,43,73,52
178,115,67,62,52,49,80,60
163,114,64,59,56,54,83,61
146,112,71,67,55,50,79,60
142,109,59,87,53,50,80,60
150,114,61,96,65,55,86,63
115,95,57,98,63,51,84,53
102,88,60,116,65,58,107,51
100,98,60,129,71,59,111,53
154,97,54,120,69,58,114,56
151,99,57,117,64,55,115,56
158,96,60,126,67,55,112,67
169,107,67,117,61,42,85,62
179,110,68,100,52,40,77,64
168,126,76,99,54,43,77,64
178,121,74,95,49,42,75,65
191,124,74,82,44,42,69,59
184,116,65,72,40,41,66,60
175,114,79,72,54,48,71,57
153,91,85,69,56,47,69,55
154,95,84,72,55,48,66,60
129,112,87,76,58,54,73,55
125,111,86,77,62,56,70,55
136,102,71,73,51,50,69,56
168,107,54,71,49,52,69,55
156,103,74,70,56,56,80,49
157,88,70,77,55,50,78,49
162,91,73,94,58,45,76,49
165,101,69,94,59,44,75,52
141,101,82,97,58,41,76,58
138,99,68,96,53,38,67,58
144,96,72,88,52,41,69,62
157,120,75,71,46,42,72,62
181,115,78,68,43,43,73,56
167,121,77,65,42,42,71,53
161,122,77,79,48,41,68,48
174,122,80,98,49,36,66,45
195,120,80,93,50,37,65,44
176,131,79,96,51,37,64,51
182,132,73,97,50,36,60,48
204,144,78,91,52,38,68,62
198,150,71,73,49,38,64,58
166,133,68,72,48,39,67,58
159,119,71,81,64,41,67,56
170,112,66,86,74,47,79,59
151,108,58,80,69,42,70,50
152,104,59,77,70,42,75,53
161,103,58,80,69,38,74,54
163,118,65,72,58,38,76,56
142,111,66,72,50,38,76,52
131,101,68,81,52,41,75,49
132,98,66,85,51,42,67,59
133,99,63,83,56,46,68,62
142,94,58,83,54,43,64,60
151,95,56,82,57,44,64,61
162,97,62,75,55,43,69,63
169,89,61,74,54,43,69,54
167,103,78,81,56,43,70,48
171,95,78,75,57,46,73,60
170,95,78,70,51,40,61,60
165,98,78,71,52,39,54,60
171,106,80,78,53,40,55,61
171,105,77,74,47,37,70,68
151,114,73,76,47,41,79,60
147,119,77,81,55,59,101,68
156,116,73,90,53,60,104,66
140,118,73,86,50,62,108,65
139,112,60,92,54,61,98,60
145,105,60,93,48,57,88,60
139,96,56,90,44,38,64,51
131,91,52,78,44,38,61,56
149,120,55,98,55,39,54,60
141,114,55,104,55,39,50,58
130,108,70,132,67,42,55,54
144,125,70,133,71,49,68,53
143,129,70,135,72,47,67,51
115,94,68,146,73,43,67,47
132,93,72,139,70,43,71,47
152,96,54,113,61,42,74,49
165,92,52,107,52,38,76,53
165,94,56,108,50,37,74,50
173,105,55,77,42,37,74,47
159,107,56,79,44,39,81,51
148,110,57,83,47,48,102,54
138,100,58,87,56,55,112,57
128,92,56,82,57,56,112,58
144,100,56,72,54,55,111,57
168,116,56,77,54,56,117,69
173,116,56,82,54,56,108,74
162,113,63,96,55,53,93,69
169,114,59,104,59,58,95,71
152,101,67,113,62,62,105,72
128,84,61,104,61,58,89,60
123,77,60,98,56,49,76,50
124,73,51,82,44,42,71,53
161,99,53,85,44,37,69,52
158,99,40,71,39,31,52,51
168,113,45,76,43,36,60,52
170,130,45,75,46,36,60,49
190,135,47,81,50,38,65,52
167,117,46,86,70,45,64,49
166,134,56,110,85,48,68,52
210,133,54,109,82,46,64,62
212,121,58,117,86,53,68,66
195,119,60,119,89,54,61,62
246,121,61,115,73,50,60,67
262,99,54,99,61,49,55,66
256,81,53,109,64,47,54,68
257,94,49,104,61,44,57,67
263,107,60,99,56,43,66,67
215,119,63,93,53,37,73,66
207,119,62,91,46,37,81,66
167,119,60,75,44,41,90,58
165,104,65,73,41,42,89,62
170,92,51,75,46,43,84,67
165,90,51,66,45,43,77,69
166,94,54,66,46,42,70,68
189,93,56,63,47,51,79,67
185,110,57,69,44,48,73,62
177,109,60,67,40,47,77,57
180,108,63,71,38,46,77,54
176,116,64,72,36,46,92,56
158,122,62,83,49,51,93,60
153,110,56,76,51,51,96,61
164,116,64,81,54,52,95,69
159,110,63,81,57,53,100,68
147,102,58,78,58,54,89,67
152,95,57,65,48,39,69,63
171,95,71,82,58,46,69,65
