49,41,76,50,25,31,97,93
52,43,83,48,25,29,86,111
53,42,71,45,21,25,70,109
58,43,78,48,24,22,72,108
57,41,84,46,23,22,58,97
51,37,81,39,23,23,55,94
49,33,68,36,20,19,42,64
48,32,77,35,20,20,39,56
37,54,155,39,24,107,33,54
47,74,282,48,32,124,37,60
63,103,349,57,36,133,41,90
65,136,416,73,38,141,40,91
69,222,514,116,45,180,53,121
71,289,616,160,47,162,57,119
74,314,628,165,42,162,56,127
240,361,678,190,44,184,64,156
262,360,646,190,46,184,80,159
281,316,577,170,41,148,77,150
292,256,462,134,40,131,99,152
295,218,387,128,42,119,130,187
200,110,221,87,43,76,157,178
180,76,209,80,42,63,157,186
149,70,207,86,49,65,164,195
129,59,176,75,47,65,168,208
121,58,165,74,50,60,155,189
113,55,145,69,44,48,139,179
178,53,145,65,43,47,149,203
189,57,126,55,36,38,154,198
207,63,131,62,39,40,154,192
212,65,137,58,35,43,168,209
213,62,134,55,36,40,157,215
159,57,131,63,38,42,164,204
162,53,124,65,39,45,155,209
172,52,103,60,38,40,179,222
178,51,80,58,36,35,162,207
169,58,76,61,34,36,167,202
177,63,83,62,34,36,170,224
187,64,107,67,31,32,169,226
164,60,113,67,29,33,136,207
155,57,133,72,33,45,143,205
159,54,135,71,36,45,144,195
148,49,129,64,35,47,126,155
119,48,139,61,38,48,126,140
110,53,141,60,39,49,127,152
127,55,136,56,40,45,137,157
149,55,136,54,37,45,145,172
167,59,155,55,40,39,141,176
182,67,138,51,36,41,140,178
184,67,149,51,37,42,131,170
188,68,142,50,39,39,126,160
170,74,164,63,41,43,126,139
159,74,165,69,41,45,127,138
148,68,163,73,41,43,128,150
149,67,154,74,42,43,161,154
157,68,155,74,37,38,158,149
169,65,154,77,38,38,153,160
172,65,137,72,36,36,152,159
167,69,161,70,37,37,153,146
162,67,154,70,35,37,118,136
145,67,161,72,36,38,119,148
126,61,140,62,33,35,109,143
108,59,140,61,32,32,103,137
107,52,114,67,31,34,115,129
158,64,126,70,34,33,121,181
149,66,144,71,34,31,105,167
144,69,147,67,35,32,118,164
152,70,159,68,35,33,121,163
151,69,157,60,35,31,109,172
112,59,156,55,32,32,134,123
118,57,135,50,32,33,139,128
130,53,136,50,29,32,134,125
143,51,122,50,29,32,147,141
155,57,121,49,31,35,152,141
148,60,127,50,33,36,123,136
144,61,129,49,33,36,123,128
136,60,139,56,34,39,121,129
122,58,140,55,35,40,100,107
125,58,168,62,34,37,103,100
139,54,171,61,32,35,124,109
149,54,181,61,31,36,127,120
161,54,179,56,31,30,126,118
185,56,178,50,28,30,129,116
199,57,176,53,28,31,130,124
186,57,175,61,33,31,110,116
172,56,181,59,33,30,102,114
162,61,176,60,33,35,101,118
147,62,185,75,35,36,115,124
118,57,187,71,35,36,108,115
132,58,190,66,32,37,123,131
136,73,183,76,38,42,155,148
142,71,178,81,40,45,159,146
122,76,198,77,41,42,143,155
111,80,199,84,44,42,142,155
99,80,217,86,44,43,129,143
112,72,224,83,43,40,109,152
108,72,228,79,41,35,112,168
105,69,204,71,41,37,117,161
103,62,186,59,36,37,115,162
103,63,175,57,36,40,120,166
94,68,181,60,39,43,132,179
122,68,176,68,44,44,130,171
131,67,179,71,42,43,131,168
138,69,180,73,44,48,144,174
136,76,196,76,42,45,147,168
129,61,176,79,41,41,129,127
144,66,212,72,37,43,141,143
141,65,210,71,39,42,148,152
138,72,226,71,36,36,149,163
144,65,202,70,43,36,148,174
148,71,205,69,43,37,147,188
109,65,164,68,42,35,129,178
128,72,168,66,43,38,142,205
137,61,154,66,48,45,129,192
182,65,169,65,49,55,131,187
186,64,174,56,45,53,129,179
186,63,187,62,45,53,150,195
176,59,203,76,46,54,139,166
165,77,216,79,52,59,156,212
103,87,266,91,50,53,153,216
87,89,258,89,52,55,160,219
75,89,256,87,53,54,141,205
82,86,248,85,52,52,135,217
93,73,249,93,43,44,117,193
96,60,194,83,39,41,113,190
110,54,196,84,35,39,107,183
124,72,201,87,38,44,132,183
116,75,204,80,35,42,134,175
126,74,188,69,38,44,140,147
133,72,168,64,39,42,146,158
126,79,197,73,44,47,150,166
124,82,194,74,43,47,133,171
128,85,193,74,44,49,145,189
131,88,184,73,41,46,156,231
125,89,203,80,42,50,159,237
118,95,184,72,38,46,181,238
107,90,191,68,37,42,190,244
97,91,180,72,37,43,185,229
80,93,198,76,38,43,187,245
87,95,177,77,39,44,223,271
96,89,164,81,40,52,263,297
103,84,164,78,45,59,277,334
104,83,169,93,46,60,280,346
93,83,158,91,46,61,301,315
90,91,157,87,50,58,328,322
110,88,158,84,49,53,301,332
114,88,157,87,50,47,352,320
116,88,169,69,51,49,353,318
120,94,167,70,52,49,341,326
141,90,168,68,48,53,310,318
122,98,179,79,51,58,320,323
128,101,176,78,45,61,270,323
127,101,160,71,47,59,272,330
130,92,158,68,43,57,255,332
102,93,158,67,40,54,227,301
108,85,139,54,40,48,192,271
91,95,175,75,45,56,214,257
119,95,199,87,47,61,265,267
121,107,214,91,56,72,310,294
122,107,215,93,59,70,315,305
122,116,223,105,61,71,343,317
125,106,197,99,63,65,361,365
101,109,168,91,60,58,323,341
94,96,162,86,54,48,286,311
109,91,162,85,52,51,277,299
110,89,227,85,46,48,249,284
127,92,222,76,37,48,197,211
129,89,234,78,42,50,193,211
126,89,221,84,39,48,183,195
112,90,222,87,41,46,191,236
122,90,154,85,44,51,204,235
106,82,152,84,41,50,163,211
103,81,137,86,39,48,157,212
123,94,166,80,39,50,166,215
128,101,180,77,36,51,169,164
124,94,172,63,34,46,138,156
122,96,176,74,36,42,143,161
137,98,220,80,41,44,160,222
122,85,196,77,40,42,156,222
118,76,185,76,41,40,150,246
118,79,195,76,40,39,140,235
117,73,196,67,41,40,155,244
112,82,144,58,36,39,140,198
121,85,154,68,36,38,139,205
123,86,147,71,35,38,158,190
120,81,138,67,38,47,201,208
118,85,125,65,37,48,189,190
120,74,140,81,34,45,191,183
110,72,124,82,38,47,187,168
115,72,128,85,39,46,176,176
118,71,142,88,38,36,131,171
119,71,154,91,38,34,127,174
108,73,137,76,41,35,141,194
106,81,142,67,37,35,148,198
98,79,139,59,36,33,137,179
83,76,119,59,35,36,130,175
83,73,110,57,34,36,129,175
95,70,121,56,33,34,139,138
100,62,145,53,34,36,131,140
115,61,148,56,35,40,147,189
120,72,161,55,35,38,153,175
129,77,161,59,34,39,164,179
129,83,165,56,33,41,136,174
122,84,140,57,31,36,142,166
121,90,151,55,33,40,139,143
130,86,161,55,32,38,140,151
135,81,216,72,41,38,147,150
132,83,212,79,40,38,153,171
131,83,229,90,41,39,160,181
121,76,250,93,39,34,154,165
106,77,241,93,39,33,144,155
87,77,188,85,35,33,133,149
92,78,198,86,36,33,122,150
106,84,220,77,35,40,136,161
107,82,202,78,35,39,125,149
119,79,199,84,38,41,125,149
123,82,217,79,40,45,127,155
115,77,208,73,43,45,129,141
110,75,179,72,43,44,102,120
107,76,169,67,42,46,99,119
97,82,179,62,39,43,120,140
91,85,156,58,37,46,123,149
90,86,163,61,34,46,139,146
98,82,146,57,35,47,140,150
93,90,141,65,37,47,154,165
92,83,123,76,43,49,147,151
92,79,164,81,42,47,143,150
87,80,148,80,39,45,129,163
71,76,149,87,38,41,129,160
87,66,150,82,40,40,125,193
86,69,188,88,37,36,123,197
89,72,180,90,43,34,127,192
85,66,183,92,47,41,143,198
96,86,205,88,47,43,157,203
88,87,205,89,48,48,159,165
89,86,181,71,49,49,161,169
84,82,159,63,42,49,162,160
88,83,161,61,40,47,145,137
82,77,161,60,38,47,132,129
73,75,152,57,34,42,135,122
98,76,192,70,32,41,127,119
114,72,195,70,31,38,125,138
113,71,197,78,31,36,138,139
111,68,198,77,36,32,127,133
114,68,202,77,37,29,122,131
94,68,168,78,38,35,127,119
77,71,187,88,42,39,134,138
78,70,185,78,41,37,121,134
78,61,171,81,36,40,123,141
78,61,171,87,37,43,112,139
79,61,175,79,38,38,110,147
75,58,149,67,33,36,110,120
85,67,191,80,36,38,116,141
84,72,190,87,36,37,123,145
87,73,206,105,39,39,144,155
82,75,220,105,39,42,145,168
88,79,224,106,39,42,136,160
86,70,194,97,38,45,137,158
85,65,192,91,39,42,132,148
83,77,185,69,37,44,153,153
90,86,177,71,41,45,156,143
96,82,176,74,42,44,160,144
84,80,177,81,43,43,157,129
83,83,176,80,44,49,158,132
88,71,165,79,44,47,136,136
98,69,137,73,38,46,127,136
90,71,138,74,36,47,142,137
99,73,126,63,35,44,153,147
101,78,141,57,33,40,153,147
105,76,175,64,36,41,135,127
90,67,173,70,35,41,150,128
96,65,172,66,36,40,123,131
92,63,186,68,35,43,124,121
94,50,177,79,37,42,120,124
91,58,142,73,38,47,136,142
89,59,148,69,38,44,119,126
76,58,142,63,38,44,124,118
83,64,139,70,39,44,117,118
84,67,135,60,43,46,121,123
82,60,135,62,39,37,111,113
90,62,125,62,40,40,126,141
92,66,134,70,44,41,123,145
90,72,118,65,44,40,116,147
94,72,114,70,42,38,115,140
94,75,120,71,44,41,109,138
89,86,131,75,42,38,88,132
109,92,124,73,40,37,100,137
108,87,131,75,40,39,96,132
100,89,120,72,37,37,98,141
97,93,112,74,36,33,127,148
111,83,107,71,36,36,132,131
100,75,107,68,33,37,144,155
99,76,116,68,33,33,148,162
102,72,129,63,36,37,148,152
103,75,140,58,33,35,134,157
98,76,135,55,38,33,140,153
93,81,152,59,41,32,119,129
97,106,142,64,39,32,108,118
103,111,136,77,39,27,103,124
104,105,126,82,42,33,102,136
95,102,145,91,40,36,89,135
89,96,131,92,36,33,91,133
88,63,142,91,39,35,102,145
83,79,138,83,36,36,110,148
81,85,140,83,34,31,104,129
85,86,121,75,34,32,130,139
88,104,156,82,38,38,140,149
85,113,153,79,35,41,157,149
88,102,159,77,44,47,179,183
93,106,158,71,43,48,183,186
94,107,167,80,42,46,177,183
98,96,137,73,43,47,191,195
105,93,152,75,45,46,178,207
108,91,153,83,38,40,158,191
100,81,180,85,37,39,178,197
111,82,173,79,41,42,179,225
113,83,171,81,39,36,153,204
106,78,147,76,35,33,154,185
97,77,142,72,40,41,168,201
107,81,123,75,41,40,149,195
122,87,143,73,41,41,153,178
117,84,148,70,40,43,169,199
119,84,153,74,43,44,168,220
123,90,158,75,42,41,156,198
126,96,161,73,49,47,186,203
95,95,141,75,47,44,176,191
94,95,180,83,49,44,165,173
96,95,188,94,48,43,190,176
104,88,198,90,47,42,186,170
100,80,197,94,44,44,179,195
103,80,225,104,51,53,175,213
103,102,237,98,48,53,175,210
97,98,236,92,51,57,162,234
87,100,238,96,52,58,174,233
83,105,236,98,50,52,146,213
75,100,225,86,42,44,142,189
76,81,206,86,43,44,155,214
72,83,200,83,38,39,148,179
73,80,209,81,36,41,131,182
79,83,206,73,37,46,138,173
85,86,204,73,39,43,137,179
91,82,206,70,42,42,141,164
93,86,236,69,43,44,134,146
93,97,239,66,43,39,136,182
97,88,249,68,41,32,131,192
99,86,243,85,59,55,153,196
90,85,214,87,56,56,137,190
95,81,196,85,56,57,145,213
102,83,168,85,60,71,166,196
92,85,152,85,62,73,165,198
94,90,145,71,47,63,149,190
104,95,159,68,50,61,144,181
107,92,136,70,52,59,157,173
100,87,144,75,51,47,140,162
96,101,158,75,47,48,149,153
98,99,166,73,48,46,185,187
101,100,184,69,47,57,219,193
102,103,182,66,44,59,202,175
100,107,180,67,40,54,215,173
97,100,181,69,42,53,204,163
89,113,182,66,38,49,182,125
79,112,186,73,37,35,146,126
87,117,207,100,39,39,155,154
83,106,197,95,40,47,141,156
86,102,184,91,37,47,153,155
86,95,198,90,37,49,144,151
84,92,179,85,35,52,150,148
60,84,165,57,32,47,138,118
64,87,181,60,30,41,133,118
65,94,179,60,32,43,147,145
66,88,180,63,32,39,147,148
61,88,185,72,31,35,151,149
59,88,173,70,34,35,157,173
88,95,165,69,34,38,147,163
90,86,190,73,33,35,123,141
97,86,191,73,37,37,147,170
101,85,175,63,39,42,142,165
118,90,177,65,36,41,154,178
106,82,189,71,39,38,175,185
105,85,169,69,42,39,179,189
102,94,147,67,39,38,156,165
105,93,177,77,43,35,164,183
91,93,182,75,42,36,157,168
83,98,162,66,42,37,144,165
81,96,187,71,41,39,149,166
74,89,193,71,39,40,146,160
70,92,174,64,34,40,134,154
79,90,169,61,36,39,148,136
85,89,175,63,35,40,140,128
90,100,148,53,36,41,145,140
98,99,137,51,35,38,144,138
105,106,136,56,37,37,152,137
103,103,130,55,35,40,144,129
104,98,122,63,36,38,160,136
100,89,189,68,40,37,154,121
94,95,219,71,43,37,161,145
85,90,235,73,42,40,149,133
94,92,242,76,43,36,132,138
85,100,244,68,41,41,124,134
85,96,192,70,37,41,134,147
86,86,161,71,46,49,158,137
87,78,149,69,44,49,161,133
73,84,158,68,46,48,172,141
80,78,165,73,46,47,174,146
82,78,185,78,47,49,163,138
88,87,191,79,39,43,136,124
86,93,179,75,42,42,136,131
84,90,174,79,42,44,141,118
74,85,186,76,41,42,129,105
77,94,188,73,39,37,147,102
72,93,179,70,41,45,171,140
69,87,174,70,40,45,182,141
70,88,164,71,39,43,180,174
81,99,139,71,39,42,186,205
78,93,105,63,41,44,171,205
72,81,115,63,34,35,145,183
71,78,131,60,36,38,142,188
65,78,143,56,35,38,133,165
66,64,155,64,36,38,157,137
62,70,153,67,35,38,165,157
65,75,144,64,39,44,181,165
69,86,186,84,43,38,177,156
69,80,182,84,43,39,176,144
70,80,177,83,48,41,166,149
71,103,182,83,46,39,164,120
68,108,201,85,45,33,157,116
67,99,158,70,40,37,148,113
75,104,158,69,44,42,156,161
61,116,163,64,38,46,138,145
64,90,188,70,41,50,152,158
69,103,206,78,43,51,156,172
70,110,226,78,45,49,184,187
61,106,222,80,41,46,182,170
86,96,228,90,46,45,185,172
84,98,207,83,47,44,186,166
86,93,169,78,45,45,177,159
87,88,128,73,41,46,152,139
89,89,125,74,41,46,151,138
63,87,124,60,36,41,151,143
68,154,150,71,35,39,129,139
60,147,157,71,38,42,137,128
54,160,164,75,39,41,141,144
51,166,165,71,38,41,133,116
58,167,162,76,37,41,132,110
58,130,144,77,39,46,133,126
66,128,134,75,36,42,118,129
69,117,167,78,38,42,107,118
76,113,164,89,39,40,109,131
73,112,166,88,39,41,121,133
70,104,192,85,37,37,122,137
61,105,205,85,39,36,126,130
56,103,196,87,39,36,139,124
58,102,215,77,37,37,134,110
61,105,232,84,41,39,119,113
58,96,237,87,42,38,117,87
58,103,233,91,41,40,124,97
68,102,223,87,42,41,114,105
74,111,218,92,46,38,112,109
76,107,192,89,48,40,109,107
75,104,158,85,45,38,120,113
81,108,210,93,45,38,119,120
82,104,214,95,45,38,129,120
71,103,221,89,43,38,134,128
74,106,219,85,39,37,144,119
76,105,216,87,40,41,127,115
78,95,171,73,41,39,126,128
70,92,162,66,38,37,118,126
75,86,138,73,40,40,114,126
71,99,147,69,36,36,97,131
76,97,158,67,35,32,100,130
66,96,152,66,32,33,94,117
70,102,151,70,33,34,82,112
64,95,175,68,32,33,84,116
66,83,174,73,34,33,89,109
63,81,162,68,37,37,91,115
70,85,162,70,41,36,84,100
65,79,168,73,41,37,92,117
67,81,147,74,40,35,91,101
65,76,157,81,39,34,94,103
67,81,162,83,39,36,100,98
64,75,152,82,36,35,104,106
61,78,148,80,35,31,103,91
69,85,149,79,38,33,102,93
66,83,135,79,38,33,114,123
64,83,127,78,36,31,122,124
65,101,131,80,34,30,119,118
66,105,147,77,36,31,119,116
61,100,139,88,34,34,149,134
78,107,144,83,38,34,157,161
90,124,154,85,39,31,149,170
91,115,164,98,48,35,163,175
101,115,141,100,47,36,165,174
108,125,176,93,46,34,152,161
96,121,165,91,46,42,133,114
85,100,171,88,48,44,151,112
89,95,174,70,43,43,138,98
100,116,188,69,43,44,138,110
94,132,152,62,44,46,126,104
114,142,188,63,40,38,121,95
111,145,195,69,38,35,90,73
119,149,181,72,35,32,104,107
103,138,171,70,33,32,121,96
98,127,169,67,31,29,118,98
128,169,148,74,37,34,125,102
129,174,131,72,40,33,123,103
126,179,135,73,44,36,143,88
136,200,176,78,45,38,134,101
140,205,180,79,46,37,139,105
115,176,168,70,42,36,134,106
121,184,163,66,39,38,137,106
136,194,166,62,34,36,109,87
135,188,125,59,35,32,108,94
140,174,130,56,37,35,97,90
140,187,128,74,41,34,110,89
140,191,131,77,44,32,116,90
120,184,133,80,47,32,107,91
114,165,134,84,43,31,113,83
100,161,151,84,43,32,126,91
94,140,152,79,44,30,131,92
96,136,185,82,41,29,138,109
91,122,186,88,47,35,151,116
100,125,181,94,55,37,147,113
101,131,198,93,54,35,141,111
90,137,194,91,53,36,128,109
91,128,172,90,52,37,114,94
98,130,164,79,48,35,123,90
84,130,177,66,41,41,120,90
85,127,141,71,40,39,118,90
120,145,141,72,36,38,124,99
113,135,125,69,36,41,136,94
112,134,136,76,36,39,117,102
119,127,130,76,35,29,105,94
126,130,150,76,38,33,124,103
106,137,163,71,42,35,131,110
104,148,161,67,44,35,135,118
102,148,179,61,40,34,136,113
101,149,192,61,45,37,141,115
90,145,173,63,46,41,132,121
73,100,170,62,43,40,124,112
103,106,176,61,43,41,119,113
103,122,172,63,48,47,114,110
96,129,152,69,46,46,119,115
105,134,153,64,48,44,178,131
105,152,143,62,49,48,194,130
81,137,137,66,47,45,191,135
79,121,112,59,42,37,200,136
91,114,109,51,42,38,199,139
85,117,109,51,36,37,148,110
81,91,141,50,36,31,117,116
92,112,192,48,36,35,143,116
90,113,223,56,40,40,139,116
83,114,223,57,39,38,134,103
82,103,221,56,40,35,129,107
88,102,209,57,40,41,151,108
71,77,173,52,40,39,125,98
71,78,145,43,36,37,112,90
80,80,159,50,38,37,113,93
79,79,170,51,34,49,110,84
82,112,177,52,34,57,102,86
169,204,184,74,50,60,109,94
209,266,179,83,56,60,114,97
231,300,169,80,52,61,121,101
231,301,189,86,57,52,124,97
233,301,192,91,58,42,107,87
186,257,182,78,48,48,100,71
144,191,177,70,44,51,102,73
96,130,186,70,47,52,124,72
102,200,161,61,42,52,120,79
109,200,176,57,44,49,118,80
103,194,168,58,42,42,127,86
102,202,166,58,40,38,150,100
111,204,161,61,38,35,131,106
108,141,176,60,40,33,134,103
106,130,181,60,40,33,158,110
110,155,201,64,43,33,191,149
112,159,208,70,45,40,175,148
106,167,200,72,47,41,175,141
103,165,191,76,45,46,172,139
110,161,202,73,43,67,170,143
124,160,191,72,40,74,138,108
120,149,213,65,37,73,130,90
123,137,219,58,35,76,135,90
123,142,231,58,34,74,144,102
105,137,196,60,36,58,124,87
79,110,217,56,37,49,119,79
81,107,193,60,37,52,141,85
78,123,191,62,37,49,137,107
77,121,170,55,40,59,135,101
81,132,189,61,42,61,134,100
97,160,175,59,39,60,123,95
102,162,166,57,39,55,127,101
108,156,180,60,39,53,132,81
113,149,183,62,35,40,127,85
149,194,157,58,32,35,146,90
138,172,139,56,32,47,149,93
133,174,147,56,34,56,126,108
132,170,126,49,33,62,117,107
128,171,173,62,36,63,115,100
82,135,180,62,38,64,122,100
93,139,203,68,44,60,122,108
101,134,196,69,43,48,126,87
96,133,197,71,44,43,127,114
96,149,157,59,43,47,130,111
107,143,152,65,45,50,131,138
100,169,177,67,40,44,132,136
94,173,191,64,40,47,127,135
85,176,192,67,42,47,126,111
97,192,233,78,42,41,127,113
87,176,244,81,35,36,95,73
91,162,203,76,34,38,109,76
94,164,188,77,35,38,120,89
130,179,204,76,36,36,140,97
125,162,156,68,38,38,145,98
125,166,133,54,39,39,144,96
121,161,172,60,41,37,130,86
133,166,172,61,41,42,154,93
102,146,152,59,39,43,144,96
98,129,159,62,37,41,134,96
98,127,158,63,36,40,133,96
113,155,119,60,33,37,167,120
98,154,129,64,37,33,156,117
94,151,129,66,34,34,157,110
94,169,134,63,33,34,157,109
92,180,136,66,34,33,178,130
87,174,144,60,33,35,149,115
86,163,147,57,30,32,136,113
95,173,140,54,32,30,148,135
95,156,120,52,33,35,152,145
92,142,152,57,33,34,143,142
72,100,145,74,38,35,159,141
81,123,153,83,40,44,161,137
81,130,173,92,40,46,144,128
86,137,188,95,43,45,159,121
100,145,165,90,42,48,150,102
103,154,161,86,41,53,148,111
95,140,161,87,39,46,148,120
90,124,182,82,37,42,150,106
91,123,164,80,36,43,137,107
102,146,196,82,37,41,134,123
111,139,199,77,34,33,128,118
113,135,180,66,33,32,127,115
117,153,141,60,37,36,126,116
119,147,153,61,36,36,136,126
115,131,113,64,38,36,153,129
110,127,113,65,40,36,146,133
106,127,134,65,39,37,140,127
99,101,131,65,35,36,155,169
111,130,130,67,35,32,153,164
92,117,135,64,33,36,136,155
92,117,133,70,37,39,135,154
97,116,119,73,36,38,131,149
99,124,129,77,36,38,126,105
90,126,114,87,37,41,137,122
104,140,114,94,44,40,138,121
102,165,129,89,40,38,139,112
110,184,132,96,41,38,141,112
106,183,127,95,40,40,139,115
94,161,128,80,38,41,130,101
81,152,131,71,31,39,122,102
88,134,117,71,30,37,125,102
73,110,161,66,35,39,144,124
76,105,159,67,36,36,137,124
81,120,162,73,39,35,139,128
88,119,157,76,37,34,141,125
76,109,192,77,37,35,146,124
87,120,161,73,33,35,140,143
86,121,161,71,32,34,134,138
83,111,166,66,29,31,119,129
77,105,163,61,28,30,120,134
88,102,123,56,29,30,119,141
74,85,122,51,28,28,110,113
80,92,127,51,28,47,109,118
86,92,129,56,26,50,128,125
89,100,132,69,30,52,135,122
80,105,142,71,29,52,129,128
81,109,143,69,32,53,127,117
77,102,136,65,32,38,128,119
65,96,132,64,32,32,117,118
74,101,133,61,38,38,141,159
73,107,117,63,38,36,133,151
73,100,117,69,38,37,124,151
71,98,133,74,40,44,133,147
80,103,125,76,49,73,182,192
69,93,124,70,46,76,166,162
62,84,144,69,45,80,168,161
74,90,130,67,45,80,170,159
75,100,138,70,43,77,175,161
70,95,145,68,32,54,118,133
70,88,138,65,27,46,119,133
73,88,135,66,27,39,146,142
67,90,135,64,27,38,147,145
64,84,129,62,28,35,136,150
62,83,118,58,28,36,141,120
74,104,150,65,35,34,136,115
74,102,136,62,34,38,111,109
76,105,140,71,38,39,123,114
75,98,126,68,38,41,126,105
78,103,173,79,42,40,133,113
60,79,158,79,40,40,129,118
62,89,158,79,42,36,122,111
55,90,190,80,45,42,194,160
64,109,197,79,45,39,195,162
56,106,164,68,41,36,196,163
62,106,154,66,47,38,214,179
67,111,157,69,44,39,219,180
72,113,140,65,42,37,154,148
83,113,127,64,42,37,145,143
87,139,129,65,48,46,177,166
97,148,123,59,40,44,155,143
91,140,121,57,42,44,162,149
88,130,127,48,39,39,162,138
83,122,134,51,40,45,183,168
79,95,143,49,33,37,141,145
67,87,146,53,33,36,142,144
74,96,143,57,33,36,141,146
76,108,131,61,35,36,137,148
64,114,150,66,33,26,110,111
68,111,171,74,35,27,111,96
71,113,175,74,36,25,113,120
65,104,173,72,34,26,95,109
63,109,179,75,37,32,99,112
63,96,155,68,36,32,95,112
64,98,116,61,44,40,118,109
58,93,128,64,47,42,123,95
56,105,176,69,50,50,130,110
51,90,159,67,46,46,126,99
53,90,165,69,49,50,193,113
59,89,173,70,42,45,175,120
62,93,167,69,39,44,169,111
68,80,125,61,36,34,165,105
70,76,117,56,39,35,174,112
73,78,111,55,36,30,100,111
65,77,100,50,32,28,101,110
69,73,98,48,31,30,133,110
66,69,92,51,28,33,145,117
64,67,100,51,23,30,133,107
62,72,137,65,24,31,138,109
60,64,156,67,26,34,141,116
56,63,153,66,25,34,123,126
63,73,159,73,29,32,103,111
64,78,179,74,31,32,106,122
61,82,156,61,30,31,102,117
70,95,153,65,31,31,111,120
68,103,149,66,33,32,131,140
67,100,143,65,31,31,137,139
64,97,122,65,30,37,147,138
68,94,127,65,35,39,145,130
64,83,122,60,35,39,151,133
64,71,124,61,37,38,134,108
60,70,119,57,39,37,137,123
61,78,124,61,41,38,136,131
57,74,130,62,37,37,142,136
52,86,115,63,38,38,125,120
56,101,137,65,38,43,131,162
60,106,153,57,37,50,140,168
63,105,157,62,38,49,128,156
64,110,148,65,37,47,121,153
64,102,156,67,36,44,121,167
56,89,161,71,37,44,123,126
49,93,206,89,43,47,112,125
55,86,200,83,41,43,113,143
51,88,198,81,42,45,112,142
51,86,194,79,43,45,129,128
54,83,172,75,44,44,141,144
49,78,122,57,40,35,135,128
41,81,146,66,43,36,135,119
48,71,178,74,47,37,152,127
48,72,186,72,45,38,143,133
50,72,189,77,38,34,115,115
49,62,177,79,40,34,118,126
48,65,175,78,39,37,120,120
48,63,195,84,37,34,98,115
67,72,184,89,41,33,91,105
65,75,186,83,43,35,102,117
68,80,195,82,40,35,97,100
71,75,184,80,37,35,96,96
68,78,154,67,39,39,111,99
53,73,197,71,40,40,128,100
52,72,200,73,41,39,127,88
52,75,217,74,41,38,131,92
52,79,213,70,41,35,133,92
51,76,206,76,37,33,121,86
49,76,168,68,32,32,106,92
57,74,173,77,34,32,96,93
52,69,158,96,36,33,108,95
54,67,156,97,38,34,111,108
56,78,154,95,40,32,125,117
54,83,185,114,45,37,179,131
47,82,172,112,44,37,181,140
51,88,192,97,46,41,178,147
46,87,193,102,47,43,182,150
44,79,194,103,45,50,197,165
57,74,190,93,52,51,169,183
68,76,210,115,57,61,203,242
78,68,185,117,59,63,222,266
84,67,183,117,56,63,245,280
91,78,194,121,60,61,247,314
96,90,289,147,56,61,254,363
94,97,289,131,56,74,328,383
86,101,290,137,54,76,328,409
99,109,324,150,60,77,376,440
115,101,331,161,63,80,372,428
145,93,262,147,66,87,413,411
158,85,261,152,66,71,383,405
162,84,255,144,68,69,389,383
155,83,224,136,70,68,366,368
150,88,235,138,67,69,392,380
120,93,224,129,65,63,380,376
114,112,220,121,66,68,374,377
123,147,233,137,79,77,416,397
129,150,219,134,81,92,391,379
131,149,175,116,78,92,377,382
128,153,278,118,85,101,391,434
126,145,281,117,84,109,386,452
120,126,330,116,79,125,360,473
113,125,345,123,73,118,354,476
115,133,367,123,75,120,343,467
113,127,343,131,68,113,287,394
130,121,352,134,65,101,275,365
129,103,308,119,57,81,278,311
131,91,297,111,59,76,286,297
118,71,276,111,57,70,282,273
122,65,214,95,53,73,289,293
97,62,184,86,51,70,263,231
89,60,171,92,48,60,215,200
90,62,166,90,47,61,232,220
97,67,164,83,49,58,230,211
95,70,170,87,47,46,205,165
98,73,172,95,49,50,198,175
99,72,171,94,46,42,184,172
102,72,175,89,45,41,134,142
110,71,193,99,48,50,142,193
104,64,173,92,46,50,136,190
101,60,170,89,45,48,144,189
97,55,167,84,50,53,149,191
95,51,157,80,46,50,143,179
75,48,165,80,40,42,123,125
77,47,184,93,42,45,132,126
83,49,189,99,44,53,128,117
90,61,201,109,41,50,117,104
81,68,202,112,43,55,126,111
90,68,169,103,55,71,134,115
96,77,143,95,55,70,130,126
112,76,176,96,52,64,133,132
124,70,196,87,56,65,137,146
135,72,230,105,56,69,144,159
130,78,252,108,45,54,133,163
129,72,256,113,47,54,149,161
110,80,229,104,49,57,141,167
94,81,195,101,40,54,137,163
80,72,147,81,40,44,140,162
85,75,214,87,42,48,137,169
86,76,224,77,40,50,114,168
90,68,224,81,38,48,112,152
94,70,249,95,39,54,112,160
105,85,259,94,37,55,92,151
105,83,192,93,36,52,90,132
102,89,206,107,34,48,95,149
103,89,230,112,38,47,115,148
100,89,225,102,37,42,119,155
97,84,213,105,38,43,130,155
103,90,203,102,38,41,140,154
117,92,182,87,41,42,146,134
130,93,151,77,38,44,135,150
129,92,123,81,38,43,139,131
134,87,138,83,36,40,124,132
135,74,142,82,37,41,116,129
124,91,127,88,40,44,111,141
101,94,198,101,44,44,110,123
106,108,214,99,45,50,106,122
94,110,237,96,46,51,120,136
84,112,236,101,46,50,122,142
85,93,235,106,46,46,125,144
87,93,200,105,42,43,129,152
88,93,184,104,43,37,121,151
88,104,145,114,46,41,128,146
88,107,153,112,45,41,125,136
105,105,165,105,40,39,124,141
107,100,142,95,42,46,140,153
111,85,138,94,44,45,146,157
111,81,133,82,40,41,132,140
105,86,117,74,37,40,130,144
100,90,114,70,36,41,155,163
103,92,124,70,36,37,131,149
101,93,127,66,29,33,151,188
98,87,160,68,32,34,151,191
107,88,161,74,38,36,158,192
97,84,161,82,45,39,131,174
90,85,145,77,43,36,143,174
82,84,147,79,44,35,122,131
103,81,111,77,45,36,126,131
104,78,109,73,41,33,128,144
102,78,126,70,33,31,127,130
107,75,134,73,35,31,122,123
114,93,135,70,35,35,125,127
97,92,134,68,30,33,132,136
101,97,134,66,34,39,140,134
101,96,102,56,34,41,146,150
105,118,91,59,35,43,146,153
104,105,87,68,36,43,145,141
112,107,101,68,38,44,137,138
110,98,96,64,35,37,126,123
117,97,100,69,36,33,111,109
119,78,93,62,34,32,160,134
122,88,103,57,39,41,158,152
112,97,89,54,38,40,154,139
105,104,108,60,42,42,179,166
93,113,106,54,41,42,179,157
80,113,109,61,41,42,133,132
94,112,129,68,43,39,153,161
99,121,137,70,43,38,152,164
96,126,126,66,43,37,113,138
95,127,130,70,43,36,129,152
101,121,142,68,49,43,153,176
87,123,108,53,41,36,129,139
85,105,102,50,41,37,126,139
93,96,101,50,39,35,149,151
100,91,92,51,38,36,146,152
94,97,72,48,29,27,119,124
92,92,82,49,30,26,117,120
90,93,78,51,30,26,129,134
87,87,77,55,32,29,117,120
83,85,80,55,32,27,106,100
86,91,78,53,32,32,107,98
76,87,71,62,35,35,120,96
77,85,69,63,35,35,139,115
76,91,71,61,32,34,125,111
86,90,68,58,32,34,186,146
97,86,86,67,38,35,204,166
112,98,80,61,34,34,200,170
117,101,85,58,36,36,188,173
115,99,86,56,37,37,189,175
120,111,88,64,38,42,146,169
109,106,74,59,32,40,120,164
100,103,81,58,36,42,129,178
91,101,77,62,33,38,133,146
104,100,98,70,31,38,140,148
100,98,95,62,32,34,133,147
99,100,99,62,30,32,134,131
103,90,94,81,29,27,137,115
103,90,92,82,31,29,126,116
99,109,71,81,35,30,133,139
86,103,84,83,34,28,129,123
86,100,77,84,34,29,125,122
78,108,95,67,32,30,122,119
86,105,98,63,31,31,141,129
79,94,104,60,27,32,138,117
85,86,96,64,28,31,135,115
85,95,92,59,26,30,145,118
93,102,81,64,27,30,140,120
87,101,79,64,26,31,126,126
89,92,84,85,27,29,132,147
88,96,83,80,26,30,130,140
87,86,91,85,33,43,143,154
98,86,89,81,32,44,135,149
100,87,90,82,31,44,125,132
110,86,79,64,32,44,128,135
114,82,83,63,32,43,132,140
122,83,81,59,27,36,117,126
108,66,78,63,29,34,123,126
105,68,77,62,32,33,125,132
87,79,69,55,30,31,97,84
80,80,81,58,34,32,112,98
85,85,81,67,39,32,115,105
78,94,83,65,39,30,109,107
76,99,84,72,38,30,107,100
88,97,86,75,39,32,129,109
88,94,70,75,37,32,122,105
80,95,68,62,31,29,109,92
81,87,67,62,29,29,104,90
100,81,67,58,29,35,108,117
96,83,65,58,27,34,122,114
99,97,71,64,27,36,119,112
99,92,73,70,27,35,123,115
100,96,74,72,32,39,150,140
85,96,72,68,31,35,160,132
95,94,107,82,37,37,145,141
92,89,103,75,36,34,143,141
90,95,100,80,37,35,152,157
88,86,98,85,34,31,134,137
96,85,99,88,37,33,125,145
80,83,67,81,33,33,134,145
86,79,76,85,36,36,137,143
91,72,89,81,36,36,130,121
93,71,91,77,36,36,146,129
96,78,94,80,37,38,147,119
96,73,88,83,38,37,137,115
88,69,82,85,39,36,135,114
78,69,90,86,41,34,126,112
73,66,87,82,40,33,96,103
56,53,92,80,40,30,132,103
54,45,100,85,43,31,128,95
71,50,146,78,38,28,123,95
75,51,179,80,41,35,129,96
81,59,187,87,43,35,149,101
90,58,189,85,42,35,146,124
94,63,189,74,39,33,142,137
87,62,163,80,41,33,155,140
83,70,121,80,35,27,156,146
91,66,114,78,32,28,139,160
84,70,107,78,28,25,104,140
86,72,108,74,30,27,159,143
89,75,109,75,30,30,150,140
101,69,95,68,31,31,155,161
91,74,102,66,30,30,164,147
93,72,104,66,32,33,178,150
101,76,103,67,35,32,135,136
99,72,92,55,33,29,133,141
86,69,117,63,34,32,124,113
94,64,113,61,35,33,125,125
105,73,117,60,36,31,112,129
92,70,126,73,30,32,122,135
98,78,136,79,36,41,143,156
111,90,124,74,37,40,148,167
106,94,137,82,36,41,138,161
101,101,141,79,36,42,136,172
116,109,130,73,38,43,142,204
134,108,134,75,33,44,130,189
136,99,134,75,34,46,176,221
159,113,124,73,39,46,227,268
158,104,119,84,43,48,231,271
153,94,124,90,45,51,228,244
141,89,113,98,48,42,234,245
134,98,111,99,46,40,203,234
119,88,109,98,44,37,151,186
114,87,109,88,40,35,164,184
127,106,110,79,40,29,164,192
124,106,100,69,36,29,153,187
121,109,134,67,37,29,152,160
117,108,135,62,38,34,164,174
120,115,141,68,35,34,150,161
101,96,140,67,35,36,176,175
112,94,175,65,36,38,176,174
118,79,159,73,35,37,182,168
112,81,160,70,36,35,170,154
108,73,155,73,38,38,179,175
112,76,149,72,35,37,151,153
91,84,130,69,39,38,149,180
93,83,128,67,41,39,152,192
106,89,135,76,41,39,168,187
106,84,137,69,39,37,155,160
97,83,138,71,40,35,146,166
94,73,122,68,34,32,137,131
89,83,120,62,31,29,120,110
64,72,101,53,25,25,83,88
84,79,100,55,28,24,105,113
96,80,107,59,28,24,112,110
103,90,137,65,28,27,114,112
101,83,128,65,29,29,117,118
104,81,131,66,39,39,163,137
89,77,126,63,38,41,164,183
79,82,123,60,39,43,174,187
82,95,90,54,42,42,180,195
80,94,118,55,41,42,177,206
74,94,120,52,31,37,159,199
77,101,148,66,37,36,141,141
101,98,172,65,39,32,119,136
99,89,171,65,37,33,133,135
99,89,163,62,39,33,138,115
111,89,167,63,40,33,114,109
115,79,146,52,34,30,114,107
101,102,120,55,32,32,156,113
97,89,121,52,31,31,152,112
98,86,134,75,34,33,186,138
85,86,130,76,35,32,188,139
78,86,138,75,34,33,192,145
72,60,132,72,33,34,161,130
69,64,128,73,33,34,152,120
73,64,98,52,32,35,128,129
91,87,132,69,43,35,133,132
86,92,121,69,44,36,132,133
92,92,117,77,46,38,162,152
97,99,136,83,49,39,169,156
107,105,138,83,47,35,150,127
111,84,105,69,39,39,169,171
114,81,117,75,43,38,167,172
112,74,115,67,41,35,151,159
117,78,96,72,42,34,143,178
109,76,113,80,47,40,153,212
89,74,112,78,45,35,122,179
89,83,100,73,39,37,122,170
81,85,104,72,38,36,109,166
82,79,108,79,42,45,128,166
74,74,91,70,37,44,126,119
89,85,113,73,37,45,129,114
102,81,118,77,38,44,126,116
108,83,126,77,41,45,132,133
108,78,136,66,35,41,110,110
114,80,143,67,34,37,99,105
114,72,144,66,36,38,104,123
99,65,145,65,36,37,108,124
103,87,139,67,36,35,104,118
93,94,127,63,34,30,98,111
87,94,116,61,36,31,114,117
76,93,91,59,33,31,104,97
85,94,81,55,31,30,126,134
81,83,86,56,32,33,129,134
85,81,128,58,33,33,136,147
93,91,141,61,30,31,126,145
98,94,151,69,30,29,127,147
97,95,169,72,32,33,110,114
90,88,168,78,26,33,101,111
96,87,141,74,27,33,109,118
87,78,129,76,29,34,136,132
82,79,117,69,31,35,137,142
100,88,96,63,31,32,133,142
111,91,94,51,37,34,157,151
105,97,93,51,37,35,152,131
117,101,104,48,35,35,126,118
122,111,105,50,33,36,130,110
107,102,107,53,34,37,147,123
96,104,103,64,29,35,118,99
98,102,105,65,31,34,108,98
93,100,115,71,32,34,154,116
109,96,122,71,35,33,160,142
105,97,116,74,33,32,146,130
105,93,118,72,37,30,158,140
104,96,109,71,34,28,164,144
113,93,86,65,34,29,123,129
91,91,84,64,32,29,107,95
98,91,78,62,31,30,105,104
99,92,102,58,32,31,101,129
103,81,106,59,30,32,91,136
90,84,108,59,31,30,97,135
87,81,112,56,32,28,105,143
82,90,124,60,34,30,118,160
82,85,100,57,28,31,140,145
75,81,114,58,31,32,145,140
78,84,117,57,35,41,149,145
89,95,120,66,34,42,155,140
98,96,130,63,34,41,147,114
98,95,140,67,35,39,116,108
103,97,128,72,35,40,128,124
109,105,139,78,31,33,135,126
106,96,135,79,29,35,132,124
106,97,122,85,30,36,152,137
110,107,118,84,33,38,166,130
104,108,130,83,34,36,162,133
93,95,125,79,35,39,148,128
94,92,118,70,36,38,151,149
84,88,127,64,32,37,128,147
82,95,131,70,32,34,118,151
85,94,126,66,31,35,106,140
91,97,114,64,29,33,104,137
88,100,120,72,31,32,107,134
85,95,106,69,34,32,109,132
85,85,105,61,31,35,144,158
86,86,141,69,36,39,153,166
86,98,149,74,47,44,189,220
87,97,161,72,48,42,182,214
93,95,166,73,49,42,179,220
101,99,163,78,52,43,172,219
107,98,135,78,49,38,181,214
102,86,129,76,38,34,151,166
106,92,124,76,36,42,167,174
111,97,112,74,36,46,178,168
115,86,103,69,35,45,151,143
104,87,144,61,34,44,137,145
118,104,146,60,35,45,130,144
117,95,148,62,34,40,126,131
114,91,155,72,36,37,128,176
112,94,164,78,38,39,133,182
117,101,130,78,39,40,131,192
108,83,126,80,38,37,136,193
108,84,108,79,38,35,122,195
119,91,107,73,35,34,132,171
111,92,130,74,34,35,151,190
116,86,152,72,32,34,157,184
120,94,155,71,33,37,171,190
113,92,156,67,33,35,172,189
108,91,155,64,33,35,167,181
106,88,124,54,30,29,149,155
109,113,101,58,36,32,137,151
101,112,99,73,37,29,129,144
105,112,99,75,39,29,139,161
107,106,102,78,40,30,134,163
104,107,107,82,40,30,134,160
95,87,99,80,35,29,139,156
93,97,113,62,34,29,133,155
86,96,112,64,33,31,123,131
68,96,110,71,32,30,123,117
75,104,114,69,35,32,129,118
77,102,126,69,36,31,130,133
77,80,115,77,37,35,128,143
83,84,122,88,36,34,147,144
82,85,118,83,36,33,138,134
72,79,112,82,33,32,138,142
74,79,112,85,37,37,155,143
76,86,117,80,37,37,167,157
84,100,107,62,38,35,157,170
87,97,103,61,39,39,173,175
91,90,101,62,41,40,168,173
97,84,81,55,35,39,147,172
96,83,66,70,41,43,144,146
97,59,70,74,41,44,143,130
100,77,92,74,38,41,122,138
101,89,106,73,38,41,127,140
92,92,125,82,42,39,133,145
96,89,145,79,35,32,120,151
89,89,143,77,35,32,104,151
102,79,147,76,35,33,102,154
101,78,140,89,38,37,100,155
105,87,146,88,38,37,100,148
101,88,126,77,40,37,97,149
109,96,156,80,39,40,99,151
93,97,148,84,43,49,121,143
94,96,161,72,41,44,125,146
87,84,147,67,38,44,129,134
88,89,169,71,36,46,139,131
80,78,155,71,39,48,161,146
81,77,173,73,38,42,148,144
75,74,179,81,37,41,139,135
79,77,173,78,36,41,126,123
71,68,154,77,36,39,118,112
66,74,142,73,35,40,115,101
60,70,180,76,33,37,113,102
78,77,214,76,36,45,133,95
93,81,223,77,37,46,160,117
99,85,231,85,40,43,160,128
103,83,237,85,38,39,147,123
112,83,191,73,36,40,146,113
108,74,135,63,34,33,151,119
97,76,135,68,39,34,136,117
104,83,128,66,40,38,142,120
102,81,118,66,40,40,142,116
97,84,125,68,40,40,142,132
90,84,122,69,43,40,122,144
87,83,110,66,43,43,138,145
75,73,105,56,39,39,129,137
82,75,102,54,40,37,133,147
77,74,102,56,39,34,130,132
95,74,100,61,38,37,145,155
102,64,92,56,35,33,122,158
102,70,114,76,36,34,118,165
106,73,110,76,35,33,142,195
124,72,117,82,40,36,152,196
110,71,128,76,35,35,141,171
106,74,138,80,39,40,148,173
105,70,117,60,37,40,146,164
116,87,135,61,41,45,136,115
98,82,126,51,41,46,130,124
111,82,120,53,43,50,150,141
110,78,113,51,42,46,142,119
115,84,127,56,45,47,170,145
94,74,114,52,40,43,153,145
94,80,109,51,37,46,160,146
80,84,142,54,34,40,138,129
98,94,145,51,32,44,148,143
97,90,132,49,29,46,157,142
98,78,147,55,30,47,165,142
102,75,152,56,29,42,153,135
108,77,125,46,31,40,164,146
92,75,134,51,35,35,165,150
91,78,138,52,35,29,130,127
99,86,130,54,34,27,135,136
99,87,128,56,34,28,139,140
91,81,119,60,32,31,125,131
89,79,106,58,28,32,129,118
103,74,103,55,29,37,137,135
96,85,106,59,29,36,131,146
93,81,129,64,30,39,132,143
103,87,125,64,32,45,151,146
105,88,134,67,34,43,140,157
91,93,139,68,31,39,131,139
93,72,137,62,37,42,139,125
87,72,113,59,36,39,136,122
87,70,111,56,41,41,121,130
83,68,97,50,38,41,110,109
91,68,104,50,42,46,171,124
82,70,82,49,37,44,165,119
84,86,95,47,40,46,177,135
72,82,131,57,36,39,184,121
77,83,134,61,37,39,202,141
60,84,122,60,36,34,156,134
71,82,128,63,39,37,177,145
70,69,120,59,37,37,166,129
76,66,78,48,34,34,159,128
77,61,73,47,36,33,137,113
75,76,76,57,34,36,156,135
70,85,85,57,35,33,139,157
74,87,91,57,34,33,137,158
76,92,93,58,32,33,137,155
75,96,112,60,31,33,150,156
80,85,114,53,30,31,137,148
100,86,107,54,25,29,119,109
101,84,106,63,27,28,125,115
95,79,124,66,27,29,113,120
100,78,107,62,26,29,127,132
99,75,102,58,25,30,112,114
78,68,101,51,26,30,120,118
73,67,108,43,24,30,111,119
75,70,89,39,28,32,127,119
69,63,95,47,30,32,106,135
70,60,102,58,35,31,112,141
67,61,97,62,35,34,113,150
80,64,92,65,36,36,123,161
79,70,88,66,33,35,112,160
77,73,81,63,35,35,111,147
77,70,73,54,31,35,107,143
91,74,89,55,32,35,117,132
81,69,80,49,32,32,114,114
83,63,86,51,31,31,121,112
83,62,85,50,28,30,113,90
83,65,85,49,32,38,142,122
63,59,80,52,33,42,129,117
70,56,88,49,34,42,129,116
72,59,81,61,35,42,123,116
69,55,91,63,35,44,132,129
72,53,92,63,35,36,104,103
78,56,85,58,30,28,112,109
79,58,80,60,29,29,115,131
81,57,91,46,26,29,108,131
85,66,97,45,30,28,106,136
79,69,102,44,25,27,115,135
83,65,99,43,28,32,119,133
79,69,105,42,28,32,114,118
77,65,94,42,30,31,120,118
71,61,85,43,27,29,120,101
84,60,79,40,30,33,112,97
81,61,85,42,28,29,102,101
80,56,78,39,28,31,96,98
79,52,86,40,27,35,111,102
80,44,90,43,27,35,118,96
66,43,91,47,26,33,117,118
71,40,85,49,25,34,119,114
77,43,90,54,25,32,128,116
73,44,89,65,27,30,129,125
76,48,79,62,29,32,115,126
77,50,85,61,28,32,115,113
84,51,86,62,30,31,141,155
79,57,82,67,32,33,138,153
81,61,83,64,33,32,123,147
89,62,87,73,31,30,130,162
89,57,80,73,35,31,132,163
77,57,83,73,32,34,101,128
79,50,88,71,32,33,101,126
81,44,77,61,28,33,111,117
72,45,88,52,28,33,109,116
73,46,90,52,27,34,118,119
81,45,86,51,28,33,116,118
78,50,74,44,26,35,149,123
73,58,79,45,32,36,143,139
72,59,76,51,32,36,146,121
90,64,83,56,34,38,160,122
86,65,83,53,33,36,158,114
101,62,86,58,34,39,133,112
105,55,84,60,32,40,131,91
120,53,85,54,38,47,156,108
106,46,77,50,35,43,132,88
105,43,87,51,37,42,133,89
92,51,89,45,36,43,132,90
90,57,88,46,35,40,141,100
66,54,70,42,26,29,107,79
67,56,67,41,28,32,106,80
64,58,73,43,27,34,120,109
68,48,76,44,27,29,120,110
71,59,123,44,31,31,123,107
77,60,127,47,34,34,148,121
89,59,133,48,32,32,147,128
92,59,134,49,35,37,140,108
85,61,132,50,34,37,136,114
90,44,97,55,30,36,133,110
89,50,106,56,30,35,98,105
84,51,134,61,31,35,93,98
83,49,141,58,27,29,87,97
83,52,155,60,28,30,97,80
75,55,158,54,30,30,106,115
66,48,154,54,30,30,109,109
88,47,125,48,31,28,113,121
90,51,121,48,30,29,130,156
95,47,105,43,30,31,138,161
95,46,97,40,28,30,124,137
107,45,94,47,28,32,125,139
88,46,97,52,28,33,149,163
82,40,90,52,29,35,155,152
79,41,121,59,27,34,153,158
82,36,129,64,28,33,156,163
73,39,134,60,25,30,157,171
68,41,150,57,23,33,137,143
70,45,150,58,25,32,137,125
71,48,121,53,26,32,142,130
65,50,113,51,28,35,143,124
61,46,103,45,27,36,142,120
63,46,75,46,31,34,146,116
60,43,58,43,30,31,129,107
78,50,77,41,28,31,109,97
79,48,75,39,27,25,97,91
91,56,102,45,30,27,113,106
90,56,107,43,26,26,105,105
97,58,106,44,26,29,101,114
80,51,100,51,29,32,103,107
93,60,101,51,28,32,120,110
83,62,101,52,30,37,120,96
83,60,96,54,29,36,116,91
78,63,107,58,34,38,121,87
80,62,100,55,31,34,120,81
70,58,111,61,36,44,123,96
72,52,86,62,33,38,114,90
84,51,84,60,35,39,118,91
81,49,76,63,30,37,117,87
84,48,75,58,32,39,118,86
78,43,60,52,29,34,124,75
88,44,59,45,31,35,136,112
78,45,73,52,32,35,138,123
81,39,89,45,33,37,134,124
77,40,95,48,32,36,146,128
80,48,111,56,35,36,151,135
75,51,113,58,35,39,136,103
77,51,108,51,31,37,137,99
89,56,100,52,30,36,157,104
95,56,103,60,34,36,145,113
99,51,89,57,31,31,120,106
94,48,89,55,31,31,115,103
99,48,85,57,33,32,114,92
90,45,88,60,32,32,97,89
97,52,84,60,31,34,105,85
93,54,78,55,28,34,112,89
94,56,77,57,28,32,122,106
99,53,78,57,27,30,116,108
95,54,65,54,29,31,108,104
84,51,61,47,29,30,93,94
87,49,66,48,29,30,88,85
92,45,68,51,29,28,74,70
89,50,82,51,32,28,115,91
86,58,78,48,30,28,114,93
86,55,82,48,29,27,119,112
87,57,83,47,29,28,127,111
79,57,79,40,32,29,148,128
71,56,64,41,29,28,121,113
73,50,67,45,31,27,120,113
76,48,64,47,30,28,117,97
70,47,62,49,29,28,115,99
84,50,64,49,28,26,87,75
88,50,69,50,28,34,88,80
87,45,74,50,27,38,86,77
95,50,72,46,27,37,83,71
94,47,73,55,30,35,71,67
89,45,73,56,29,34,72,60
88,49,67,55,30,32,99,95
92,49,64,54,30,28,122,130
81,50,59,53,29,28,124,136
89,52,70,49,25,28,121,137
85,52,67,49,24,27,125,136
77,46,67,48,24,27,98,109
82,46,68,45,22,25,75,69
81,46,91,53,25,25,79,65
79,42,84,50,25,25,90,70
70,49,88,47,26,25,104,90
77,59,90,47,26,26,113,101
67,59,86,47,27,27,135,108
85,60,62,40,26,28,131,108
78,60,63,36,27,28,129,107
85,61,71,37,26,28,124,100
86,54,73,41,28,25,138,96
86,54,76,45,29,25,117,86
70,51,99,47,27,23,116,81
79,57,96,46,28,23,113,76
76,51,89,46,28,23,102,62
80,57,90,48,26,30,87,72
85,60,96,46,25,31,85,68
92,58,83,44,25,32,84,71
89,55,82,43,23,32,82,68
88,55,92,44,22,31,74,73
81,45,91,37,24,30,73,63
83,58,89,46,25,30,94,70
69,57,85,52,27,32,104,76
73,59,86,57,27,33,115,82
68,59,73,57,31,33,117,83
70,60,73,59,29,29,106,77
71,47,73,56,28,29,93,73
84,48,63,50,26,28,97,74
81,46,61,45,27,30,98,91
82,45,74,50,25,29,101,91
80,46,75,67,26,27,100,96
80,49,68,67,24,25,96,96
72,48,73,69,24,26,113,99
67,45,71,69,23,24,107,99
70,46,57,64,22,25,107,96
70,51,53,48,19,26,108,90
68,50,73,46,22,29,111,95
67,53,69,44,23,30,85,91
68,56,80,51,24,29,84,76
65,56,82,56,25,29,86,76
76,52,81,53,25,31,98,83
73,48,66,50,24,28,117,80
79,47,75,52,25,27,114,84
100,44,65,45,27,28,112,92
108,47,68,42,30,28,116,99
106,45,68,45,30,26,109,97
105,45,67,43,32,26,79,97
102,48,57,39,30,25,104,96
86,48,63,42,34,29,109,92
85,44,56,38,32,25,103,89
79,45,55,35,33,34,118,100
79,48,58,48,31,34,120,96
85,48,65,56,34,34,103,92
76,49,64,54,29,32,94,79
69,48,68,56,31,35,105,87
67,53,68,61,30,29,85,69
74,53,68,59,30,30,101,105
70,54,65,52,29,32,98,103
71,52,68,51,29,30,100,107
72,51,70,51,26,27,84,97
75,47,70,46,27,27,105,106
80,47,71,37,25,29,107,71
73,42,66,37,26,27,110,105
79,43,53,39,26,28,117,105
82,43,51,39,29,30,146,119
98,41,61,43,28,31,135,111
92,37,59,43,30,30,123,119
93,42,62,42,29,31,123,97
93,45,66,43,31,32,158,108
96,48,69,42,28,29,134,92
82,51,62,37,29,28,133,94
88,56,58,38,30,26,140,101
87,58,68,42,29,25,150,106
86,55,65,41,28,24,117,93
78,55,63,48,28,26,116,93
75,55,71,52,24,27,113,95
74,50,73,51,24,27,105,75
90,54,68,48,24,27,81,55
89,59,75,46,23,25,68,52
87,59,77,39,26,25,64,53
85,60,77,34,29,23,83,49
83,62,75,41,28,27,107,71
83,54,73,42,31,27,113,89
86,50,68,42,30,29,111,95
87,49,73,50,30,29,111,94
97,46,83,68,28,29,107,98
94,40,92,69,31,27,90,113
90,43,91,72,29,26,82,98
82,41,94,71,29,25,80,94
80,42,97,68,27,25,87,96
71,45,91,56,30,26,94,96
70,55,85,54,25,26,100,74
57,59,82,49,25,29,118,92
60,59,78,50,25,28,117,91
66,59,89,48,27,28,118,92
70,60,80,40,23,28,107,86
65,54,77,36,23,28,102,72
75,45,79,37,21,25,86,57
81,49,79,35,21,25,108,76
80,49,55,33,20,26,103,74
83,45,57,35,26,29,120,82
87,46,81,46,28,27,117,83
90,52,81,47,30,26,124,92
90,50,85,47,30,27,122,92
97,46,84,48,30,27,126,96
88,46,88,48,26,24,106,92
89,47,68,40,25,25,100,94
80,51,66,43,25,27,97,80
90,50,66,43,26,29,90,76
84,49,64,42,24,27,86,71
98,51,85,43,25,25,94,75
93,53,88,42,27,26,100,71
93,44,89,41,27,26,91,70
82,45,88,42,28,24,81,55
80,46,87,45,29,25,78,54
79,49,63,43,30,28,75,41
80,46,58,41,27,28,98,55
76,50,63,47,25,25,98,55
82,55,68,52,23,28,100,61
82,57,72,50,25,29,107,71
73,52,67,52,26,27,109,85
86,51,69,52,25,26,85,80
96,49,69,49,26,27,88,87
91,44,63,48,26,26,85,83
88,47,62,48,26,26,80,75
86,48,72,47,25,26,74,61
74,47,81,46,24,26,75,61
63,46,78,48,23,24,75,53
75,47,76,45,23,23,68,56
78,44,81,47,21,24,75,55
84,50,73,47,25,24,79,57
111,53,61,51,25,24,97,82
112,54,60,44,27,25,97,82
100,52,62,42,27,25,102,80
105,53,55,43,27,26,118,83
97,52,60,40,26,25,115,81
99,53,60,38,26,26,95,51
97,53,64,42,25,26,107,63
97,53,65,41,26,30,115,65
93,50,63,37,26,27,97,74
97,41,64,42,24,30,95,77
67,44,68,38,24,30,97,77
67,47,76,38,24,30,103,74
68,49,72,46,24,28,91,73
79,55,78,46,24,27,115,74
95,54,73,42,24,28,113,85
90,47,78,48,25,30,114,92
103,48,101,51,26,29,117,109
103,45,104,45,24,28,117,109
109,43,104,47,24,31,102,105
91,45,104,49,26,31,105,93
103,49,100,50,27,30,105,88
89,45,68,45,29,35,123,90
97,46,68,48,29,36,132,90
82,43,63,46,28,33,122,86
81,41,66,47,26,40,123,89
73,44,66,44,28,47,134,97
80,41,60,49,27,45,120,88
73,41,55,47,29,43,109,95
77,47,57,48,30,45,147,104
79,47,57,44,32,37,155,111
72,44,54,45,29,25,150,111
66,43,54,40,28,24,133,99
65,50,52,41,26,23,134,93
55,44,45,43,26,21,97,85
65,45,51,43,27,22,82,75
73,42,49,40,25,24,86,86
76,45,52,39,27,26,94,101
80,37,56,38,28,28,103,104
83,42,57,40,27,29,100,106
102,44,57,43,26,30,101,112
101,44,72,44,25,28,92,98
101,40,73,45,27,29,105,97
99,42,73,44,25,29,100,103
103,40,77,44,26,27,104,104
78,36,79,42,25,27,100,97
82,37,64,40,26,27,102,93
82,43,67,39,25,27,97,93
78,41,69,42,28,29,97,86
75,39,68,37,27,29,98,82
74,39,61,34,26,27,107,81
64,37,73,46,25,29,104,85
67,30,68,47,25,28,91,69
87,37,67,49,23,30,105,88
84,36,66,49,23,30,106,94
86,40,69,57,24,31,105,93
89,43,56,49,28,31,103,91
90,45,60,52,27,31,103,89
77,40,58,48,25,26,100,74
78,43,55,49,26,24,123,101
78,42,50,40,27,27,120,109
73,47,51,38,25,25,130,113
62,45,48,36,26,24,130,115
65,49,49,41,27,27,115,108
60,49,52,39,27,28,95,100
66,48,48,39,25,24,103,93
69,41,47,41,24,25,90,87
84,49,63,45,29,27,89,88
76,48,61,43,29,25,96,90
84,49,62,45,30,25,92,62
74,50,73,48,30,27,84,59
87,51,74,45,31,29,93,67
80,43,61,43,26,29,93,74
81,46,59,44,26,29,92,74
83,41,55,45,26,30,106,80
95,40,46,47,27,28,106,84
84,44,59,49,26,26,99,81
83,46,60,46,25,26,101,75
83,41,63,49,27,29,121,79
85,43,65,48,26,27,117,97
77,48,69,45,25,29,118,94
76,43,60,41,25,28,121,95
75,43,66,46,27,26,115,90
76,42,73,42,26,26,111,90
73,42,77,43,23,27,92,77
69,39,74,43,23,27,94,82
74,38,73,44,22,28,98,82
72,38,65,41,22,27,99,82
74,41,61,40,23,26,80,77
68,41,60,43,24,24,86,65
74,39,54,41,26,22,86,63
69,40,52,41,27,25,83,66
72,39,70,37,28,27,90,68
74,36,69,37,28,27,90,70
77,34,77,30,27,27,86,67
73,37,81,34,25,28,75,66
70,41,85,35,27,29,111,69
67,45,79,36,26,26,116,71
77,43,78,34,26,26,112,77
72,46,72,35,26,25,124,83
73,43,77,34,27,23,124,80
74,42,78,35,25,21,92,73
78,39,69,36,26,23,84,90
62,43,65,42,23,23,96,90
78,42,64,44,24,24,82,86
79,44,55,44,29,28,85,86
85,44,58,48,29,31,83,85
85,46,57,51,27,30,85,68
87,45,60,46,28,31,87,66
75,44,53,43,29,33,96,74
71,43,55,45,24,31,95,89
66,49,55,43,25,29,101,88
65,47,58,42,25,29,112,96
73,45,65,45,27,28,105,99
73,44,67,46,27,26,99,94
73,44,66,45,28,26,110,85
85,34,64,45,28,24,122,90
92,36,68,46,27,23,106,84
82,41,62,46,27,25,109,84
80,44,63,46,26,25,110,83
83,46,75,48,25,24,108,89
91,45,70,46,25,27,90,90
87,45,66,45,27,26,99,92
96,45,71,47,26,30,93,88
98,42,74,47,25,28,88,87
102,44,65,66,28,31,75,77
85,47,67,72,31,34,118,80
78,43,69,71,30,37,114,87
70,39,65,71,31,35,113,82
66,37,63,76,31,35,118,88
63,43,67,63,28,34,131,90
80,42,65,59,29,29,123,112
89,48,72,58,28,28,126,111
92,51,70,54,28,30,133,113
103,53,67,45,28,32,147,120
107,52,92,52,28,32,139,136
94,54,119,52,26,33,120,116
86,55,128,56,26,32,115,108
84,54,137,58,26,29,119,120
73,54,137,60,28,27,116,127
67,49,121,51,27,26,145,135
68,51,112,60,31,27,152,133
73,52,99,61,32,28,157,136
76,57,90,64,33,31,169,135
79,57,90,62,33,34,201,154
81,62,105,69,35,35,225,166
86,59,102,63,30,34,234,187
91,59,109,59,30,34,236,195
109,60,113,61,30,33,243,224
113,59,120,65,30,34,223,217
110,63,107,62,29,34,202,208
111,62,105,61,30,36,193,201
106,66,94,59,32,39,225,221
85,67,118,58,32,37,226,257
97,73,116,65,32,39,216,254
96,68,114,71,32,38,219,250
107,67,105,72,34,39,245,276
106,62,107,83,32,37,215,270
113,59,80,85,39,42,197,235
95,55,78,91,42,39,211,237
100,57,78,84,44,40,239,293
92,64,84,84,44,39,217,276
103,62,84,82,44,39,235,270
94,58,76,79,39,34,228,248
103,63,77,75,35,32,224,250
98,64,78,75,34,35,184,184
104,67,78,74,33,36,169,172
103,66,81,68,34,36,188,209
107,69,94,69,33,36,189,205
103,67,90,57,33,40,174,190
100,65,89,55,30,37,168,192
89,55,87,61,29,37,189,189
82,56,81,58,27,37,146,135
77,53,77,60,29,37,163,159
77,46,78,59,30,34,172,157
92,53,91,66,31,34,165,145
91,54,87,65,33,35,138,146
89,56,89,66,34,38,182,187
86,60,86,63,35,39,187,186
92,62,86,63,34,40,179,191
77,59,74,63,34,38,181,187
70,62,75,63,32,33,185,177
69,59,78,62,30,28,153,138
81,58,79,59,30,30,134,109
80,55,83,66,32,32,137,105
102,50,84,67,33,36,141,117
109,46,88,66,35,37,136,128
113,46,90,70,36,38,119,123
107,54,96,71,33,34,119,124
102,56,97,75,30,33,123,134
93,66,102,68,27,29,115,130
88,65,102,63,26,29,114,121
85,63,95,66,25,28,112,129
88,60,91,68,26,28,101,131
86,59,88,58,27,25,105,115
68,50,87,62,33,28,97,122
67,50,101,65,34,29,103,120
71,52,109,63,35,31,118,104
70,52,101,59,36,36,128,122
66,54,104,57,39,37,116,122
71,50,97,53,35,37,127,118
90,50,74,50,32,35,127,133
89,54,74,45,33,33,118,137
91,50,74,45,31,31,116,121
97,49,67,46,29,32,132,128
98,48,68,43,29,30,129,121
84,50,73,43,32,37,131,128
78,48,75,47,32,36,134,120
70,48,89,48,34,34,141,121
67,51,95,52,35,34,128,125
81,54,93,52,36,34,130,125
77,49,93,50,33,28,128,105
90,48,90,49,32,31,127,116
94,44,86,59,29,30,146,135
95,41,83,58,28,31,150,127
80,47,89,68,25,32,156,168
86,48,90,73,28,33,158,182
74,45,90,71,27,32,153,177
77,51,84,63,27,34,126,157
72,56,86,62,26,35,134,176
78,51,87,51,27,36,125,135
82,58,83,49,24,37,134,119
94,61,74,47,25,36,148,150
89,60,77,49,24,33,148,150
96,61,81,51,26,34,145,134
113,61,75,66,29,32,143,140
106,58,79,63,29,28,127,145
97,55,89,70,29,27,111,115
94,56,84,71,31,28,112,127
94,51,74,70,32,24,110,129
87,54,75,57,31,26,116,139
85,50,70,57,32,27,111,125
95,49,63,47,34,27,127,136
101,65,66,51,39,34,157,161
94,62,63,49,37,34,153,152
73,58,60,48,36,35,209,167
83,59,68,54,37,42,232,186
69,61,62,57,35,42,224,176
80,44,66,57,31,38,216,161
81,44,70,59,31,37,213,159
83,45,74,58,30,34,145,124
90,46,83,54,31,34,134,115
90,43,84,51,29,33,140,120
75,42,78,42,26,31,114,97
91,52,81,50,35,38,171,137
92,53,86,54,37,40,174,140
76,56,73,52,34,32,154,127
76,58,78,53,34,33,150,123
94,57,82,54,35,34,153,125
82,47,80,46,27,29,94,87
85,47,73,46,25,28,133,113
94,38,69,51,26,28,134,111
100,46,68,55,26,26,132,116
87,46,67,57,26,30,144,125
83,49,64,60,25,29,140,129
84,45,63,56,27,27,106,111
81,47,64,49,26,30,110,122
81,39,71,59,30,31,116,130
88,37,69,58,31,33,111,152
100,55,73,55,32,33,129,147
97,60,74,64,33,35,122,150
90,61,76,64,33,33,120,143
89,61,71,52,33,34,131,136
86,62,72,53,32,28,119,96
80,48,69,55,31,28,136,132
85,44,67,48,30,26,140,131
89,45,86,49,29,28,147,129
90,49,87,53,26,26,132,123
88,51,94,48,24,27,168,164
86,48,97,47,25,33,144,151
83,45,104,46,24,35,147,144
92,43,91,47,25,35,147,142
91,37,87,48,26,36,147,140
89,39,82,50,27,35,103,90
89,38,79,54,28,27,110,94
88,43,70,52,30,29,125,127
76,43,73,60,30,27,119,129
75,44,77,60,33,30,141,142
71,39,75,60,33,31,142,145
65,43,85,59,31,35,130,128
70,44,84,58,28,32,116,102
68,49,76,50,29,34,121,115
68,47,68,44,24,33,139,154
73,51,67,44,26,33,150,157
70,49,61,40,26,30,155,157
64,46,65,44,28,28,149,154
83,41,75,43,27,28,175,169
81,46,84,54,29,26,156,123
80,43,84,56,27,28,167,119
85,42,75,55,27,29,171,119
94,42,76,54,27,32,170,124
89,42,68,56,27,32,137,101
89,37,59,51,25,32,125,100
90,38,55,48,26,30,105,99
106,40,59,50,26,28,94,103
98,38,58,49,27,26,98,105
87,38,54,49,29,28,154,126
83,37,56,45,30,29,157,129
98,41,60,46,30,31,157,133
78,38,61,45,29,32,155,126
87,41,58,47,31,34,152,123
93,43,68,45,31,32,108,82
99,44,68,47,30,34,99,77
84,41,67,54,32,33,120,85
84,48,67,53,33,34,122,108
87,49,75,55,32,31,124,103
95,47,67,55,29,30,114,108
89,47,74,55,29,27,114,105
91,46,73,46,25,25,96,97
96,41,77,47,26,25,97,80
92,36,72,44,24,26,103,85
83,41,75,50,24,27,106,83
88,41,69,48,25,28,132,109
90,41,72,54,28,29,122,110
86,39,69,54,26,28,138,117
92,38,68,59,29,29,141,126
91,38,70,56,29,31,164,135
93,34,68,55,28,29,146,117
84,36,72,65,28,26,146,113
94,48,69,67,28,26,137,127
87,50,68,61,26,25,138,128
87,46,62,61,26,20,106,119
83,48,61,65,26,23,117,125
84,52,53,51,24,26,128,139
74,40,52,47,24,28,115,114
68,39,54,46,26,29,104,105
88,46,63,53,26,29,138,111
86,47,70,53,26,28,131,106
89,44,74,54,26,26,120,81
98,49,74,55,26,26,132,114
100,48,78,61,25,26,156,129
76,42,71,53,27,29,124,125
79,42,63,49,27,30,129,129
81,43,53,49,26,30,130,130
65,41,56,54,27,27,127,111
61,43,46,48,28,26,99,93
74,46,45,50,27,23,104,89
81,52,53,50,25,24,99,83
81,54,65,50,26,25,115,102
83,57,64,49,25,29,112,97
116,58,70,47,22,28,119,105
110,55,71,49,22,33,125,101
104,51,79,48,23,31,142,104
103,47,77,50,22,33,130,88
107,45,77,46,23,30,134,99
77,44,74,51,29,38,145,95
84,48,79,53,28,34,144,105
89,49,68,54,29,33,136,105
85,49,60,52,30,31,134,105
80,47,58,51,30,31,126,90
71,45,62,48,29,25,115,89
69,42,52,38,30,28,124,91
66,40,51,36,28,28,112,98
71,39,57,34,28,31,114,109
77,38,64,43,30,35,119,112
104,39,62,43,27,32,134,109
99,38,65,44,26,32,120,101
101,37,66,44,28,33,125,102
98,39,60,43,28,31,125,97
98,39,56,38,24,26,126,93
81,46,57,43,25,25,103,89
85,50,71,44,27,24,108,93
81,50,69,48,26,23,101,80
88,52,75,50,26,24,108,96
85,54,74,46,28,24,102,94
80,49,75,40,28,24,100,98
88,48,74,41,26,26,98,97
93,47,77,38,28,27,94,102
92,45,79,36,28,24,84,77
89,45,78,39,28,26,95,101
85,42,74,46,26,27,112,103
73,41,67,48,28,30,105,104
65,42,64,50,26,30,108,101
66,40,56,50,24,28,113,105
75,43,60,54,26,30,127,99
78,45,63,53,26,29,110,113
92,46,62,50,24,26,118,108
104,46,59,48,23,25,115,108
104,57,64,49,24,25,110,102
100,55,73,48,22,27,120,101
104,64,73,49,25,30,121,94
93,66,76,49,26,29,111,96
79,71,77,49,26,28,121,95
72,65,74,50,30,31,133,112
77,66,64,46,30,28,98,101
77,57,69,44,29,25,108,94
80,53,60,43,28,25,119,110
82,48,61,43,28,26,120,112
88,51,71,42,26,25,122,113
83,49,74,46,26,24,131,112
81,54,93,47,24,26,127,107
80,57,99,46,24,27,118,87
94,54,98,44,24,26,112,93
92,47,92,46,25,28,106,87
105,47,87,46,26,28,105,85
104,41,62,43,28,25,105,94
106,38,53,45,29,26,109,101
96,36,54,48,33,33,116,94
101,47,56,48,30,31,105,87
84,46,61,48,30,30,103,130
82,45,58,47,28,32,120,131
79,49,70,50,30,32,120,129
77,52,69,48,27,28,128,134
86,47,71,44,30,28,127,133
91,50,73,51,30,29,127,116
98,50,72,54,31,26,118,118
99,48,65,52,29,25,123,136
101,48,72,53,29,21,106,133
87,45,68,55,26,23,116,133
95,43,61,53,26,23,110,111
93,45,63,52,24,24,103,109
93,46,57,51,23,25,93,83
91,49,57,55,24,27,104,91
93,48,56,53,26,30,100,91
83,49,61,54,26,29,110,96
75,48,66,52,28,30,111,94
72,45,74,56,29,29,112,102
70,49,74,53,27,27,99,88
75,52,73,54,28,22,97,95
82,55,80,57,29,23,111,102
86,55,75,55,29,22,110,108
83,57,69,51,28,24,108,98
85,49,64,48,29,27,106,108
83,51,73,49,29,27,103,104
74,42,63,44,28,30,99,110
72,49,75,47,28,32,94,98
73,49,76,44,28,30,97,99
74,49,86,46,29,28,108,90
75,42,78,48,29,30,118,88
87,49,77,42,29,28,97,67
93,43,65,45,29,28,98,88
97,43,84,47,29,30,123,93
97,46,76,50,28,30,125,111
93,49,77,49,29,29,128,112
97,51,75,48,28,30,152,136
90,51,81,48,26,29,151,123
83,49,57,48,26,28,132,118
82,48,57,50,26,30,138,101
97,46,66,52,29,32,145,117
84,44,67,53,31,32,145,115
91,45,63,52,32,33,153,120
108,45,65,51,31,32,158,124
122,47,64,51,33,32,159,143
117,49,54,49,28,29,147,135
117,45,62,57,27,28,139,114
112,43,90,62,30,26,142,132
101,44,94,66,31,29,137,131
88,42,91,61,29,27,123,108
84,41,97,61,29,28,119,106
81,40,98,54,29,27,107,110
88,43,73,46,25,27,101,82
86,47,74,41,25,29,113,85
86,46,78,43,27,28,117,117
81,45,77,40,26,27,112,112
84,54,75,43,27,28,118,114
93,56,74,42,28,32,126,116
95,52,68,41,28,27,118,118
100,54,74,38,27,31,134,115
111,55,70,45,27,32,135,118
113,50,65,41,26,32,140,113
107,45,65,42,25,29,122,112
101,43,71,41,25,31,120,106
97,39,58,42,24,28,128,82
86,41,57,38,28,32,144,85
85,40,59,36,28,31,134,98
92,43,60,44,29,30,148,111
100,46,53,43,28,32,150,114
95,48,58,42,27,32,126,118
95,49,63,41,23,31,109,108
101,46,58,52,26,30,103,91
94,41,73,50,24,31,97,77
90,45,72,52,28,28,125,86
89,42,76,55,29,28,128,87
93,41,69,53,28,25,127,96
81,44,72,47,26,25,140,111
76,47,55,50,27,25,130,115
80,42,61,51,25,24,98,106
80,42,54,49,25,25,100,98
73,45,54,49,26,25,106,95
78,47,75,50,30,28,121,97
90,46,75,42,29,25,124,91
93,49,70,39,29,26,122,103
93,48,74,42,27,25,117,101
94,44,81,43,27,26,115,112
103,42,58,40,27,28,96,103
92,46,57,48,26,29,93,101
91,46,65,50,28,30,104,96
87,46,57,48,28,31,102,98
90,47,60,52,30,31,106,84
97,52,58,54,26,27,97,74
108,48,64,54,27,29,103,75
109,50,59,52,26,29,96,78
112,52,63,57,27,33,104,94
111,51,54,52,25,32,113,106
97,46,59,51,29,36,126,107
83,45,55,53,31,35,131,108
83,44,59,55,32,32,127,106
86,45,64,52,30,27,126,105
91,49,77,55,32,29,126,93
87,49,74,58,30,23,111,91
83,47,79,50,29,24,101,101
81,50,79,49,27,27,115,101
84,52,84,46,27,27,110,88
76,48,83,43,27,27,108,97
80,49,90,43,26,28,112,96
89,49,89,50,25,29,116,97
100,45,87,51,30,31,127,104
100,41,84,52,31,34,141,103
100,41,74,53,30,35,129,98
95,40,75,56,31,36,143,107
105,44,87,55,31,34,137,101
96,45,85,56,28,31,115,83
90,43,79,54,25,27,105,91
102,46,87,60,29,29,126,91
109,48,93,57,30,28,122,95
92,43,78,56,36,41,169,125
88,41,77,52,35,41,177,127
94,46,80,57,37,41,175,142
81,49,77,56,34,38,159,155
74,53,64,59,33,43,162,149
79,54,66,60,27,32,117,133
87,55,67,65,31,32,142,139
86,50,64,66,30,33,141,123
84,46,60,62,30,33,148,114
96,44,67,59,33,29,151,160
93,47,76,55,33,29,153,158
83,45,75,50,30,27,122,157
73,45,78,47,30,27,117,155
71,44,83,49,29,28,118,148
67,40,82,51,24,29,115,113
76,37,73,50,23,32,113,108
82,36,73,51,23,31,112,107
97,38,75,51,21,31,129,107
108,39,84,57,26,31,131,123
100,39,77,62,26,28,120,110
98,41,78,64,29,29,118,113
95,40,76,67,29,29,141,113
86,39,76,70,31,31,133,126
76,39,58,64,27,32,124,106
73,45,69,56,28,33,134,118
64,45,74,57,24,31,132,114
68,49,78,56,26,34,136,123
61,59,79,50,25,32,136,109
60,59,78,58,27,30,136,111
74,54,84,57,30,30,135,101
84,56,84,54,28,29,149,111
84,61,97,51,28,27,136,98
85,50,93,56,28,26,129,100
91,51,97,48,26,26,128,102
85,57,82,51,22,25,109,92
77,53,75,50,27,30,94,70
82,47,59,45,25,26,130,112
78,47,67,43,26,28,132,109
78,45,71,40,27,30,142,111
81,40,75,37,28,28,144,116
92,45,77,45,27,26,159,150
86,39,72,45,26,29,123,119
89,38,66,42,27,31,129,121
89,44,59,47,27,31,117,124
92,44,63,50,27,31,138,123
79,41,64,43,25,29,118,88
89,44,67,46,25,26,119,95
88,44,63,46,25,25,113,97
93,43,66,42,23,23,112,90
90,44,63,46,24,24,103,92
101,49,94,53,27,28,102,100
93,48,95,54,27,29,97,98
97,54,101,54,26,28,104,95
90,52,96,56,28,29,122,99
88,48,94,53,28,31,113,97
82,52,63,45,25,27,112,88
82,54,75,46,25,27,113,78
82,50,70,47,26,27,127,80
79,50,74,44,26,28,125,88
87,51,74,43,27,25,124,118
90,41,72,51,27,26,144,119
99,46,66,48,28,26,139,123
94,46,65,46,27,29,127,127
100,45,67,51,26,28,114,133
89,44,74,55,26,29,117,108
80,41,79,54,26,29,90,102
64,32,71,58,28,28,93,99
70,30,75,58,28,27,78,101
72,33,77,57,29,27,110,89
78,36,75,62,27,26,103,86
91,37,70,56,29,26,125,138
97,45,76,54,28,29,128,144
93,46,70,56,29,27,138,139
96,46,67,55,30,25,133,138
99,52,68,49,33,25,138,146
100,56,78,49,32,27,134,110
103,52,87,45,31,25,130,103
105,52,91,44,30,25,128,106
93,51,98,49,29,28,122,101
101,46,98,45,28,27,136,104
94,43,89,48,26,26,120,96
85,47,87,55,29,27,136,103
83,48,84,56,30,27,137,109
96,47,77,52,31,27,129,116
87,45,76,54,27,30,113,108
83,44,81,53,26,29,117,103
89,40,71,46,24,28,117,103
93,38,69,44,22,28,113,101
86,39,69,46,23,25,116,92
94,47,67,46,25,22,112,88
101,48,72,52,28,25,114,99
96,45,75,53,29,26,119,97
102,45,77,50,29,28,117,85
99,45,81,48,30,29,107,79
85,37,81,46,29,29,104,86
77,34,70,38,28,28,115,88
80,39,68,37,27,29,135,99
68,38,64,39,28,27,135,103
65,42,59,40,24,27,143,111
74,42,67,42,26,32,150,109
76,49,68,40,25,30,143,97
72,45,66,41,27,29,119,92
73,49,75,44,26,31,128,99
81,48,73,49,27,29,136,116
75,47,66,50,26,28,126,111
75,43,62,51,26,28,125,118
79,45,71,50,24,27,130,109
89,44,71,51,28,26,129,115
86,41,70,45,27,26,116,98
85,42,67,42,30,24,133,104
92,43,75,47,30,25,132,96
89,43,75,47,30,25,109,94
83,42,66,43,26,23,96,84
82,42,74,48,26,27,101,83
90,41,95,52,22,25,87,79
85,41,93,51,21,26,116,82
87,41,89,50,20,26,116,84
87,41,95,50,23,30,135,91
92,41,89,48,23,28,135,94
85,40,63,45,25,29,144,98
83,39,60,43,26,29,122,99
82,37,64,44,28,29,144,102
87,39,58,50,30,25,134,90
87,40,77,52,31,25,142,101
90,41,85,53,32,24,129,106
89,39,85,54,31,28,137,104
90,45,81,52,30,28,114,102
82,42,80,47,27,29,122,114
89,38,67,44,25,30,103,102
95,38,67,43,24,31,114,104
93,43,67,43,25,29,109,105
99,43,65,43,25,29,115,105
102,47,66,43,25,31,99,95
96,52,73,43,25,29,113,93
84,52,69,50,29,30,138,100
86,49,73,51,30,28,139,134
76,45,73,56,33,28,136,137
76,43,70,57,34,26,139,135
66,40,59,56,34,28,136,144
75,40,56,48,30,25,98,131
74,39,55,44,28,26,87,100
88,43,64,41,24,28,105,96
102,52,66,37,21,27,101,99
105,55,62,42,22,27,93,80
106,57,64,47,25,27,101,97
116,59,60,50,26,26,100,92
105,54,52,54,26,24,95,94
90,47,49,56,30,27,96,94
88,45,57,50,29,28,98,101
80,43,55,44,29,30,97,80
65,43,54,42,28,32,107,88
74,42,59,34,29,33,91,84
99,41,66,31,27,32,96,80
95,43,63,33,28,33,126,77
98,39,65,38,28,32,129,92
99,39,68,43,28,31,119,85
96,41,64,49,28,29,122,85
77,42,59,50,29,26,128,93
77,37,69,52,30,27,111,100
78,38,75,51,31,27,113,109
74,37,71,46,31,27,111,109
97,36,72,39,30,28,110,114
104,33,80,36,28,29,113,109
106,34,71,37,28,29,114,105
107,38,70,42,25,27,117,87
109,36,71,43,26,28,124,87
90,35,71,45,28,28,130,85
75,37,63,44,27,28,122,91
82,39,60,45,26,24,119,92
85,34,50,47,27,25,107,86
87,43,62,52,28,25,110,82
93,50,61,52,27,26,106,78
97,48,57,53,27,25,103,73
89,46,57,52,28,25,96,77
81,49,73,52,27,25,113,89
121,48,66,49,24,25,105,96
115,43,70,50,24,26,103,100
114,50,71,56,23,24,102,96
112,50,78,63,24,26,109,90
118,51,67,60,26,25,91,78
71,49,72,61,26,25,149,101
74,52,69,60,27,25,151,95
80,45,70,54,28,28,157,97
92,46,63,46,26,28,151,98
89,45,63,48,26,30,156,104
98,44,57,46,26,27,102,79
124,45,60,47,28,26,109,81
117,46,59,48,29,24,111,92
116,47,66,47,29,21,106,92
122,48,67,40,31,23,107,91
118,48,66,36,30,25,120,113
98,43,62,36,27,23,117,118
106,48,65,36,30,24,124,108
102,52,56,35,29,24,131,102
99,48,64,41,28,26,137,113
98,48,67,45,28,24,124,87
96,50,77,47,29,28,130,85
104,42,76,47,26,30,120,104
104,41,75,50,26,33,141,140
95,43,68,48,25,29,133,129
97,40,67,51,27,31,142,131
89,45,65,48,26,29,130,139
69,49,65,48,27,30,141,128
61,49,70,47,27,28,112,87
76,52,73,50,25,29,110,86
80,52,80,44,25,27,109,95
86,49,75,48,26,28,126,85
84,44,78,50,26,26,111,92
93,42,76,51,27,26,111,95
82,37,81,51,28,26,108,92
75,39,75,51,27,28,110,85
74,36,74,50,26,29,135,88
87,37,74,46,24,28,127,76
81,36,73,49,26,28,130,82
85,34,59,46,25,27,130,84
94,38,57,44,25,29,136,87
95,40,66,50,32,39,117,100
91,41,64,51,32,38,120,110
96,42,64,46,32,39,126,108
91,44,64,51,33,40,126,109
89,41,67,54,33,38,125,141
82,36,57,49,27,29,116,126
76,41,55,49,26,30,116,118
80,40,57,57,25,28,108,117
92,45,69,55,26,34,113,123
84,42,69,54,28,33,100,79
91,46,76,54,28,30,85,76
102,44,78,53,28,29,85,79
96,47,76,47,27,28,82,87
93,42,70,44,28,25,84,80
92,44,73,44,30,27,99,82
86,40,73,47,33,27,103,86
71,40,73,51,32,31,102,83
69,49,73,47,31,32,104,74
63,50,81,50,28,29,109,79
92,52,71,48,25,28,103,92
94,56,66,46,19,29,101,97
94,58,67,42,21,26,103,97
93,48,66,41,22,30,103,93
93,49,57,43,22,28,102,94
72,47,56,46,25,29,87,77
71,48,69,52,27,28,94,75
73,46,73,52,27,29,104,77
78,48,78,54,27,26,115,80
85,47,76,53,28,29,113,83
81,49,80,50,27,28,115,86
84,45,80,45,25,29,110,77
80,48,75,44,25,28,99,74
84,47,74,47,26,26,82,70
76,45,78,46,25,26,84,57
73,41,77,46,25,28,116,73
80,48,71,43,28,33,116,78
82,44,73,43,29,33,119,78
83,43,71,36,30,33,125,81
79,44,70,39,30,33,125,80
80,44,74,38,29,31,104,87
78,36,70,42,28,29,112,101
85,38,67,44,28,28,106,99
85,38,69,43,27,30,118,110
84,39,67,40,27,30,108,121
87,39,70,44,28,30,101,113
80,41,71,40,26,26,87,97
80,43,74,41,27,28,109,110
77,45,71,42,24,29,97,107
85,46,78,43,24,29,106,104
90,46,72,45,24,29,119,96
88,45,72,46,23,30,123,96
86,46,81,44,24,34,115,86
88,48,89,47,29,34,120,85
82,45,82,45,29,31,118,84
82,45,79,42,30,31,107,84
94,46,78,40,31,32,118,98
92,39,69,44,28,26,112,97
94,36,67,41,25,25,103,105
105,36,68,45,27,27,100,96
100,36,76,45,25,26,105,96
88,33,77,49,24,29,104,87
90,43,80,50,26,29,104,92
99,43,73,53,27,29,105,75
93,44,76,52,26,30,114,75
101,52,68,52,30,33,111,81
106,53,68,54,30,30,116,85
113,46,74,51,29,29,119,87
96,45,71,48,29,29,122,85
91,43,65,43,28,27,110,84
80,34,65,41,24,27,121,82
86,42,62,38,25,27,98,81
70,42,52,35,25,28,105,78
75,41,59,37,24,29,105,86
75,43,64,36,24,31,106,86
88,47,74,37,28,28,123,98
92,42,72,39,27,28,133,93
96,41,71,40,29,26,121,86
100,42,67,38,28,25,115,84
108,47,63,46,27,24,120,88
112,46,56,48,24,23,89,76
103,46,60,47,25,20,73,71
107,47,56,48,24,27,91,73
105,49,58,53,26,26,94,64
102,42,60,49,27,26,88,73
87,39,58,51,26,28,98,72
93,40,58,57,26,30,104,77
104,45,61,57,24,25,89,84
100,43,61,52,23,27,89,81
100,45,57,53,22,26,90,69
98,46,62,49,22,24,105,82
108,43,61,43,23,24,136,82
96,38,65,46,25,22,139,78
100,42,63,45,24,21,144,83
94,45,63,44,25,21,154,89
110,43,57,43,24,21,138,83
92,45,62,43,24,21,120,84
86,43,67,41,22,25,137,85
86,41,71,43,25,25,139,98
90,38,72,43,30,29,130,107
66,36,82,44,30,31,132,100
70,35,76,49,30,35,133,102
76,36,71,47,32,31,117,103
86,39,72,45,30,31,116,105
85,39,77,45,26,28,107,87
87,41,65,44,26,27,117,93
84,45,65,35,26,23,99,91
79,45,62,35,26,25,93,102
71,42,59,42,27,25,79,84
67,44,56,44,26,25,84,86
77,43,56,42,26,26,91,98
97,43,74,46,27,27,110,95
99,46,73,49,25,25,113,80
96,47,71,47,26,26,120,90
99,45,75,47,26,27,127,97
98,44,78,48,27,23,107,84
93,45,70,47,24,22,91,84
87,43,77,45,25,22,89,93
85,41,84,44,24,23,87,90
86,40,80,41,24,24,94,90
80,46,80,47,23,25,93,86
62,40,76,47,23,27,94,85
66,41,68,47,24,28,95,79
86,46,82,49,25,30,106,103
97,49,78,55,26,29,109,100
99,44,76,54,30,29,141,102
97,43,72,52,30,26,140,103
106,45,74,52,30,27,160,131
95,40,52,51,32,25,155,119
86,42,67,56,34,26,153,120
95,48,68,54,31,26,140,122
98,49,68,56,31,26,142,123
86,50,77,57,31,26,141,89
94,51,83,55,27,23,134,77
89,47,76,47,26,22,128,77
80,42,77,45,27,29,126,88
74,43,81,43,29,31,136,88
73,40,74,44,27,29,111,87
63,39,62,44,28,31,111,87
65,45,67,45,27,31,117,87
66,46,68,55,26,28,129,96
72,44,68,54,24,26,115,95
75,42,66,51,23,27,117,95
78,45,72,52,23,25,118,103
80,44,71,50,21,25,120,100
77,43,70,44,21,25,91,80
98,44,67,45,22,25,100,92
99,47,66,50,27,29,110,100
93,47,69,49,27,29,116,93
90,41,65,50,31,31,108,93
99,52,69,45,32,30,152,133
98,56,69,56,33,32,186,171
102,57,69,56,32,28,215,185
117,59,72,66,32,29,215,186
123,61,78,72,35,28,221,196
117,53,74,74,33,26,204,175
112,47,81,71,30,26,181,148
124,52,84,71,31,31,160,166
106,45,75,67,32,32,172,180
110,46,96,67,32,32,170,183
123,52,105,69,35,33,171,197
119,53,108,65,36,35,182,224
110,51,108,62,34,31,178,200
140,53,113,58,34,32,185,216
138,51,96,47,29,30,182,221
138,53,88,42,27,33,177,209
131,55,87,51,28,36,174,176
127,51,84,51,28,39,180,174
98,49,82,53,29,40,156,146
96,53,78,55,31,41,156,136
80,46,81,58,32,39,156,132
97,46,74,60,33,33,138,127
107,50,72,59,33,31,119,164
108,54,71,57,32,28,126,154
113,50,74,61,29,28,121,142
116,52,74,64,26,25,113,144
107,53,78,57,25,25,130,150
96,50,81,58,25,29,129,110
103,54,81,60,30,33,140,117
91,55,75,56,33,34,144,148
94,55,76,50,35,35,145,147
88,56,69,48,35,34,121,135
88,55,72,47,35,33,136,135
86,52,72,45,31,33,126,150
86,54,78,49,30,32,118,123
85,52,71,49,29,34,116,117
90,50,78,47,31,36,124,119
97,50,87,55,31,32,129,117
89,46,82,56,33,30,129,87
94,41,81,52,31,30,132,88
90,41,80,53,30,26,138,95
86,45,78,58,31,25,136,104
76,47,65,50,30,24,108,101
88,50,67,51,30,26,112,115
87,51,61,54,31,28,116,116
93,52,65,58,31,32,116,119
94,52,69,55,31,35,123,127
106,54,74,58,37,39,135,153
111,52,76,59,37,38,129,145
107,52,78,56,37,37,119,137
114,57,75,49,39,37,153,155
111,53,68,52,36,35,153,155
105,48,65,52,31,30,143,131
94,51,73,52,34,29,143,136
96,55,75,54,34,29,145,150
84,47,87,54,31,29,101,134
86,48,85,54,31,28,86,127
91,49,82,55,29,28,93,138
92,48,74,53,25,27,82,130
92,48,71,51,22,27,104,122
94,49,55,55,24,26,101,112
99,48,61,52,23,30,104,113
93,48,63,52,25,31,111,101
85,48,63,51,22,31,116,111
89,47,67,50,26,32,136,112
85,47,70,47,28,34,134,108
86,51,63,47,29,30,137,95
82,52,66,49,29,36,139,102
82,48,62,47,30,35,153,99
72,43,52,45,26,34,120,85
73,47,48,44,22,29,120,90
76,44,55,52,21,31,122,87
83,53,65,51,27,30,135,91
86,55,72,54,31,31,135,102
85,58,75,58,34,33,150,109
82,61,85,65,35,34,158,111
80,59,83,60,36,33,154,120
68,53,71,61,31,27,145,137
63,52,68,62,28,28,144,138
66,51,77,62,25,26,132,152
71,44,70,57,26,29,128,151
62,43,67,56,27,27,130,147
77,40,70,59,26,27,128,125
86,41,73,54,26,25,126,113
96,40,61,60,29,31,134,100
99,45,60,58,29,32,160,119
98,42,59,59,29,35,157,119
87,45,58,56,29,34,144,108
88,45,56,56,28,35,127,114
92,46,57,46,27,33,120,120
84,40,55,47,29,35,123,107
88,42,60,46,31,34,126,122
93,48,75,43,30,37,140,133
96,50,76,47,30,36,142,124
81,47,78,48,30,33,144,110
85,51,78,48,30,36,157,138
92,56,84,48,27,37,166,134
100,50,68,51,29,34,163,134
90,47,62,49,30,36,161,138
91,50,61,53,32,35,159,145
94,49,61,59,30,27,124,122
84,47,62,61,29,26,118,118
79,46,67,56,29,25,115,113
79,45,71,58,29,25,121,115
77,44,72,55,25,25,126,112
75,44,78,51,27,26,113,107
81,41,76,47,28,28,113,121
91,41,72,49,29,28,117,119
95,43,77,49,28,28,115,118
101,42,74,52,28,28,109,111
119,42,67,53,27,28,120,132
113,41,61,53,27,28,105,112
98,39,65,52,24,32,95,112
102,38,60,49,27,31,94,114
94,37,62,46,28,31,102,118
71,40,65,50,27,33,98,108
72,38,65,52,31,30,101,121
76,49,62,54,31,25,101,122
62,50,62,54,33,27,135,125
72,54,67,54,33,28,135,125
70,53,83,55,32,25,127,115
70,56,82,53,29,26,150,111
74,52,86,53,29,27,161,111
72,50,83,55,25,26,140,111
66,49,78,55,25,24,129,106
66,47,62,49,26,27,131,116
77,52,61,48,25,26,120,109
71,51,65,53,29,27,105,115
75,55,83,53,28,25,95,108
92,55,95,61,30,26,129,114
93,53,96,57,29,25,127,93
86,52,97,62,31,25,113,106
86,53,93,59,30,25,113,92
95,48,79,59,32,27,140,119
83,54,85,58,31,26,126,120
88,53,82,60,32,26,125,136
89,49,88,70,30,25,128,125
89,53,88,68,30,27,138,127
87,57,88,71,26,25,113,101
83,52,77,68,29,25,116,110
89,55,76,69,28,25,118,91
94,53,69,54,30,30,131,97
96,44,65,53,27,28,120,97
97,44,61,48,28,30,130,105
97,43,50,50,25,29,115,95
99,43,46,46,25,29,120,99
105,43,47,48,25,26,119,98
101,47,47,52,24,26,118,96
94,41,49,50,26,26,121,103
94,49,49,42,34,28,116,93
92,46,50,49,36,31,113,95
81,50,60,52,39,36,143,160
83,46,58,51,41,36,149,166
89,49,55,54,40,38,165,181
93,43,58,55,34,37,179,189
85,45,61,51,34,37,183,193
89,41,58,49,32,31,154,148
113,44,65,48,31,31,159,161
109,48,70,49,31,29,137,156
113,48,72,54,32,32,128,158
111,50,68,58,31,30,119,162
109,50,62,57,29,32,140,159
104,53,55,61,31,37,129,141
99,48,62,59,31,37,124,120
95,44,72,56,29,34,142,115
96,44,76,56,32,35,145,100
97,45,77,59,32,32,122,131
76,46,78,55,31,26,136,144
95,49,76,56,32,27,152,149
114,49,70,59,33,26,138,150
111,53,69,54,32,31,145,152
109,54,69,51,32,30,143,124
109,51,79,49,31,30,129,106
94,47,72,50,32,29,105,95
71,45,64,49,31,29,132,107
68,36,63,48,30,26,137,125
70,35,66,49,31,27,147,129
71,42,68,53,32,28,148,133
72,49,68,47,28,27,150,132
65,52,68,53,27,26,143,152
75,52,69,53,25,23,135,140
88,53,72,56,28,24,139,149
101,49,62,56,28,28,167,192
106,44,64,60,29,29,178,204
109,40,72,54,32,31,158,176
104,43,70,57,31,32,155,171
106,40,68,55,29,32,144,163
94,37,69,51,27,29,106,107
88,36,70,49,27,30,98,105
83,37,75,47,24,28,109,108
88,33,71,42,27,30,117,117
72,36,69,41,27,30,116,111
69,36,65,41,29,27,125,112
70,42,72,46,31,28,142,100
72,45,60,44,31,29,153,97
86,50,59,44,31,27,141,96
89,48,58,43,30,27,137,101
87,49,66,42,26,28,150,109
86,45,54,37,27,27,136,106
85,44,53,41,27,27,120,108
82,37,54,44,27,28,128,104
85,38,57,42,28,29,142,111
87,43,49,47,29,31,123,102
91,44,54,48,27,30,109,101
94,46,55,45,27,31,104,97
81,50,57,46,25,30,107,105
76,47,56,47,24,28,102,92
82,45,62,48,26,27,112,100
84,43,61,42,27,28,117,102
84,42,59,42,26,26,122,105
85,42,69,44,26,26,117,94
85,46,70,47,25,28,112,104
95,46,65,47,26,30,101,122
91,46,64,54,27,29,123,130
87,45,71,57,30,29,131,125
88,42,72,57,32,27,129,127
92,41,72,56,33,28,123,126
84,37,70,51,31,23,126,100
84,36,69,47,29,26,111,79
87,47,67,44,31,30,125,110
91,47,65,41,29,30,131,111
82,49,62,40,27,31,138,111
80,52,60,41,28,33,135,114
77,54,64,39,29,31,133,124
80,46,61,36,24,28,125,114
82,49,52,39,25,31,126,115
83,44,53,40,25,30,140,118
84,49,54,40,30,32,145,136
88,48,62,51,31,33,140,128
83,45,62,60,33,34,139,118
81,41,61,59,32,31,139,123
99,43,63,59,32,29,115,112
93,35,70,61,26,29,112,84
90,35,57,52,25,28,112,90
98,36,63,42,25,26,109,113
105,40,67,41,25,26,127,101
92,38,68,43,26,27,130,114
92,38,67,46,28,22,124,116
94,37,69,46,26,22,132,115
95,38,67,47,29,25,120,113
76,37,64,49,28,26,94,118
80,40,72,52,28,28,106,123
79,39,71,47,28,29,111,132
89,43,70,48,30,30,119,135
77,39,69,46,25,29,126,118
88,39,73,47,25,29,128,133
91,41,60,40,24,29,120,126
102,45,59,48,25,30,131,119
95,46,59,47,27,31,133,115
100,53,60,53,28,31,131,130
102,51,61,52,27,31,142,118
89,47,63,51,27,31,137,112
86,44,62,51,25,31,129,111
86,44,64,55,28,28,121,111
90,43,66,54,31,26,128,92
84,45,61,56,32,28,116,95
89,46,60,56,32,27,123,90
84,49,65,52,32,26,114,84
88,48,68,47,28,27,109,92
81,47,61,42,25,30,112,100
77,48,60,38,22,29,114,91
78,50,63,36,22,30,129,98
82,46,63,35,24,30,128,104
79,45,58,35,24,33,146,124
78,43,60,40,24,30,139,125
82,44,77,41,25,29,141,128
77,41,79,42,24,27,125,123
71,42,73,42,22,26,126,118
69,41,79,48,26,25,120,92
68,41,80,44,26,26,128,86
91,37,62,44,26,27,117,81
93,38,62,49,30,26,120,82
94,40,73,51,31,31,125,106
94,40,64,47,27,29,120,117
93,41,65,48,26,29,102,119
92,47,71,49,27,29,105,117
103,46,67,43,24,31,107,119
101,45,61,46,26,29,100,99
106,47,65,47,30,29,128,91
115,46,68,47,32,29,136,86
99,41,64,46,32,32,134,90
87,40,68,46,32,32,127,99
88,41,66,44,31,31,133,102
90,37,74,43,29,29,100,90
100,47,73,42,27,28,97,105
98,48,72,42,28,24,102,108
94,48,68,42,29,25,102,105
101,49,70,42,28,27,126,108
91,52,63,41,27,27,125,113
79,44,62,39,28,30,114,107
85,43,76,38,26,29,115,116
94,43,81,46,27,29,124,110
86,43,83,51,28,30,103,113
89,43,88,56,29,35,99,113
80,42,88,57,29,33,102,105
88,42,79,56,29,34,107,96
88,45,75,54,31,33,120,108
84,45,67,51,31,30,116,100
83,43,64,49,30,26,113,98
82,41,63,52,30,24,108,91
67,43,57,55,32,30,127,107
60,41,65,56,30,30,111,92
61,41,65,56,27,31,115,103
59,41,57,55,28,31,126,103
88,43,55,51,28,31,131,108
88,41,73,48,28,29,119,100
92,40,74,52,27,28,122,105
89,41,79,53,31,28,125,104
94,41,78,49,29,30,118,105
68,44,90,52,31,29,122,108
81,49,85,52,31,27,111,95
79,48,87,56,29,28,114,93
90,46,84,58,26,29,104,91
102,47,87,59,28,28,109,98
98,44,72,58,28,31,124,103
97,40,65,56,28,30,135,113
95,37,57,44,28,28,151,123
89,38,52,40,28,27,149,120
97,36,51,39,28,26,150,115
101,34,54,44,31,24,132,114
97,40,68,51,30,26,118,118
99,39,64,51,30,26,86,103
101,40,64,52,31,32,127,105
85,45,67,53,32,32,120,109
83,48,69,49,28,32,128,107
79,41,53,42,26,30,130,106
82,42,52,41,26,32,135,106
100,43,52,37,24,27,113,103
94,38,57,39,26,30,133,107
97,35,62,39,27,29,125,99
105,41,62,38,30,30,153,121
102,45,64,37,30,28,149,129
79,43,63,36,33,28,159,137
80,43,64,34,29,27,143,128
95,44,54,31,30,26,159,142
97,40,54,37,29,27,133,118
95,39,54,37,29,26,142,110
96,40,58,45,27,26,123,98
96,39,48,46,26,24,130,104
92,36,47,49,29,29,133,111
89,34,61,47,28,27,128,108
89,31,59,51,28,28,120,114
95,37,59,47,30,26,115,112
92,37,68,45,32,27,105,111
83,40,71,51,30,21,75,85
71,41,70,57,31,25,83,89
85,42,69,54,31,25,92,80
84,37,68,51,31,26,97,87
94,38,62,52,34,30,101,111
87,34,60,44,32,31,102,117
87,33,52,35,32,31,108,115
85,33,52,39,31,29,105,121
92,33,54,39,35,33,121,129
86,37,54,47,31,31,127,112
91,38,58,52,32,31,126,107
93,42,60,52,33,32,126,110
80,39,59,50,34,37,151,150
67,38,61,56,29,34,140,151
72,36,64,60,29,33,138,146
70,35,58,58,30,34,143,144
80,34,70,62,30,32,154,161
96,34,69,62,30,26,123,119
100,36,67,59,30,25,118,109
98,35,59,54,31,24,142,124
96,37,60,54,28,22,148,135
96,35,43,49,27,26,126,112
86,37,44,48,24,26,124,114
83,38,50,46,26,29,142,125
84,36,64,39,27,29,133,125
100,35,63,35,27,30,129,119
93,35,65,37,27,29,148,131
93,34,66,38,28,28,164,132
91,30,61,35,27,26,147,116
87,30,47,34,28,27,134,101
82,30,52,33,30,30,128,99
86,31,49,33,29,26,113,80
88,29,50,36,28,28,97,87
87,29,53,40,27,27,97,92
96,32,58,39,28,27,95,97
94,33,63,37,25,24,91,100
88,31,60,38,25,26,92,98
84,32,60,39,26,24,95,91
88,34,71,38,27,26,128,93
91,31,73,41,24,26,129,86
85,28,68,42,26,27,134,91
83,28,69,44,27,27,127,87
98,32,69,44,25,27,122,90
120,31,59,45,27,27,102,84
109,32,49,44,28,26,100,96
108,33,54,47,26,27,95,84
113,33,62,45,25,28,97,92
105,31,62,42,26,27,94,86
77,30,59,42,24,24,97,94
81,29,58,38,23,25,99,82
76,32,60,40,25,24,100,97
85,32,55,35,26,23,107,89
76,30,62,36,27,25,131,106
72,29,61,32,26,26,121,98
79,29,64,37,28,25,121,102
86,30,73,36,28,24,131,98
75,30,70,38,30,26,132,102
78,32,65,37,27,24,120,87
78,34,66,43,27,25,113,88
65,36,66,45,25,27,136,89
79,34,58,52,25,28,139,108
77,36,59,54,24,27,143,111
76,33,63,56,25,29,147,140
81,34,61,57,27,32,150,138
91,33,70,57,28,32,140,147
76,33,63,49,27,31,128,127
75,32,62,51,26,29,127,126
82,34,57,56,31,32,110,99
85,32,60,50,33,30,119,103
78,31,52,54,31,27,109,94
83,35,50,53,29,30,111,111
92,36,49,47,30,31,103,109
83,34,56,43,26,25,106,99
76,38,52,48,22,23,104,109
73,39,50,47,23,24,102,104
90,35,61,48,25,25,109,101
86,32,60,51,24,24,109,99
90,34,60,55,26,28,108,103
95,33,64,53,26,29,100,90
110,34,61,48,26,31,103,96
100,34,65,50,26,28,119,100
98,38,70,49,26,29,126,107
101,36,67,44,25,25,123,105
117,35,63,41,26,28,135,107
107,33,72,44,25,27,132,101
102,33,70,43,25,28,117,106
101,32,65,44,25,28,108,101
107,35,65,46,27,30,118,111
92,34,65,49,26,27,115,113
88,33,54,45,27,28,119,111
87,33,41,42,25,27,110,89
104,35,42,41,25,27,109,91
94,34,41,35,27,31,183,138
85,34,50,46,30,32,181,147
87,35,53,52,33,30,177,147
91,33,53,53,34,29,178,148
73,32,53,50,35,32,189,160
73,29,53,50,31,28,138,121
70,31,52,39,27,26,134,105
85,31,54,33,24,28,135,107
87,33,63,34,27,30,130,105
88,34,64,40,27,28,121,90
88,35,64,40,29,27,96,90
95,33,63,41,29,28,118,123
87,34,60,39,30,27,121,122
86,31,55,39,31,25,126,130
84,26,55,40,32,24,116,127
90,30,51,42,34,25,117,126
88,30,57,43,33,25,91,95
80,30,58,45,31,25,121,110
76,32,58,50,30,27,129,101
78,35,56,46,28,30,135,106
71,31,61,47,25,29,128,99
67,33,56,47,26,28,123,95
81,31,55,47,27,32,103,82
83,29,55,38,25,29,106,93
88,31,54,40,25,27,111,82
86,31,54,40,26,28,124,93
86,30,60,42,27,29,127,101
89,31,66,41,28,24,117,94
84,30,65,44,27,25,103,81
85,28,65,42,25,23,121,91
89,30,64,45,27,25,151,105
92,29,56,43,26,28,153,112
85,32,47,44,25,28,153,118
84,31,51,46,27,27,153,117
79,32,53,49,28,30,145,123
98,36,52,42,26,30,134,127
98,36,53,40,27,27,131,119
91,32,54,43,28,27,132,113
104,36,57,42,29,29,139,116
105,33,54,38,29,26,126,104
86,26,50,40,28,22,89,69
84,27,48,41,26,21,92,77
87,30,48,37,29,24,111,108
83,24,37,37,27,22,102,110
82,30,47,42,27,26,104,112
77,34,53,43,28,29,115,132
79,35,60,46,32,33,128,131
73,34,62,46,27,31,110,109
61,33,61,47,27,31,107,108
62,38,56,45,27,31,117,112
70,36,65,46,27,30,123,94
76,36,63,44,22,27,110,94
81,37,61,48,25,28,122,117
84,41,64,48,25,28,127,119
77,33,68,48,26,27,123,110
76,33,58,43,28,28,108,117
71,33,54,46,30,28,111,119
69,32,55,43,30,27,99,98
69,29,54,42,30,28,128,126
70,31,50,41,28,26,115,125
72,30,48,42,27,27,122,126
76,32,58,40,25,27,117,117
77,31,56,40,25,29,120,113
80,35,54,37,24,27,97,80
81,34,54,39,25,29,107,88
80,34,63,41,24,27,98,78
84,33,52,40,26,27,96,83
83,35,58,46,27,24,95,83
71,29,59,53,27,28,101,86
71,36,64,53,29,27,107,98
83,39,55,50,28,28,118,93
72,39,60,49,26,30,119,88
81,38,57,46,27,31,123,96
84,41,60,41,29,28,112,90
99,37,55,40,27,28,109,76
108,36,55,42,29,29,114,96
109,35,59,47,29,29,122,109
112,37,62,48,25,30,127,105
113,36,62,46,23,30,130,111
101,38,69,53,28,32,135,114
83,39,72,55,28,30,123,104
84,40,65,55,31,32,119,109
74,39,65,54,33,31,126,106
80,40,77,59,34,31,124,114
93,39,72,53,32,31,144,135
86,38,68,55,29,30,151,135
90,40,70,52,26,29,147,136
93,42,73,51,28,30,137,142
91,41,61,46,26,30,144,140
77,41,60,45,26,29,124,132
83,39,61,42,27,29,109,125
100,39,77,44,27,29,111,114
97,39,75,45,25,28,112,108
94,39,78,48,28,31,120,113
101,44,85,52,27,31,120,106
103,44,85,54,28,32,139,113
79,41,68,51,28,32,152,115
76,42,75,52,28,33,160,129
84,40,71,50,26,32,153,122
88,43,71,50,27,30,183,143
88,48,75,67,29,32,173,161
93,49,91,75,31,32,172,172
123,50,83,77,31,31,180,177
127,58,87,83,31,29,186,220
122,56,80,83,36,38,196,292
135,56,82,70,37,38,206,291
133,55,67,72,36,37,208,294
116,58,68,70,42,44,228,322
106,53,65,65,44,46,226,309
107,50,71,68,40,40,195,235
96,47,69,74,41,40,195,241
109,59,69,76,43,41,195,245
108,66,93,79,39,34,166,211
117,68,105,81,40,34,191,193
126,70,106,77,39,40,191,224
122,71,107,70,35,37,184,209
129,65,109,59,33,35,190,198
122,53,100,59,35,35,190,196
129,61,88,75,42,37,282,320
148,69,94,98,46,36,379,366
156,77,111,123,61,42,478,466
172,99,128,130,68,49,530,543
200,120,127,136,79,64,599,617
193,114,131,127,74,62,568,579
175,113,125,108,75,61,539,581
186,132,144,84,66,70,514,554
170,119,129,76,71,79,556,551
152,111,126,81,71,73,580,574
152,115,121,85,74,77,583,583
164,121,122,86,73,76,571,561
142,100,83,83,71,67,547,544
140,99,81,83,63,54,467,506
128,85,75,72,45,48,360,399
132,89,84,71,43,42,334,383
124,75,86,90,44,44,313,361
124,69,99,93,46,46,280,344
119,70,108,94,42,43,285,323
125,71,112,99,43,46,267,309
134,77,111,105,43,45,325,340
126,96,116,103,42,46,376,383
134,99,130,100,41,46,381,375
168,97,125,98,48,47,464,443
175,99,127,95,46,46,456,434
184,93,125,95,46,52,429,430
208,79,136,83,46,53,410,416
214,78,119,89,46,51,425,441
202,82,128,90,41,54,345,414
190,81,125,86,43,52,352,430
178,89,121,88,44,56,417,433
191,93,100,90,45,61,428,422
184,106,90,89,47,70,482,448
183,108,84,94,50,72,481,387
182,110,133,98,52,76,485,375
176,99,137,88,52,71,426,331
169,103,139,96,51,65,440,390
165,102,139,96,55,59,395,361
150,97,137,98,52,57,380,359
152,96,88,91,48,52,392,358
152,103,84,92,45,50,417,372
125,102,87,86,49,64,392,299
136,92,108,86,45,63,352,250
136,97,108,77,42,62,341,263
139,98,109,81,46,62,344,287
164,96,120,86,56,62,375,352
162,88,125,96,62,58,380,393
150,90,116,107,70,60,387,386
147,84,109,112,73,61,376,376
144,84,149,116,72,65,385,392
125,83,141,110,69,69,370,344
108,86,156,97,61,62,339,300
116,85,159,81,50,61,363,312
123,85,177,74,48,61,400,330
118,86,153,62,48,60,386,297
109,81,167,71,46,59,343,278
110,82,157,94,51,59,362,295
107,85,146,96,48,56,326,280
102,97,160,96,46,56,295,308
107,98,164,105,49,60,321,342
105,99,152,102,52,62,329,358
110,102,147,93,55,66,317,331
111,100,178,98,60,63,325,354
131,88,149,96,64,74,355,326
130,93,148,96,64,79,339,296
131,93,144,100,59,78,320,263
124,80,163,92,51,74,293,269
116,72,145,83,45,77,341,244
107,74,171,116,52,74,355,252
122,61,160,114,50,67,373,257
121,64,164,109,54,67,373,271
128,72,146,106,61,79,488,412
133,82,159,113,66,75,457,405
133,88,141,76,58,68,412,396
119,87,151,71,57,67,370,388
123,83,156,75,54,61,368,384
148,84,211,88,48,44,243,269
149,82,198,84,46,48,239,283
142,72,197,84,47,49,232,276
145,77,193,80,45,47,243,279
146,82,187,92,47,51,257,273
144,78,123,87,48,50,207,221
153,72,120,84,48,60,206,197
146,75,141,87,45,61,215,201
146,68,155,96,49,64,209,190
141,64,161,85,45,65,213,202
112,66,154,81,45,70,213,209
96,64,159,82,40,58,192,208
107,59,140,81,40,60,177,205
102,63,132,73,41,55,177,188
107,60,129,71,40,53,150,178
107,56,131,93,40,50,149,163
104,60,145,98,42,53,140,181
109,68,143,95,41,53,152,165
118,68,147,97,45,71,149,197
139,70,148,94,45,69,144,186
145,71,153,82,48,69,141,190
146,80,174,79,53,69,180,184
137,74,178,84,57,66,179,218
127,69,170,84,53,48,163,190
95,71,191,91,54,47,175,201
79,65,190,82,53,56,180,197
90,55,172,77,46,52,147,180
87,57,165,74,43,49,161,172
97,67,172,73,44,47,190,238
99,63,155,67,45,54,179,231
122,69,155,67,40,42,183,246
115,69,137,70,44,56,271,293
120,73,147,75,43,58,262,278
110,69,151,75,41,60,261,234
110,70,147,77,39,55,262,225
90,66,144,75,39,56,262,207
89,71,151,86,39,48,223,199
84,68,142,81,43,57,245,227
116,71,137,80,42,57,231,232
128,72,129,77,42,55,233,237
128,79,134,88,43,59,242,253
128,83,128,74,40,55,196,215
135,79,128,73,40,46,165,183
110,75,112,71,44,46,169,165
99,74,129,72,42,47,177,166
121,89,185,71,45,51,195,170
131,85,185,69,46,53,200,208
137,86,188,71,45,52,202,208
136,87,187,71,44,53,200,221
131,86,189,72,45,53,194,221
113,70,145,79,39,43,224,243
102,66,164,83,40,43,221,208
83,78,168,87,42,46,262,236
94,81,170,88,44,51,293,273
101,85,169,107,46,51,296,281
98,80,162,98,46,56,265,269
104,78,137,93,44,57,274,285
116,71,135,94,44,56,235,277
110,70,136,94,45,57,206,252
106,69,123,72,49,63,218,245
104,71,120,72,52,62,209,225
106,71,129,74,54,62,210,209
92,70,121,76,52,63,206,193
98,72,128,95,49,60,197,180
102,72,186,98,48,55,175,184
100,75,178,95,44,50,192,196
107,80,176,97,41,50,174,195
119,74,188,100,40,49,196,238
117,71,190,81,40,51,229,251
128,76,147,74,36,60,242,259
128,72,155,78,40,64,225,253
113,66,178,83,44,63,233,249
101,78,211,78,49,71,226,205
108,79,258,88,49,72,190,171
90,75,250,92,50,62,191,160
101,81,253,93,50,65,188,150
107,88,250,88,50,67,198,178
103,86,217,94,53,59,204,195
110,87,176,84,53,54,197,187
110,96,180,78,54,56,183,184
100,100,183,77,56,51,190,203
119,129,171,86,55,49,169,177
135,140,185,75,49,45,170,196
123,145,163,77,47,47,176,207
125,143,168,81,43,54,174,201
138,148,180,86,36,53,172,179
114,122,203,79,34,55,173,179
99,112,227,87,35,53,143,142
110,108,231,84,39,58,160,148
121,116,226,88,42,56,160,166
110,104,229,85,45,57,152,167
114,111,213,87,45,55,164,167
116,116,188,81,45,55,222,209
108,118,193,81,43,48,212,200
102,113,194,77,41,41,207,186
104,112,185,77,44,41,208,184
107,105,180,69,46,40,195,191
132,108,200,74,49,44,124,139
127,105,190,78,50,45,127,127
122,104,186,72,49,46,137,129
125,109,179,65,44,48,151,150
126,112,184,68,43,49,160,138
121,106,138,58,37,46,160,132
128,116,147,61,36,43,156,157
131,118,147,69,35,44,181,191
137,126,143,69,34,38,160,171
135,124,116,65,34,36,157,173
119,118,137,70,38,40,173,214
114,106,124,59,36,40,172,196
114,98,124,53,37,37,144,166
134,87,120,49,36,38,180,228
140,90,122,51,36,43,184,234
138,90,108,55,32,36,182,199
138,106,115,57,32,37,180,257
137,103,133,60,36,38,177,260
123,99,137,61,35,37,152,231
121,97,137,59,35,35,177,236
119,102,138,50,36,41,172,240
132,114,139,49,35,41,172,198
129,118,137,49,32,40,175,199
121,129,142,50,33,41,188,191
142,146,150,50,28,38,170,204
181,165,166,53,32,38,163,200
178,161,163,58,39,39,163,176
199,160,152,55,40,38,168,168
200,159,145,54,41,39,159,163
194,159,140,55,44,38,164,154
174,144,137,51,45,39,192,188
190,131,134,45,43,37,197,205
183,135,134,41,43,40,203,204
179,137,133,53,44,40,193,196
167,119,131,53,44,39,172,177
152,118,116,60,42,34,138,134
131,122,112,67,40,40,192,151
142,131,133,77,39,36,182,168
144,126,127,76,37,38,193,164
152,134,121,76,36,39,192,161
161,136,119,77,34,39,195,166
164,143,121,74,36,34,154,192
140,128,103,71,35,38,151,189
176,139,112,69,35,33,144,193
192,140,123,74,48,42,161,197
271,204,134,81,54,42,159,205
270,200,144,80,60,44,143,159
295,220,145,83,63,44,144,144
281,220,143,80,63,49,162,149
268,215,145,77,58,43,162,177
210,172,136,68,54,48,164,162
221,179,136,70,46,47,165,164
196,155,131,65,41,46,170,181
191,150,125,63,42,43,190,213
194,152,114,65,40,41,181,198
165,126,107,61,38,36,182,213
145,125,93,66,41,32,180,240
140,130,90,61,40,31,201,243
130,116,92,67,41,36,164,211
119,111,95,69,40,35,164,205
109,109,129,74,38,34,159,198
127,88,129,65,39,37,162,167
116,77,132,67,40,37,131,141
122,77,130,63,39,35,151,162
127,81,140,58,40,34,153,169
133,77,105,48,38,36,156,162
122,83,119,49,35,34,154,144
135,84,134,54,40,37,173,183
127,97,142,55,39,33,159,172
121,90,134,55,37,33,154,165
115,94,138,57,37,32,159,185
94,85,126,60,38,34,187,243
81,83,121,61,33,31,171,229
87,64,117,59,33,32,173,222
85,80,146,60,33,32,169,222
85,78,166,62,36,34,172,238
102,87,179,61,34,31,154,191
95,94,171,57,33,34,158,180
94,105,178,57,32,33,147,181
99,96,150,54,34,34,157,194
117,102,123,53,37,36,165,162
107,97,108,51,38,36,145,149
110,100,111,45,37,32,154,162
113,97,111,47,41,39,173,190
129,108,114,50,42,40,198,233
116,103,127,53,37,37,181,226
122,100,116,51,36,40,187,231
126,90,112,50,40,43,192,259
123,79,95,50,37,39,185,243
103,76,93,54,36,36,158,193
98,81,74,45,35,37,161,196
122,87,115,52,40,41,182,260
117,91,115,53,36,37,166,222
118,95,119,49,33,36,155,214
123,86,115,43,30,37,158,216
126,87,119,49,31,37,167,241
94,77,86,46,23,31,144,169
89,77,100,49,24,32,138,163
80,71,96,49,26,32,154,171
84,72,105,51,32,32,149,185
90,69,105,46,32,33,145,159
88,68,101,45,33,34,154,164
88,63,86,46,37,38,158,175
87,62,77,47,35,37,156,182
69,57,68,45,31,38,156,169
61,56,65,47,29,41,183,189
65,66,74,46,30,39,168,177
85,67,75,42,26,36,163,193
101,73,84,43,26,36,156,180
109,77,89,44,27,34,172,179
106,73,92,42,30,31,151,156
110,68,90,53,29,29,151,159
107,69,91,60,33,28,147,137
110,63,89,60,37,33,203,185
120,62,91,63,37,32,186,176
131,65,85,64,34,27,173,165
128,70,97,64,36,29,185,186
121,70,90,58,31,32,207,181
106,70,102,61,32,29,164,135
105,65,97,57,34,29,177,152
94,62,97,57,34,30,193,168
97,58,83,48,34,31,189,154
99,59,97,53,34,28,178,166
109,65,88,55,35,30,167,171
102,66,85,58,32,30,161,179
108,62,91,59,35,29,140,164
102,57,104,60,35,28,134,160
100,58,95,55,37,34,118,147
86,52,98,50,33,31,124,145
74,61,107,54,32,31,121,116
87,64,105,53,31,34,134,128
91,65,93,53,32,34,148,142
93,65,94,59,32,27,162,143
109,68,87,61,38,32,180,186
116,62,101,56,40,34,172,185
95,71,109,58,42,33,166,183
89,74,112,58,41,35,198,191
85,72,116,51,40,36,187,188
69,83,117,47,37,33,170,157
115,87,97,47,34,32,175,161
119,79,85,43,30,31,188,175
123,76,109,48,30,29,144,149
123,77,102,48,29,29,177,169
120,59,98,50,24,29,170,154
69,54,96,53,26,29,176,153
64,56,96,57,31,30,166,141
68,64,56,51,29,29,174,159
74,72,87,51,32,30,170,161
91,82,87,54,35,31,172,164
90,81,87,48,33,30,163,171
91,82,94,48,32,32,155,162
86,81,105,53,33,32,157,166
84,81,87,53,34,34,134,151
81,72,91,54,34,33,146,157
84,74,108,56,36,33,143,146
81,72,104,57,35,30,142,143
78,70,100,51,34,31,124,120
79,63,95,47,35,32,160,136
77,67,99,43,33,32,153,144
72,69,79,41,30,33,151,139
88,68,88,37,28,34,153,137
91,66,83,40,30,33,157,137
96,68,83,41,26,29,123,146
97,63,75,41,29,34,137,155
108,56,102,45,31,35,155,157
105,56,94,51,33,35,200,164
113,58,96,51,33,36,204,181
107,59,96,55,32,35,198,154
101,64,102,63,40,36,185,128
91,64,77,59,38,34,177,133
87,67,77,56,37,33,133,156
75,64,76,55,35,32,115,136
75,59,76,50,36,32,116,138
78,53,69,37,22,25,112,135
81,56,68,36,27,33,145,161
76,57,62,29,30,33,137,133
76,55,54,29,29,33,138,129
79,54,59,34,30,34,151,131
78,56,61,36,31,33,147,130
100,63,76,42,28,30,149,146
104,59,80,49,30,35,169,170
107,63,82,47,30,36,191,176
111,70,77,45,29,35,179,174
111,67,80,49,29,35,183,183
88,67,68,50,29,30,168,145
100,67,69,45,27,26,192,157
103,63,68,50,31,26,173,155
98,58,89,50,37,34,175,158
99,56,83,50,38,37,175,150
103,55,91,56,38,38,190,170
88,53,89,56,37,36,143,131
88,64,89,53,35,43,167,182
84,64,73,53,30,43,197,192
76,64,68,48,28,42,192,192
70,57,55,44,26,41,165,170
91,66,51,44,29,41,164,171
101,65,61,54,30,37,171,130
109,65,58,57,35,41,175,164
112,70,77,58,35,41,191,174
111,69,79,52,35,41,192,174
94,65,83,56,36,42,193,176
95,54,77,45,38,40,175,171
92,56,84,53,32,30,165,151
93,54,72,59,33,29,152,144
93,53,72,59,33,30,153,146
96,54,78,59,34,33,186,165
79,57,82,61,32,35,183,161
75,51,76,52,31,33,155,129
77,55,72,45,31,35,152,125
77,57,73,48,32,33,143,120
71,55,68,44,29,31,129,100
63,58,65,45,29,29,153,117
71,60,63,44,29,30,179,137
63,59,68,45,28,28,185,162
58,58,70,44,27,30,215,181
62,62,67,47,27,35,239,226
63,62,69,47,29,34,237,224
51,60,70,48,28,35,219,219
49,54,70,50,29,36,221,212
50,53,68,48,31,36,196,197
43,53,77,44,29,33,159,143
47,49,84,48,27,32,147,154
48,47,81,44,27,29,149,148
49,49,82,43,27,31,160,136
46,53,84,49,27,31,160,139
45,49,73,50,25,27,146,159
33,46,67,46,25,30,131,136
54,56,75,51,26,35,148,144
62,56,70,50,25,32,139,144
68,60,77,52,25,34,143,162
70,58,79,52,29,36,172,172
71,61,78,51,29,34,177,174
60,54,71,48,29,30,169,173
56,62,82,49,37,39,204,184
51,57,72,41,36,36,201,176
54,57,73,41,34,35,183,156
58,55,67,39,34,35,190,159
66,62,70,41,33,35,200,201
66,55,55,39,26,28,173,196
68,59,51,38,26,28,192,204
68,61,49,36,26,29,189,194
64,63,50,40,29,31,188,202
54,60,50,38,29,30,186,169
71,62,50,36,29,28,171,169
78,58,52,36,30,27,149,154
79,67,69,37,30,28,164,193
86,67,68,40,28,28,160,186
94,67,74,46,30,29,139,175
84,61,80,47,29,32,130,165
81,59,83,50,32,34,173,188
80,51,69,50,30,34,159,148
84,53,69,48,32,45,158,150
79,51,62,42,31,44,167,214
75,55,53,46,30,44,195,223
75,54,48,45,27,42,164,199
98,64,57,50,31,43,164,210
87,65,62,48,28,30,158,209
87,65,64,48,29,33,167,141
87,66,67,46,32,33,146,135
94,71,73,47,31,31,135,145
69,61,80,44,30,32,163,180
82,58,77,42,30,34,168,169
88,59,76,47,30,32,150,171
88,57,72,45,28,33,151,177
77,52,79,48,29,34,190,209
86,54,70,52,28,34,168,173
76,58,75,53,27,32,167,179
73,59,77,50,29,37,192,199
73,55,83,52,28,34,185,191
85,60,80,49,29,33,154,148
90,57,76,42,28,32,151,138
89,55,77,43,29,33,157,149
96,58,77,45,29,29,143,161
101,60,76,43,29,29,139,160
96,60,70,46,31,31,131,163
82,61,73,52,31,29,149,181
83,61,76,54,31,29,150,173
73,60,73,51,28,27,134,132
84,63,77,56,29,28,170,167
76,60,76,53,26,29,188,182
75,62,78,48,29,30,171,168
74,59,78,47,28,27,164,163
79,60,82,46,29,29,186,169
91,61,89,44,31,33,169,154
95,70,101,49,32,30,157,149
95,67,109,52,30,30,157,145
96,71,103,51,32,33,183,160
100,70,106,53,32,32,185,195
73,72,100,55,29,29,176,185
73,63,91,52,31,30,171,174
77,70,90,50,29,29,180,176
85,67,90,51,26,26,179,182
81,70,85,50,25,28,158,144
86,67,90,48,27,27,158,135
98,68,106,54,26,31,154,132
99,64,100,51,26,31,151,129
94,65,110,52,29,32,120,118
103,72,114,54,30,31,121,114
117,72,109,58,30,32,121,118
111,75,90,51,31,28,121,122
109,77,103,54,30,27,130,144
111,79,102,57,27,26,146,171
102,68,100,55,33,34,157,182
87,67,99,49,31,32,157,180
81,65,106,49,32,36,169,193
80,57,90,45,34,36,165,183
96,56,92,46,35,38,161,156
93,58,110,47,29,34,142,139
89,57,113,49,33,41,198,177
89,60,113,50,31,40,196,165
102,64,130,55,30,40,186,157
79,63,129,55,30,38,178,145
84,66,111,53,33,39,256,237
81,84,129,52,31,36,217,222
77,79,123,50,31,35,216,223
61,80,103,48,32,35,216,222
63,84,101,49,32,34,212,221
57,79,105,49,31,37,128,154
58,56,79,50,30,33,131,148
73,57,80,51,31,35,122,147
76,52,80,55,32,36,126,150
78,44,72,52,32,37,154,156
75,41,63,53,29,32,139,124
87,47,60,53,28,30,139,115
90,50,64,53,28,27,142,122
91,58,69,53,26,30,138,124
90,63,67,51,24,29,103,114
97,67,72,53,26,30,124,121
87,63,72,49,25,30,121,133
97,64,76,49,28,34,134,138
100,64,76,43,28,31,142,141
105,59,75,46,31,33,165,164
105,58,76,41,28,30,153,171
108,63,76,43,29,32,175,173
91,57,69,41,27,28,164,162
93,57,77,44,29,29,159,160
89,62,76,39,26,27,148,147
98,63,79,50,29,28,144,132
95,63,91,54,28,28,112,112
92,64,89,55,27,31,121,109
89,58,78,52,26,33,159,150
90,59,80,53,25,33,153,148
80,57,76,48,26,36,152,150
84,57,64,42,24,37,147,146
87,58,70,40,26,35,157,147
86,67,71,44,25,32,124,122
100,64,81,45,28,33,119,139
103,61,74,40,26,29,120,142
100,63,70,42,27,28,142,160
100,66,106,52,26,25,147,171
99,56,117,52,27,25,145,155
100,60,115,56,34,35,157,149
95,65,117,62,36,36,164,148
96,65,132,63,36,36,164,139
92,59,104,59,36,37,146,123
100,61,94,60,36,37,157,131
86,55,90,56,30,31,153,121
80,55,89,52,28,33,152,129
79,50,74,52,28,36,136,119
97,57,74,52,28,35,135,121
90,79,79,49,29,34,126,125
91,81,81,50,26,30,126,118
96,80,94,56,27,30,129,124
96,82,88,58,25,26,139,129
78,79,93,58,27,29,177,159
78,64,86,59,26,29,171,147
77,77,93,58,28,31,172,150
82,79,83,54,28,31,164,131
81,77,81,52,28,32,157,134
81,77,81,52,27,29,113,100
80,79,82,48,27,32,124,99
83,66,78,49,26,31,112,91
86,64,76,47,27,29,108,89
98,68,78,48,30,31,129,89
104,64,74,44,29,32,125,86
98,52,77,47,29,31,122,101
103,53,72,47,35,33,137,104
118,52,69,48,35,32,149,123
106,51,68,47,33,31,133,113
97,61,64,46,34,31,150,124
99,67,55,44,34,30,144,114
104,72,53,42,29,31,143,132
79,72,52,42,27,30,132,114
85,69,60,41,29,34,135,114
87,63,60,43,29,33,124,99
91,60,61,43,28,33,130,104
77,53,60,48,31,30,116,78
75,50,59,46,31,30,117,74
71,56,55,47,31,27,135,98
98,61,58,46,30,28,133,100
95,59,59,44,33,29,135,98
102,65,62,38,30,30,147,109
100,68,66,41,33,30,149,110
103,70,74,43,30,28,126,87
88,69,75,43,30,27,123,85
96,69,75,44,27,28,131,98
87,66,74,44,28,29,124,79
88,65,72,44,26,27,135,81
85,65,66,40,26,28,129,79
78,64,65,39,27,27,125,76
70,62,65,37,25,23,116,52
68,59,69,37,25,22,127,71
70,61,68,34,25,26,143,100
71,56,60,33,25,26,164,106
69,55,65,34,25,28,168,110
64,53,67,38,24,28,160,106
67,52,63,44,23,29,154,105
73,46,59,46,25,28,139,88
70,46,66,46,24,28,145,102
78,51,60,49,24,27,146,106
83,53,59,49,25,29,154,111
94,56,63,45,26,28,149,120
97,58,62,44,25,26,140,116
100,56,53,47,27,30,119,102
94,60,57,42,26,29,119,111
90,60,62,39,27,29,113,111
86,64,61,37,26,30,109,94
78,68,70,36,24,31,120,90
74,80,75,31,24,31,129,88
76,76,77,35,26,31,126,68
76,85,75,43,25,29,123,59
61,82,73,51,26,27,114,53
64,84,71,62,28,27,164,87
76,72,71,64,28,28,153,90
81,74,74,63,28,29,158,113
107,65,68,58,28,31,168,120
111,61,70,54,30,30,171,123
107,56,65,44,30,29,128,104
99,55,64,42,31,24,134,102
95,62,62,46,30,24,133,81
78,60,66,48,30,23,126,87
83,65,68,46,29,24,141,91
87,65,71,48,29,25,122,85
86,68,70,50,28,27,126,85
86,62,66,47,28,27,115,80
83,62,64,46,28,30,111,65
91,64,81,45,28,31,100,62
97,62,80,44,27,32,125,102
96,57,80,42,26,31,130,101
98,57,79,38,25,32,147,105
100,59,88,39,24,31,147,103
87,55,75,41,25,32,149,103
76,56,71,37,24,35,144,89
87,59,71,38,24,36,140,95
80,54,71,39,25,34,125,92
97,57,61,38,27,32,154,108
101,57,53,37,25,31,148,108
109,59,55,46,27,22,133,93
108,60,53,46,27,21,132,90
118,61,54,46,31,35,169,107
103,56,54,46,30,35,142,95
104,53,54,44,30,36,146,95
97,52,60,40,28,38,146,94
110,50,71,41,28,39,137,91
103,51,70,42,25,27,107,72
104,49,69,44,24,29,120,93
114,56,72,45,25,27,126,88
124,55,68,45,27,28,176,98
107,62,57,44,28,27,175,98
107,60,62,43,28,26,165,96
101,63,63,42,29,26,158,86
91,67,62,43,30,28,165,95
76,71,68,43,33,32,140,92
75,65,73,42,33,32,144,92
75,70,76,47,32,32,141,94
77,69,77,45,32,31,135,82
66,60,79,45,32,29,133,96
83,60,72,48,31,24,111,87
93,65,78,49,30,25,129,115
101,66,66,46,33,27,148,121
99,67,65,49,34,28,152,123
108,68,63,47,33,29,141,105
103,63,65,41,31,30,148,107
92,60,55,44,32,28,143,87
88,55,57,42,29,26,159,92
95,58,66,39,28,26,161,90
88,56,69,40,29,24,153,88
83,52,68,38,28,23,146,98
82,57,63,33,27,27,135,89
79,58,66,33,27,30,101,72
83,58,62,39,27,30,108,92
81,60,62,41,26,30,111,97
78,63,64,41,30,29,117,84
83,61,65,44,30,30,168,111
89,73,71,43,30,27,174,114
80,72,69,42,27,25,169,121
82,72,67,39,29,27,174,120
85,72,73,43,26,27,179,121
95,68,73,41,25,24,132,99
96,57,64,39,23,27,132,106
91,60,67,38,23,27,129,85
98,64,74,43,22,26,151,96
140,75,68,39,24,27,152,94
133,78,73,42,28,27,155,93
130,76,76,41,28,24,147,80
137,73,77,40,29,29,154,76
140,66,67,38,30,31,137,65
97,73,83,45,28,32,132,88
93,70,79,44,24,32,136,89
94,69,76,45,26,33,135,90
87,69,84,44,28,30,155,126
69,72,88,50,28,27,148,125
77,64,73,44,28,24,134,110
89,72,87,42,30,29,155,115
111,73,87,45,30,28,152,121
110,77,77,48,29,27,131,93
107,78,74,41,29,29,129,92
113,70,72,45,28,27,128,94
127,68,58,47,27,25,97,93
118,70,65,48,28,26,129,97
118,64,62,47,29,26,131,102
119,61,68,48,27,25,130,98
108,60,72,44,27,27,127,94
95,50,74,47,28,25,124,89
90,46,71,48,29,25,103,86
90,51,72,49,27,25,136,90
92,50,72,50,27,24,140,90
100,55,73,54,26,25,141,92
92,56,70,52,23,25,143,96
97,56,69,47,23,25,156,96
97,57,76,46,26,25,123,89
104,62,77,42,28,26,136,104
99,61,77,46,29,25,137,107
97,60,76,44,30,24,136,102
91,58,82,43,31,24,118,98
91,55,75,45,33,27,134,104
86,51,69,46,30,29,128,94
84,47,67,40,32,29,131,92
86,45,73,42,30,31,136,96
81,51,90,44,27,30,129,97
85,57,87,39,23,26,111,97
86,62,85,39,24,25,106,96
93,61,87,38,21,23,114,97
86,71,85,41,22,22,106,90
85,71,58,40,24,23,104,87
96,73,63,49,27,24,124,70
91,73,65,51,29,24,126,95
85,75,60,49,29,25,177,99
100,71,56,50,30,30,184,104
109,68,67,54,32,29,191,104
99,61,71,52,30,28,181,103
96,57,69,53,27,27,176,76
93,59,70,56,28,30,114,69
89,55,71,51,29,27,94,62
79,55,69,47,27,33,148,105
74,55,63,40,27,33,144,107
83,51,64,38,28,36,179,121
92,53,73,37,28,36,188,120
90,59,72,37,28,36,192,124
97,56,64,37,28,31,148,89
98,58,64,41,29,31,144,86
101,67,74,40,31,28,96,68
101,68,61,36,30,29,90,66
91,61,60,40,29,29,120,101
90,61,68,41,29,28,118,102
95,59,70,44,29,28,118,99
88,53,62,46,28,26,116,98
86,50,62,48,30,26,118,101
95,51,67,51,31,29,141,91
99,50,58,51,30,31,145,107
109,53,67,49,31,31,153,111
117,56,65,48,30,31,158,115
115,53,65,51,29,30,159,116
111,60,63,45,26,28,118,102
104,62,65,43,28,30,115,83
87,60,59,40,27,29,102,74
73,58,76,41,27,32,114,86
75,61,85,37,26,32,113,90
73,56,85,39,27,30,104,83
74,59,87,42,25,26,105,85
82,68,85,45,24,27,116,92
103,66,73,45,25,23,94,91
100,62,71,47,27,25,86,83
95,63,73,48,27,25,106,87
92,64,78,48,30,30,136,102
119,57,86,45,31,30,137,100
105,57,88,49,31,30,144,95
116,58,81,51,31,29,156,106
122,57,77,51,29,27,148,103
131,52,70,49,27,22,121,90
109,50,58,49,25,24,116,103
111,56,66,50,26,27,131,102
98,53,72,45,26,28,127,90
89,53,71,41,25,29,134,95
96,58,70,44,28,30,132,92
84,58,69,43,30,31,165,98
78,58,57,39,32,32,196,132
80,60,52,38,31,31,198,141
83,62,60,40,33,31,194,136
69,60,69,43,29,32,195,137
70,59,67,45,28,29,181,140
76,52,66,43,28,29,150,115
81,56,65,44,26,29,134,111
81,58,61,44,26,27,129,110
85,57,53,37,27,29,141,120
91,66,61,38,29,30,131,103
91,66,63,38,27,29,106,91
87,65,63,40,29,29,103,83
92,59,64,38,29,31,111,86
99,59,60,38,29,30,102,71
95,49,70,35,28,30,104,98
92,47,67,36,28,28,108,100
102,43,73,35,27,29,112,98
107,48,71,40,30,27,133,112
94,49,75,39,29,28,130,119
99,50,57,44,28,25,121,91
101,50,58,43,29,25,127,103
99,52,54,45,29,24,127,104
96,48,64,44,26,28,125,110
90,47,67,52,27,31,123,107
93,50,66,50,26,32,124,108
92,52,78,52,24,32,111,93
86,52,76,53,23,32,125,100
80,54,76,52,23,31,117,77
87,51,71,44,22,29,120,89
92,50,75,43,25,26,116,87
94,50,62,41,26,26,114,90
95,54,59,38,28,29,122,89
105,49,60,39,28,30,130,90
106,52,62,42,28,33,129,82
99,49,61,41,27,35,136,84
104,49,63,44,28,36,141,85
112,46,63,48,27,34,121,81
104,47,49,46,27,31,98,76
101,46,48,43,27,25,140,92
102,47,49,46,31,32,155,120
100,53,52,48,30,32,163,127
92,58,52,48,32,32,167,128
92,66,63,52,32,31,170,131
96,65,62,55,33,32,144,117
91,72,67,55,28,28,125,91
82,66,64,53,29,26,119,84
81,61,67,49,27,25,141,98
91,52,68,49,25,27,157,110
89,50,68,46,25,26,151,108
86,46,63,45,26,24,151,103
95,51,66,46,26,25,151,103
93,51,66,44,26,31,179,103
77,55,55,39,27,30,161,88
76,57,56,40,26,31,160,86
81,54,55,36,26,31,163,88
73,54,54,32,25,31,161,90
70,55,51,34,24,28,147,116
77,55,48,34,24,26,149,118
76,64,53,36,25,26,145,117
72,69,55,37,24,25,142,119
79,70,62,42,24,24,150,121
86,70,78,44,24,24,110,77
87,69,79,45,25,25,114,83
89,68,73,41,25,25,116,83
89,64,78,41,27,25,112,77
85,61,73,36,27,27,100,66
83,58,63,39,27,29,106,79
82,56,65,41,28,30,114,95
79,49,66,47,28,31,113,103
79,43,68,46,27,30,117,110
102,42,72,48,30,30,120,122
99,42,72,45,29,27,108,115
92,44,71,41,28,25,94,94
98,44,74,43,29,25,97,88
110,46,70,43,28,28,114,84
92,45,64,45,25,27,126,79
92,50,65,51,27,25,129,80
96,46,66,53,28,24,127,77
89,45,69,47,27,24,132,78
87,51,66,49,29,24,127,81
85,59,65,46,27,25,123,84
89,63,61,42,26,28,134,101
96,66,60,43,25,29,148,106
95,68,56,47,27,29,144,109
83,64,57,48,26,28,132,102
83,58,56,49,27,28,126,96
92,51,54,47,27,26,111,111
85,49,59,47,29,31,110,112
88,50,58,43,28,31,108,106
88,54,61,43,28,33,114,109
90,67,72,46,31,38,124,122
80,74,73,46,30,36,133,96
79,75,73,47,26,32,120,91
87,82,71,47,29,34,132,105
84,81,68,47,28,32,139,107
88,71,67,41,26,27,129,92
84,64,70,40,26,27,124,98
89,63,67,36,27,27,122,99
79,47,67,35,25,23,108,84
90,44,65,33,25,22,99,83
86,44,61,39,24,22,105,79
89,42,61,42,25,27,101,95
91,45,63,43,24,27,106,92
92,54,69,43,24,29,127,113
91,54,76,46,26,30,122,119
93,60,71,44,27,30,126,125
92,59,65,42,26,27,128,104
86,62,72,41,28,29,141,114
91,61,71,41,26,27,123,96
82,59,68,39,24,27,137,93
75,52,67,37,25,27,123,86
70,56,66,35,26,27,125,94
74,55,58,38,28,28,108,85
73,56,51,33,28,29,108,84
75,63,59,40,30,29,86,80
76,65,64,44,31,28,94,76
75,63,70,49,32,27,99,95
79,59,70,51,29,25,102,101
72,59,70,51,29,25,107,101
71,51,66,45,29,27,132,103
72,52,68,38,26,27,130,104
83,56,66,36,23,27,118,77
75,59,71,37,25,27,121,84
74,58,73,42,24,28,138,96
80,58,68,43,24,28,128,99
80,56,62,47,26,27,123,101
81,50,60,45,27,28,127,109
82,53,58,40,25,27,117,95
81,50,57,38,24,27,126,95
77,52,70,42,25,35,135,92
81,51,72,42,23,35,137,90
70,52,80,47,22,35,137,93
75,52,82,50,23,36,138,91
81,59,81,48,24,35,108,77
94,58,70,44,25,30,123,85
89,62,68,42,27,33,140,88
92,62,61,39,28,32,137,81
85,59,57,41,29,33,160,95
89,58,63,44,31,34,190,118
88,58,61,47,28,29,167,109
91,54,61,45,29,28,150,104
88,56,61,43,29,29,151,100
90,53,54,37,27,28,142,92
100,51,66,41,27,28,106,77
96,53,79,45,29,28,100,77
91,53,77,43,27,27,102,78
95,51,77,44,27,26,126,86
106,55,80,44,28,24,111,84
91,57,70,40,26,25,108,95
89,60,61,37,25,26,127,103
92,62,63,43,25,25,133,107
129,62,70,46,25,28,124,132
119,62,69,48,25,29,122,131
124,58,67,47,25,29,132,125
131,54,65,43,26,29,120,121
131,59,65,41,26,30,111,117
92,62,59,39,26,29,115,107
90,61,59,39,25,29,117,110
86,61,58,40,25,30,131,110
69,60,56,43,24,28,129,115
79,53,59,40,24,28,135,118
80,57,62,41,24,28,136,109
86,61,74,41,24,26,133,111
91,69,78,41,22,23,111,102
93,70,79,40,24,26,137,106
96,71,76,45,27,34,176,109
96,63,73,43,27,32,168,102
92,60,65,40,27,34,168,98
85,59,62,42,27,35,165,92
86,62,65,47,26,33,147,75
91,62,66,42,28,26,117,80
88,67,74,48,28,30,116,90
90,64,73,49,28,29,115,86
91,54,75,48,29,29,119,90
93,58,78,44,30,32,130,99
73,52,79,47,27,32,120,93
78,55,74,44,28,27,121,78
87,59,68,47,31,31,142,103
93,59,64,46,30,30,141,101
91,53,61,46,29,27,131,98
101,60,66,48,28,26,117,92
98,53,75,45,27,26,111,87
93,54,80,44,24,23,97,69
87,57,86,44,28,26,95,76
85,67,84,48,29,25,87,69
80,61,82,49,29,27,102,70
94,65,72,49,29,28,106,73
94,67,66,47,31,30,113,83
94,69,61,48,29,32,126,97
95,67,61,45,28,32,126,98
100,73,59,38,29,31,130,97
89,70,57,37,31,31,138,103
88,66,58,39,31,30,136,137
87,62,56,37,30,27,125,130
87,53,55,37,31,27,141,134
77,44,50,34,30,28,138,135
80,47,49,34,29,30,128,132
74,50,54,35,26,28,115,81
76,51,60,43,26,31,122,95
79,53,59,45,26,31,113,91
80,54,65,48,28,30,116,99
82,52,70,49,28,28,113,97
84,53,68,51,28,27,114,94
85,55,63,45,28,25,105,71
83,53,63,44,27,25,135,112
90,59,63,44,26,26,135,116
81,59,59,46,26,26,134,121
80,57,61,51,27,26,138,123
95,54,65,49,27,27,138,123
93,59,67,49,27,27,101,84
96,51,66,50,28,29,102,74
99,53,60,49,29,29,108,84
100,51,55,40,29,29,114,82
95,56,48,45,30,27,111,79
92,57,59,46,31,33,120,78
116,63,66,51,30,30,144,90
118,65,70,51,31,32,141,76
120,68,73,55,29,33,130,87
111,65,71,53,29,33,142,95
121,62,61,49,28,30,138,97
96,58,55,41,25,31,99,82
89,60,54,42,26,27,106,93
98,58,52,39,25,28,114,80
95,60,53,39,25,28,98,74
93,70,59,39,25,24,101,75
97,71,58,38,25,23,105,74
100,69,60,38,25,25,115,60
92,67,58,38,26,28,109,59
94,64,59,43,28,27,122,87
103,53,54,43,29,29,127,99
97,56,61,51,30,30,125,102
96,57,60,50,30,30,127,110
91,58,63,49,29,27,130,113
98,60,65,45,28,30,132,122
80,61,74,51,28,31,128,112
88,55,74,51,29,32,130,115
88,54,73,53,29,30,118,111
92,60,72,52,28,28,120,111
85,65,78,58,30,26,108,86
89,61,70,55,29,25,115,88
83,69,74,51,28,25,118,85
89,71,72,47,26,26,120,83
85,67,70,48,28,27,114,78
82,65,66,45,26,26,111,72
93,70,64,41,28,27,97,82
89,67,57,46,29,27,120,115
89,64,61,52,31,31,133,120
94,62,61,53,29,31,143,126
107,65,60,57,31,29,144,131
95,60,66,64,31,27,155,130
99,58,65,63,31,25,148,108
107,57,63,59,30,22,135,107
107,56,68,65,32,27,129,101
96,50,69,58,30,29,145,103
103,50,69,52,29,28,132,94
105,50,61,47,28,30,121,89
96,55,75,50,28,34,132,97
94,59,70,45,30,32,136,113
102,60,68,48,33,32,118,109
95,59,65,50,34,33,131,111
85,59,65,49,34,36,132,110
94,58,57,47,33,31,125,108
90,60,57,45,30,29,119,92
82,64,58,42,26,29,118,93
92,65,64,45,26,27,101,91
101,62,70,43,25,25,99,87
95,63,66,49,27,23,105,77
97,61,71,51,28,28,120,89
97,57,66,49,27,27,138,87
88,56,60,45,26,32,150,94
84,57,58,49,27,30,146,94
91,57,57,49,28,34,139,93
96,57,48,45,27,31,128,101
99,65,54,49,29,32,109,99
99,65,56,50,28,30,130,98
105,66,51,46,28,31,144,111
91,62,54,45,25,28,138,113
87,59,56,45,24,27,139,92
88,49,51,45,24,27,162,127
90,62,55,46,26,30,147,128
82,67,58,47,27,30,138,121
89,74,52,46,27,31,134,118
88,75,54,48,29,31,139,123
85,74,59,45,29,32,124,87
82,70,69,39,26,29,108,87
87,67,69,43,26,28,104,89
100,59,70,41,28,30,129,99
100,57,68,42,28,31,126,98
105,59,63,44,27,28,121,103
105,58,62,48,28,28,118,94
106,61,67,44,27,29,123,89
90,58,69,42,26,30,118,81
92,58,69,37,25,27,120,86
85,57,75,38,28,33,115,82
99,49,61,33,26,31,119,86
92,44,57,37,27,32,125,87
98,57,54,41,26,30,117,89
102,62,53,44,28,32,110,83
106,68,54,44,26,28,107,76
97,69,54,44,27,28,106,73
102,74,55,46,26,26,95,66
99,66,56,42,26,27,109,90
91,62,59,44,25,24,108,94
90,56,56,42,24,21,106,95
84,54,57,43,24,23,113,96
84,49,52,37,24,24,140,110
89,48,52,38,27,22,128,99
91,52,51,33,26,23,132,102
86,51,52,33,27,23,132,100
96,57,60,35,27,22,134,106
109,61,64,36,30,29,146,112
112,60,65,38,29,30,161,121
116,56,67,53,29,31,154,112
127,56,62,53,30,32,164,118
121,50,56,52,32,32,171,132
106,44,57,56,31,30,139,118
116,44,55,56,32,30,154,125
111,46,52,44,32,28,156,125
103,51,54,44,31,29,156,125
105,56,50,46,27,29,142,104
104,54,45,46,26,24,144,104
84,58,55,47,25,21,98,66
98,61,73,58,27,22,137,112
99,60,72,57,26,21,137,110
94,56,72,58,27,24,147,119
92,58,72,54,30,24,140,116
110,60,67,55,30,27,159,120
99,57,52,46,30,30,146,82
93,56,53,44,33,32,160,100
91,57,61,41,33,31,157,109
92,54,60,40,32,34,160,113
93,54,59,35,30,31,151,112
91,55,53,34,29,29,145,115
89,53,60,36,26,31,124,107
89,55,52,33,24,33,118,96
105,66,54,40,25,31,114,92
92,61,59,43,26,31,100,89
97,58,64,45,24,31,82,85
99,60,60,45,27,27,85,77
108,61,58,46,28,24,77,64
102,54,57,41,26,24,94,72
99,59,65,42,28,25,96,66
91,58,67,41,32,25,103,106
94,56,71,51,30,23,94,104
92,49,74,53,31,23,97,104
103,51,76,53,31,24,83,100
102,43,73,51,30,24,82,102
110,46,70,49,27,25,73,60
112,63,62,37,25,25,109,74
105,64,66,41,26,28,135,95
84,58,66,41,25,28,135,97
83,60,58,38,24,26,137,97
73,60,58,43,24,23,138,98
70,44,59,44,26,28,111,88
79,47,55,40,23,26,111,80
85,54,60,51,25,29,118,96
81,55,64,52,26,29,120,96
90,52,57,51,28,32,122,92
89,64,61,51,28,28,139,98
92,63,64,50,27,26,118,89
85,61,57,40,26,23,106,66
86,62,64,45,26,22,106,68
84,69,73,47,22,22,111,88
96,69,73,53,25,26,108,97
87,67,71,53,26,26,107,96
98,70,79,54,25,25,108,100
96,66,73,53,24,30,113,106
104,63,69,54,26,29,107,113
93,53,68,49,22,28,105,110
95,54,81,49,23,29,104,111
90,48,71,46,25,29,114,113
107,49,73,45,26,26,116,114
104,44,69,39,27,26,118,96
103,51,68,38,28,25,129,127
107,49,47,34,28,27,134,126
106,55,57,37,26,27,129,125
96,54,52,32,26,28,124,119
82,58,54,35,27,29,128,116
91,54,56,37,27,28,117,82
104,58,65,40,31,30,142,128
103,58,64,39,32,31,174,140
109,59,63,41,32,29,168,140
112,57,63,42,30,29,161,141
109,55,65,42,32,30,150,130
92,50,57,42,31,30,151,114
92,49,56,46,30,29,114,99
84,48,67,51,29,29,112,96
96,49,67,49,29,28,111,94
92,54,64,46,27,26,109,95
100,63,62,46,24,25,136,98
109,61,67,40,25,28,142,103
114,64,60,36,26,30,148,105
101,65,61,35,26,30,155,108
97,60,62,37,27,33,181,121
94,54,63,36,29,34,145,99
98,56,58,37,28,31,134,99
96,60,52,35,28,31,134,99
97,54,54,35,28,32,137,98
100,54,59,42,28,30,110,85
104,59,65,47,26,25,106,79
92,57,64,48,25,25,108,68
82,51,70,51,24,23,104,66
81,53,70,55,25,26,90,67
90,56,64,50,25,26,102,77
81,46,59,44,24,28,117,101
79,44,58,41,24,28,123,104
82,47,60,36,25,31,124,106
82,51,69,32,25,28,123,103
71,53,72,33,25,33,121,100
74,64,73,36,27,34,111,95
73,63,72,35,27,34,115,94
77,63,69,39,26,32,111,93
88,63,61,45,26,31,110,95
90,58,56,44,28,27,124,92
87,47,59,45,28,22,109,66
92,48,58,46,29,22,106,72
93,51,58,45,30,23,108,82
83,48,57,38,28,23,119,81
81,46,59,39,27,24,110,81
79,46,56,37,25,23,118,87
77,47,57,36,25,24,111,76
78,42,57,36,25,26,137,69
83,44,55,39,27,29,133,67
89,48,53,38,27,29,140,81
89,51,51,37,27,31,138,76
88,47,54,42,28,30,138,77
97,59,52,39,26,28,115,75
99,65,54,41,27,28,118,83
99,65,56,43,26,27,115,95
108,69,58,47,30,31,126,108
105,71,57,45,28,31,127,108
103,70,61,47,28,32,128,108
100,63,56,44,29,32,127,105
99,63,56,42,31,33,162,92
87,58,60,41,28,29,152,94
96,65,60,41,31,31,157,98
83,54,57,39,32,30,158,95
84,56,75,40,28,26,153,95
80,63,79,41,28,27,116,89
81,66,74,43,29,29,137,94
73,60,75,41,28,28,138,93
85,71,77,42,26,30,137,97
85,69,62,40,29,32,162,117
90,63,54,39,28,31,146,115
91,62,61,36,23,28,121,97
114,71,62,40,26,26,111,101
105,62,57,42,27,26,110,95
112,62,55,43,27,25,102,78
107,61,56,42,26,25,100,74
109,57,50,42,27,27,109,78
84,45,40,41,26,24,118,80
87,49,45,38,27,24,137,89
78,50,44,39,27,22,117,77
77,56,55,44,26,23,115,77
77,54,61,41,27,25,123,78
74,53,63,39,26,26,124,70
94,52,63,41,27,26,114,81
95,48,63,36,25,26,113,82
102,45,58,35,26,28,124,88
99,53,53,39,27,26,110,85
103,51,51,41,27,25,104,88
86,48,50,47,25,24,88,67
98,53,52,48,25,28,91,72
91,51,48,46,25,25,133,110
99,41,46,42,24,27,138,108
101,45,53,44,24,28,141,109
111,57,66,42,24,28,141,111
102,53,65,43,25,25,143,111
104,52,68,45,28,28,102,72
99,54,68,46,30,27,108,92
106,55,70,43,29,26,100,93
92,43,71,42,29,26,94,90
87,44,75,42,28,28,98,90
86,45,71,40,24,24,102,89
88,52,74,42,23,29,100,74
89,52,72,45,25,30,116,77
83,55,62,45,24,30,118,78
91,65,56,49,25,30,108,73
103,66,63,51,26,32,111,74
106,60,59,48,27,31,106,95
92,64,56,44,25,30,95,91
94,69,49,47,26,30,94,91
94,63,52,49,25,30,104,94
82,68,48,49,26,29,114,93
84,74,56,50,25,28,106,70
91,70,55,52,25,28,102,68
102,63,57,46,24,29,109,74
98,62,60,42,24,28,98,72
108,56,63,43,25,26,98,75
105,48,64,44,24,23,105,70
100,48,66,43,26,23,110,69
98,51,68,44,26,22,107,72
102,53,64,44,25,21,117,83
93,53,64,44,23,23,93,79
89,58,60,47,23,22,87,78
86,58,71,52,25,23,93,80
82,53,70,53,26,23,94,69
86,53,74,54,30,25,103,80
82,57,70,51,30,25,103,82
82,54,70,50,30,26,104,85
87,53,59,44,29,25,93,81
99,57,60,45,30,25,90,82
93,56,52,40,26,26,74,63
94,49,50,41,25,25,70,60
93,52,46,38,25,24,66,54
91,51,52,36,22,26,100,80
83,47,64,37,23,29,145,129
81,48,78,39,24,25,151,130
86,51,83,38,26,27,155,133
87,49,83,37,26,27,154,134
99,53,82,43,30,27,195,146
90,58,87,43,28,23,172,113
87,55,77,43,28,25,175,114
83,53,77,43,27,26,176,118
96,55,79,47,26,26,186,123
85,56,78,42,25,28,128,94
92,61,63,39,25,28,117,84
99,61,63,38,25,29,104,83
120,59,63,38,27,29,111,95
113,61,65,35,27,30,116,96
116,61,64,37,29,27,112,98
109,60,59,44,29,27,110,95
111,60,57,46,27,25,106,92
118,62,52,46,28,25,98,69
117,64,50,45,28,24,74,60
114,63,51,47,26,28,124,84
132,57,56,45,25,27,141,110
133,57,56,48,26,28,145,109
106,57,56,53,23,27,144,112
105,49,56,59,23,30,163,119
107,44,58,59,23,27,132,102
97,44,51,57,27,28,127,79
91,44,50,54,27,28,127,77
91,51,52,48,28,28,125,73
86,50,51,41,26,27,125,72
92,62,50,42,27,31,121,82
81,60,55,38,22,29,105,84
79,60,58,38,24,29,105,86
85,57,56,40,24,29,101,83
87,58,61,42,24,26,83,83
93,51,58,39,24,24,100,78
92,52,56,39,25,24,103,90
95,52,61,42,24,26,102,88
99,52,69,41,27,27,122,94
102,50,67,39,27,27,119,89
86,48,71,41,26,25,104,82
85,50,71,42,27,27,108,64
86,46,64,40,26,25,122,86
76,46,56,42,25,30,118,88
73,44,57,44,26,30,118,84
74,49,54,43,28,30,122,89
75,50,55,42,27,29,124,92
72,53,59,44,29,33,110,84
65,51,57,46,28,28,107,81
69,53,49,46,28,29,113,87
70,47,51,47,28,29,112,81
78,50,48,50,29,31,115,86
79,47,45,49,28,27,116,75
79,48,46,45,29,26,124,81
79,47,48,43,28,25,115,81
73,49,54,42,26,25,127,83
93,50,57,40,25,23,117,76
109,51,67,42,28,26,130,89
112,50,68,40,29,28,136,98
112,56,71,40,29,27,136,96
114,53,69,41,29,26,123,97
116,47,71,41,31,28,137,108
103,47,63,41,28,27,135,99
108,50,61,43,25,25,124,95
109,44,58,48,26,26,123,97
109,44,52,49,27,25,130,94
85,46,47,47,27,30,137,89
85,49,43,44,27,33,155,120
76,49,60,46,28,33,146,109
76,47,64,41,27,34,153,108
77,54,76,40,27,35,155,110
83,50,77,39,26,30,142,103
90,50,79,39,27,26,113,64
90,47,72,39,28,29,117,89
85,48,69,48,28,29,109,93
85,43,64,49,27,29,108,95
84,49,64,50,26,28,112,103
88,46,64,49,26,29,125,118
88,49,58,52,25,26,125,104
87,52,63,44,26,27,135,98
90,51,60,42,26,26,130,97
86,47,59,46,27,28,128,99
81,50,57,48,25,27,114,80
79,49,57,44,24,31,126,83
87,45,52,45,23,30,114,80
95,49,52,46,26,32,116,78
111,48,57,46,26,30,110,87
108,45,55,44,28,34,109,88
111,48,59,45,30,32,100,81
111,50,59,44,31,32,117,89
105,47,71,45,32,33,111,102
92,48,73,42,32,34,110,83
85,47,75,43,28,29,109,83
84,44,72,42,28,28,127,92
90,43,77,42,28,28,130,104
87,44,60,38,23,25,128,91
90,46,52,38,24,23,141,92
92,50,52,41,26,26,144,95
107,50,57,41,25,26,121,88
94,50,53,41,27,26,112,103
97,49,53,44,28,25,114,103
109,48,59,45,27,30,113,105
109,46,62,47,26,28,116,101
102,44,61,46,27,29,117,105
105,47,70,47,26,29,122,97
111,48,77,46,25,32,150,106
92,46,75,45,27,27,145,108
93,50,78,41,27,30,145,112
86,52,76,45,27,29,147,108
87,55,66,42,26,29,150,90
84,53,60,41,29,28,129,86
89,54,62,42,30,28,126,90
84,47,55,42,31,25,118,83
80,48,54,45,32,30,134,86
84,45,60,52,32,30,121,82
79,46,65,57,37,37,138,107
86,49,62,59,40,42,159,116
85,49,63,58,40,42,159,119
90,45,64,53,37,40,144,117
87,42,57,47,38,39,141,114
84,47,57,46,30,32,134,113
78,48,58,45,25,25,115,102
77,50,61,53,25,24,123,101
83,65,70,54,26,26,127,102
82,65,71,55,24,27,124,108
82,63,67,51,24,27,123,96
84,58,66,49,28,30,121,91
83,59,62,40,27,31,116,90
88,46,55,46,25,28,127,86
91,49,57,48,29,29,134,81
103,49,57,47,29,28,121,57
110,49,59,50,24,24,111,54
120,51,62,48,24,21,126,81
109,53,61,42,24,25,119,90
113,52,64,40,24,27,116,91
103,54,64,45,23,27,128,98
90,60,68,43,25,28,146,114
78,58,65,45,25,29,134,98
81,53,65,48,27,30,132,89
69,54,65,45,25,29,128,85
65,50,63,42,25,29,123,76
76,44,58,43,28,31,113,54
76,46,57,43,30,32,107,47
82,46,56,42,29,31,108,67
85,42,55,43,30,31,116,93
84,48,60,44,30,30,107,95
77,52,61,43,26,27,96,95
82,49,59,41,24,25,97,99
85,54,62,40,25,25,108,118
82,53,58,42,25,26,114,108
97,49,54,39,25,26,120,108
102,44,51,41,26,27,132,115
97,45,52,46,26,27,153,114
102,38,51,47,29,28,139,96
108,39,53,48,29,27,151,97
105,36,57,53,31,30,148,101
95,37,55,51,31,29,139,94
97,40,58,48,30,30,139,97
93,42,55,47,27,29,156,112
90,43,56,49,28,30,150,117
85,47,62,44,26,27,148,118
93,50,61,45,28,28,154,118
102,51,57,45,27,29,138,114
107,52,55,45,26,29,165,129
108,52,61,50,24,29,158,126
105,52,53,54,25,28,155,121
101,48,55,54,22,27,146,120
94,46,63,57,21,25,160,143
86,49,69,57,23,23,126,126
84,48,65,53,22,23,129,118
97,53,71,52,21,23,130,118
97,59,80,54,22,23,137,120
97,60,84,54,24,28,166,140
105,57,81,55,24,29,154,128
103,59,85,52,27,31,158,131
87,52,86,53,30,36,162,133
90,45,81,49,30,36,158,138
101,44,87,51,31,33,104,97
86,42,87,48,32,32,105,94
84,42,83,50,32,30,99,88
82,43,77,47,30,26,95,89
79,45,75,50,30,26,133,108
98,50,55,46,28,29,136,99
100,53,57,47,27,28,134,99
99,52,63,43,24,29,132,111
101,49,62,41,25,26,134,107
100,47,60,39,24,26,107,88
68,45,62,37,24,22,114,93
64,43,64,39,25,23,114,94
86,44,56,40,28,23,116,92
86,46,54,38,26,26,124,96
83,49,68,40,28,29,143,116
83,45,69,40,28,33,145,114
86,48,64,36,27,32,152,114
71,49,64,38,24,30,141,101
70,51,68,41,26,28,134,100
76,51,54,42,23,27,125,65
80,56,51,48,28,23,122,90
81,53,53,50,28,26,135,98
81,57,55,47,30,27,138,99
88,55,50,47,31,28,141,100
97,55,49,46,31,27,121,106
95,55,52,42,28,27,135,96
95,56,51,45,29,25,113,88
93,53,52,47,28,27,138,97
86,53,53,49,26,26,136,112
77,55,66,51,30,26,141,107
69,54,65,52,30,25,123,97
63,51,69,49,29,27,139,99
73,48,67,47,28,24,122,106
76,52,72,48,29,25,123,97
77,44,65,44,27,25,121,92
84,45,66,41,26,29,138,113
86,49,63,41,25,28,124,119
76,49,66,40,24,28,118,109
81,44,61,37,23,28,119,108
74,48,59,38,25,28,128,119
74,50,61,40,29,27,174,142
72,44,67,41,29,26,176,135
72,45,63,45,30,25,180,133
73,51,69,48,30,27,178,140
71,54,70,48,27,26,182,145
67,51,68,52,22,25,141,111
86,60,59,53,23,27,155,142
87,60,67,54,21,29,162,153
81,56,66,51,22,26,176,172
98,58,67,51,25,30,205,200
115,58,75,48,31,32,243,231
131,54,89,44,30,30,245,236
139,63,89,39,34,33,256,246
143,67,104,42,37,40,254,244
136,65,105,42,37,41,247,223
134,72,101,41,32,40,204,193
120,72,105,48,36,41,220,231
109,66,106,53,35,38,199,216
111,62,93,52,32,33,199,221
135,62,94,51,34,30,177,222
124,51,99,51,33,30,169,217
128,58,82,52,30,33,170,169
145,59,88,49,28,36,181,170
142,59,86,48,29,40,185,160
116,62,84,51,30,43,205,154
116,63,79,49,31,44,226,165
98,53,79,43,31,41,190,143
77,50,69,47,31,39,173,138
100,53,71,53,32,34,162,119
101,46,68,51,29,27,121,104
100,48,66,52,28,27,96,94
105,58,76,51,28,28,123,93
108,62,73,54,26,27,130,104
81,60,80,49,25,28,121,97
76,60,79,49,28,32,151,107
74,56,80,51,28,31,142,100
97,51,71,55,30,32,130,101
88,47,72,48,29,33,131,90
94,49,65,44,29,32,130,86
101,54,64,43,25,29,94,76
106,53,54,39,27,29,90,77
88,49,53,31,24,29,116,86
93,43,48,30,27,35,113,88
87,39,43,32,27,35,116,89
77,34,47,31,25,34,119,84
77,48,54,39,22,33,121,82
64,55,56,41,27,33,133,79
54,57,65,42,26,26,137,76
73,60,64,41,26,25,137,76
82,64,72,46,27,27,139,87
89,60,78,44,26,29,136,91
112,57,82,49,27,30,86,81
126,65,81,49,28,32,110,86
157,97,90,53,31,32,125,110
171,97,85,53,34,29,121,107
180,106,78,55,38,30,126,129
178,118,75,49,37,28,135,135
172,115,73,51,39,26,114,127
166,98,68,54,38,27,104,108
153,97,71,53,38,34,130,130
145,91,69,51,36,31,127,107
