117,98,190,79,220,698,95,34
110,94,159,75,248,790,94,33
110,96,182,80,238,771,96,42
107,89,198,72,216,670,98,42
91,91,197,80,265,694,90,42
113,98,202,71,271,689,85,46
118,104,210,77,297,629,90,48
116,103,194,78,305,591,92,42
121,107,200,86,289,586,82,40
135,104,184,77,244,571,81,41
121,90,188,87,240,569,96,37
127,82,182,82,196,571,91,36
120,73,184,76,181,591,97,35
133,73,161,93,189,578,95,36
131,71,161,94,205,595,99,37
133,83,168,86,207,617,91,37
127,81,160,85,252,803,87,37
144,92,159,90,306,903,78,38
134,89,159,67,394,976,85,38
133,111,168,75,457,1056,80,37
126,104,152,84,550,1181,78,38
123,107,165,100,661,1293,78,40
100,107,178,103,785,1466,80,39
107,108,185,105,760,1475,80,41
124,83,190,103,784,1402,87,40
149,94,194,95,779,1288,87,38
156,96,204,78,680,1042,87,37
159,86,205,70,497,639,81,37
150,84,215,75,473,500,76,34
129,89,209,73,353,496,87,34
104,87,210,71,189,506,82,33
114,88,214,79,147,508,81,30
118,89,200,84,163,538,82,30
128,90,182,76,175,554,84,32
141,87,192,76,185,597,84,31
156,85,183,77,197,622,91,32
141,93,184,85,197,653,88,33
151,113,192,78,668,683,90,36
147,116,209,87,1007,699,85,33
129,114,204,83,1151,696,87,35
123,113,206,85,1220,696,77,34
137,120,179,68,1294,680,82,35
142,112,192,78,1135,635,80,32
139,106,167,72,849,592,90,32
140,112,177,78,642,594,110,35
129,116,212,97,492,560,115,38
121,106,216,104,356,719,131,46
98,95,215,102,382,820,136,47
127,128,226,98,437,879,133,56
127,126,229,104,456,917,105,54
128,126,228,86,476,930,102,52
141,128,229,79,400,810,84,47
146,151,235,79,414,686,83,52
126,126,270,88,409,600,95,47
150,142,263,87,541,517,97,53
157,141,277,86,685,501,100,53
147,146,284,90,698,493,96,53
155,125,264,82,660,517,91,47
152,132,213,71,625,549,77,46
133,127,205,67,615,616,74,39
136,119,167,84,515,805,69,36
135,114,183,82,599,797,73,41
122,114,199,98,745,845,73,55
128,108,207,113,762,820,71,63
124,93,226,112,685,742,85,64
136,124,247,111,625,479,81,68
140,118,228,112,525,439,75,65
133,116,214,100,281,253,75,54
143,127,208,84,226,181,84,43
145,129,189,82,180,129,69,45
115,105,177,79,407,497,80,38
114,105,191,86,511,664,88,38
124,111,202,85,535,752,89,39
102,104,222,104,553,841,93,40
94,96,229,108,570,900,104,38
128,99,217,118,443,816,96,43
121,96,199,122,330,733,90,45
131,92,222,137,300,696,90,46
135,91,197,127,270,650,80,47
137,110,188,124,237,627,68,50
109,108,222,107,214,621,66,47
116,107,225,95,192,605,79,49
103,107,214,88,205,605,82,49
104,111,221,81,196,597,84,50
111,92,226,79,186,592,84,47
113,90,181,78,437,573,89,48
119,106,188,84,568,597,76,43
115,101,161,69,599,586,74,39
132,97,183,75,639,570,76,37
136,99,174,82,654,551,77,34
134,99,169,79,527,554,73,34
122,95,175,87,406,519,79,33
119,95,205,91,350,514,80,34
118,92,181,88,342,535,79,38
103,96,180,91,366,557,75,39
101,94,209,103,356,581,79,39
125,87,201,91,344,624,78,39
135,88,177,93,366,647,78,39
134,86,184,94,315,641,86,37
147,78,186,82,267,637,95,37
170,93,173,75,350,664,97,36
155,100,188,74,512,847,100,37
152,106,194,74,523,871,104,42
153,111,194,82,574,877,96,39
152,115,195,84,634,897,89,40
132,117,190,88,644,915,81,43
143,111,178,93,630,823,76,41
146,106,171,91,651,762,71,37
128,103,162,85,605,730,83,39
144,115,198,94,552,677,91,41
149,117,223,97,502,561,104,50
145,118,239,100,347,335,116,52
144,117,242,101,251,331,118,53
142,110,250,112,246,420,118,53
119,106,233,118,255,622,119,55
135,92,239,124,346,752,120,53
149,97,221,118,452,877,112,51
146,98,232,134,491,953,107,51
152,101,232,124,505,944,101,50
173,102,228,109,495,866,92,47
154,99,195,101,429,799,77,38
136,107,188,105,337,692,76,38
144,113,185,93,280,618,77,41
160,128,187,97,270,604,82,43
150,122,190,106,293,569,84,41
152,127,204,96,359,551,82,45
169,145,234,97,348,552,83,46
162,144,248,85,401,543,87,41
147,146,239,94,518,554,88,41
157,153,260,89,834,764,92,42
157,150,254,100,831,806,96,42
135,128,244,103,870,936,104,40
141,126,229,109,918,969,102,41
143,104,236,97,862,983,95,39
140,97,201,101,557,859,98,38
143,103,227,97,536,837,95,37
156,100,211,88,559,688,80,37
161,105,206,87,528,649,77,37
159,134,217,87,564,602,74,36
148,137,218,96,555,542,77,36
145,136,183,107,555,508,88,33
131,131,193,109,465,510,96,37
124,140,182,104,385,532,120,39
132,118,170,109,471,609,126,45
125,127,183,107,515,680,128,49
123,128,179,89,518,696,120,49
120,132,173,100,524,697,120,48
117,117,169,97,593,736,101,46
143,116,159,93,563,746,98,42
148,105,144,84,564,707,102,38
155,103,136,90,609,824,107,38
168,96,117,85,696,1036,101,36
163,100,163,113,714,1222,105,41
133,100,202,116,886,1464,104,44
141,106,216,110,1032,1592,101,45
137,96,219,111,1016,1548,102,48
126,94,241,107,976,1433,98,49
135,95,221,78,922,1245,96,47
134,99,182,71,714,915,96,41
120,86,172,76,426,643,85,41
121,98,182,73,373,575,79,40
139,109,170,68,340,532,97,45
147,115,162,73,322,517,103,52
155,112,168,77,269,476,100,57
158,119,181,98,262,472,98,57
164,126,184,101,278,495,96,56
148,122,174,100,257,472,83,52
137,122,178,96,248,468,92,47
136,128,196,110,266,462,112,43
157,135,204,86,297,452,113,48
145,132,200,81,296,437,115,51
165,142,215,86,298,428,117,51
160,144,233,88,299,404,117,51
151,134,215,67,297,427,108,48
125,120,183,72,385,459,112,42
139,132,242,67,515,587,116,43
114,120,241,73,556,649,113,44
136,120,222,77,583,692,104,46
142,137,228,76,642,746,101,47
139,137,231,73,661,751,100,47
122,116,190,79,633,682,92,41
119,128,199,71,619,682,87,44
93,125,199,68,603,699,74,38
83,106,197,66,551,645,60,38
115,117,211,79,552,758,50,36
119,123,196,79,499,746,52,38
135,126,178,86,466,706,55,34
136,120,176,90,495,705,54,33
147,128,182,99,522,751,74,35
138,133,183,97,511,833,84,38
151,136,211,103,629,1096,90,41
138,128,221,98,782,1299,92,40
136,131,234,97,885,1348,108,45
127,135,244,93,1018,1332,113,45
122,127,232,95,1037,1295,112,43
102,137,230,86,981,1086,108,44
116,140,224,84,876,816,106,46
125,136,203,79,745,671,94,43
130,126,183,78,516,623,73,40
132,132,186,61,370,371,57,39
147,119,145,59,291,264,57,38
143,103,130,62,396,397,59,36
135,107,144,61,572,535,52,37
131,106,148,57,618,625,66,39
128,93,139,55,766,727,73,40
113,103,168,64,775,784,69,36
123,141,182,66,734,767,69,39
136,151,226,77,616,720,67,36
136,155,231,83,586,660,65,36
127,160,242,86,440,594,71,36
142,166,234,82,434,580,75,41
126,148,222,79,396,538,74,38
120,131,168,71,381,508,82,44
139,128,169,68,356,521,74,43
140,131,179,63,360,528,69,42
122,113,169,63,443,500,71,37
157,122,204,66,501,542,81,37
167,125,219,63,575,780,82,33
152,125,215,63,589,783,81,32
151,114,224,68,562,769,82,38
155,107,217,71,507,771,77,37
130,91,196,67,461,742,67,38
112,87,194,72,359,447,55,35
106,85,201,77,303,375,63,33
104,91,167,80,324,313,60,28
104,95,203,93,305,264,60,27
110,80,194,100,282,270,66,25
108,95,187,109,315,448,71,29
107,99,202,106,579,706,66,33
124,97,211,103,609,814,78,33
124,88,174,88,725,876,82,34
105,98,183,82,825,910,78,34
109,85,179,68,854,889,78,33
126,107,178,69,745,780,83,32
132,105,181,72,739,691,76,32
130,120,222,73,662,613,80,37
129,112,213,73,539,561,85,38
134,115,213,73,532,485,80,39
147,112,199,70,487,368,75,41
155,129,215,70,411,341,69,46
159,119,176,81,372,370,66,45
159,126,211,85,354,405,63,43
164,133,211,81,318,425,64,42
148,124,198,80,356,475,65,41
120,108,182,86,395,511,67,33
129,124,219,80,378,508,64,32
129,132,190,76,409,492,70,39
129,125,195,80,372,480,72,40
126,117,200,88,348,430,67,39
137,114,209,86,315,400,61,39
138,105,183,81,466,516,58,41
146,86,182,83,612,742,55,40
139,99,211,83,646,777,56,44
131,98,216,74,712,869,58,43
131,94,205,69,733,903,57,45
114,83,197,68,657,852,59,41
107,97,210,61,533,668,55,38
100,82,200,54,517,648,53,32
117,82,191,56,494,619,54,33
109,93,190,60,614,832,60,30
119,95,185,61,633,833,66,32
116,83,184,79,628,848,69,32
121,88,170,94,614,859,72,31
115,90,171,96,598,898,73,29
109,82,160,100,545,854,75,35
108,92,155,110,692,1102,71,33
109,92,139,100,873,1318,68,35
100,89,130,87,1083,1405,66,36
103,88,152,86,1158,1357,69,38
112,94,175,81,1166,1297,64,34
122,87,177,62,1090,1106,66,34
128,91,195,70,955,813,65,30
135,94,205,82,723,634,63,30
126,92,190,74,637,713,70,33
120,83,174,77,639,821,73,35
119,92,167,81,624,796,71,35
118,100,192,76,612,792,69,36
116,107,181,62,594,776,65,32
119,116,197,64,488,665,51,29
122,123,213,73,324,353,50,30
112,121,255,76,259,289,50,30
106,111,233,83,199,246,51,31
115,102,244,84,429,464,55,34
126,96,249,82,537,589,57,33
122,105,243,69,604,660,53,27
117,100,208,63,649,712,57,30
116,99,224,55,691,740,58,31
119,97,201,54,580,636,56,30
103,93,175,57,500,564,60,29
105,76,182,55,430,512,59,31
120,78,181,53,377,475,57,31
120,74,149,47,341,484,58,30
103,79,150,54,319,475,58,30
113,83,176,54,301,462,50,30
124,88,155,61,309,460,58,33
113,84,153,67,317,481,55,31
113,88,146,68,299,466,54,32
115,92,165,64,443,612,65,33
110,90,142,63,647,848,66,34
121,84,147,63,664,872,62,31
124,84,173,72,732,989,64,32
126,95,202,94,797,1113,70,36
128,93,203,103,854,1282,67,37
161,103,209,103,814,1256,68,39
145,110,228,103,848,1291,69,41
146,116,221,93,815,1218,70,43
143,107,209,70,772,1123,60,39
148,104,207,55,634,844,51,36
117,113,219,54,514,670,47,34
113,104,204,49,421,566,42,33
106,103,201,57,358,536,39,31
105,104,215,61,327,521,45,31
92,111,215,60,325,507,43,32
74,93,205,67,308,498,43,32
83,97,212,79,310,511,49,31
101,91,221,81,319,528,52,34
100,91,194,76,326,530,47,37
109,82,183,79,373,562,49,36
113,90,204,87,625,602,51,37
113,92,200,80,970,640,49,37
101,94,202,76,1094,630,46,34
108,102,209,78,1111,616,52,34
116,111,231,80,1101,605,54,35
116,110,217,72,976,566,64,32
114,115,217,65,629,528,76,34
118,111,199,66,353,549,74,33
134,101,187,101,235,608,76,33
135,91,174,134,163,626,94,35
137,88,167,159,119,615,97,38
149,85,154,166,87,587,87,38
149,91,158,167,65,599,87,38
134,92,166,149,51,565,85,41
137,101,200,121,38,550,63,39
148,101,188,82,30,574,54,39
134,100,186,78,173,609,56,37
142,99,204,71,572,586,59,42
136,94,201,74,790,581,57,38
119,90,161,71,915,581,60,40
119,96,168,74,1115,582,56,39
116,89,171,67,1197,584,54,41
99,86,159,68,1138,588,52,35
103,91,169,62,1021,586,59,34
115,90,170,59,949,587,60,34
108,67,183,56,794,600,59,32
113,71,185,54,692,604,60,31
111,80,177,57,669,591,62,29
118,87,183,55,742,583,63,29
112,83,185,53,757,578,68,29
109,90,196,50,714,555,66,30
110,89,213,51,708,547,64,33
121,83,222,57,797,659,65,35
116,86,224,66,1036,836,62,36
111,84,245,64,1044,873,57,34
101,81,229,81,1034,876,56,32
116,105,226,85,1022,863,59,33
114,111,220,92,891,764,60,32
120,102,205,99,487,573,63,32
118,104,174,113,399,568,62,31
120,100,202,116,418,757,68,32
113,90,182,123,602,976,70,32
124,87,169,118,717,1194,70,36
112,83,175,108,845,1298,76,35
113,85,185,97,911,1316,76,35
124,96,143,83,998,1237,79,36
120,93,152,67,949,1106,80,37
107,84,170,65,878,910,80,33
122,92,170,68,748,901,75,34
121,96,160,76,645,845,75,34
125,93,211,85,433,807,66,38
126,99,204,86,286,758,62,35
138,104,193,83,215,693,61,37
128,101,201,92,311,483,56,37
133,96,222,83,557,559,58,36
126,99,182,72,654,664,58,31
122,89,190,71,786,726,63,33
105,89,189,68,839,782,60,33
112,93,197,55,866,806,57,33
112,98,178,56,884,780,55,34
112,101,241,67,896,735,60,34
119,107,235,64,869,710,55,32
124,113,251,67,874,682,65,31
129,116,250,64,837,652,71,39
124,109,239,64,726,625,69,40
121,102,173,58,709,596,67,41
110,93,209,66,661,572,68,39
129,86,197,69,645,561,63,42
119,77,195,74,808,569,57,34
118,82,262,81,920,673,61,32
119,84,266,89,916,702,57,30
121,82,257,87,899,707,58,32
99,80,254,86,885,709,55,30
96,79,267,91,727,682,55,29
130,90,216,89,521,535,54,34
132,87,226,92,406,432,58,35
144,90,219,109,325,392,55,36
148,95,218,119,293,493,61,35
157,107,210,133,359,687,78,40
133,98,213,136,607,968,78,37
138,97,195,130,743,1038,84,39
124,94,183,114,844,1079,82,37
120,90,182,103,895,1053,77,38
112,71,156,76,904,958,62,35
114,72,174,79,805,715,59,33
101,72,195,78,725,650,62,32
99,67,203,81,651,584,62,30
100,72,214,87,600,546,67,32
103,81,215,85,574,530,64,32
95,90,207,70,566,502,65,36
102,87,196,67,540,480,56,35
109,98,221,73,551,476,55,36
111,104,234,70,724,471,47,34
116,112,239,68,829,461,54,36
115,102,228,71,870,483,53,33
115,104,229,73,888,483,58,34
124,116,198,69,867,487,59,37
123,104,172,64,751,501,60,39
114,90,168,77,612,496,52,35
116,89,163,75,515,481,52,38
122,86,158,77,798,737,46,36
111,69,168,76,840,781,50,35
128,83,177,83,831,788,53,35
126,81,178,78,855,809,52,37
127,86,177,83,872,812,50,35
117,94,181,84,587,572,52,37
117,93,192,79,494,474,47,34
94,83,184,74,416,398,47,33
98,90,184,65,322,294,48,32
96,88,188,62,209,183,54,32
94,89,180,59,231,220,54,28
90,83,150,64,549,521,62,30
96,88,160,63,701,692,62,31
94,97,178,71,828,809,65,32
96,100,169,64,884,869,64,32
104,96,168,63,923,901,64,34
138,101,182,62,828,807,60,35
132,95,177,60,769,718,57,32
134,89,158,55,668,631,54,30
138,89,174,59,670,608,52,34
133,90,191,57,634,562,46,31
100,81,200,66,633,574,48,30
105,92,189,70,616,552,47,30
98,86,190,65,636,548,54,30
93,91,187,65,613,541,53,27
116,97,175,70,625,564,54,34
131,98,157,62,598,567,48,33
123,88,166,58,824,774,50,34
125,91,173,66,837,801,45,34
130,83,165,69,848,805,55,31
130,76,174,93,840,801,57,30
115,78,168,96,836,796,60,30
124,83,172,110,562,602,65,31
135,83,169,115,481,631,66,32
131,81,188,135,473,795,67,37
117,83,184,133,555,990,67,33
131,96,190,130,823,1222,67,36
123,92,180,119,1092,1311,61,34
108,86,169,111,1214,1283,70,36
113,89,177,84,1272,1250,60,33
124,100,194,66,1252,1118,64,34
114,86,198,62,1126,865,63,30
126,94,223,62,903,729,64,32
127,98,228,65,775,741,57,28
137,117,246,66,659,613,58,28
124,119,234,56,627,565,52,26
131,121,235,63,590,552,55,31
129,120,215,60,554,528,54,31
132,119,227,63,548,514,52,36
123,106,209,59,569,547,55,39
127,104,204,62,571,561,58,39
111,102,214,54,561,531,52,36
103,98,213,56,607,577,51,37
120,96,213,64,602,575,56,33
125,87,181,66,601,561,53,30
117,67,190,69,606,578,49,34
120,61,175,71,596,579,50,35
128,79,185,86,618,588,49,36
117,80,167,76,915,853,45,34
108,82,181,82,910,857,42,33
105,84,177,80,911,855,46,34
104,88,168,84,916,860,47,32
95,82,225,76,872,821,52,32
97,80,220,82,496,487,57,33
88,77,212,79,422,411,57,32
105,82,209,77,340,325,55,26
156,85,233,75,245,237,60,27
163,81,166,66,151,147,57,23
163,88,176,59,527,495,51,27
179,91,178,59,754,713,60,30
176,93,184,56,856,814,59,33
134,101,160,57,904,862,52,31
123,99,161,66,964,910,55,33
113,95,157,64,846,802,53,28
99,94,159,60,673,631,51,24
91,92,145,62,576,520,53,26
93,98,136,63,519,465,57,29
110,99,152,63,425,385,56,30
118,100,154,64,397,365,56,35
111,98,149,69,409,376,57,37
129,98,170,72,393,375,62,37
131,100,193,69,389,360,61,35
135,101,198,61,409,386,62,35
129,99,199,67,411,386,65,30
140,113,213,73,399,391,60,29
127,112,202,65,398,387,58,27
129,94,212,74,440,417,57,30
119,95,202,81,443,414,55,28
119,93,209,84,434,396,51,29
135,89,207,80,558,513,56,30
137,87,204,82,859,819,51,31
127,88,174,85,1131,1172,56,30
122,85,172,79,1364,1383,57,33
123,98,187,76,1397,1413,66,40
96,89,184,70,1377,1394,62,41
94,86,193,75,1218,1245,68,40
94,88,222,69,965,916,70,41
109,95,226,72,597,562,70,42
122,84,209,68,527,494,63,36
129,91,213,73,467,426,72,37
131,108,208,70,444,424,69,36
134,108,187,70,434,412,68,34
137,99,183,64,409,376,67,31
146,106,179,61,406,380,64,32
143,105,168,57,411,400,61,34
152,88,167,61,418,395,60,38
162,94,156,61,444,427,59,40
147,98,184,72,496,473,59,39
136,96,182,71,531,492,63,38
130,90,190,80,537,489,58,36
117,91,184,75,578,511,54,33
95,87,186,74,585,502,56,31
98,95,154,66,638,557,55,32
87,87,158,81,936,816,51,31
87,89,143,80,958,843,47,29
83,104,175,84,942,842,52,28
105,107,202,89,952,861,47,30
110,98,205,92,907,823,52,34
111,96,202,78,610,598,53,33
111,100,201,71,682,647,57,34
117,87,176,64,849,754,57,34
103,95,170,55,837,741,59,35
97,93,168,54,823,725,57,31
101,96,178,73,784,681,58,32
95,92,185,80,666,576,55,31
109,85,179,96,381,422,52,32
111,76,154,108,320,445,55,27
114,75,156,118,312,598,64,30
112,77,155,125,403,826,64,30
114,76,164,123,585,949,64,30
107,91,180,113,684,990,65,32
101,83,179,102,804,1015,63,32
112,93,187,92,843,944,51,32
109,95,182,72,895,824,65,31
114,95,171,69,938,843,65,32
110,88,158,69,918,825,67,31
119,90,166,69,873,812,64,34
113,89,156,64,888,837,65,32
125,84,159,67,845,807,52,32
131,99,176,73,743,689,50,33
135,114,175,68,729,679,48,33
133,110,171,72,722,644,51,33
126,116,172,76,796,705,53,32
121,119,173,81,1035,926,55,35
131,113,171,96,1021,976,58,35
129,94,163,107,1040,1121,60,33
124,101,180,118,1068,1286,64,37
124,93,214,137,1144,1475,67,40
133,111,210,133,1167,1540,67,39
119,104,198,120,1350,1592,71,39
106,105,219,112,1408,1529,69,41
105,104,210,94,1393,1417,64,34
109,100,178,57,1295,1211,56,31
132,80,175,52,1117,951,50,33
125,84,174,49,908,805,43,30
125,88,155,52,826,757,44,30
131,88,149,60,834,736,54,32
127,92,151,60,796,664,56,32
107,91,158,58,732,645,59,29
124,91,167,83,709,629,64,33
126,81,172,84,651,569,67,32
121,86,184,80,593,532,65,32
122,89,185,84,585,541,65,32
101,88,176,86,576,537,64,31
89,89,180,62,575,538,61,28
87,97,204,59,588,542,55,30
88,95,196,60,605,551,46,29
83,87,205,53,617,563,44,28
85,86,205,56,762,702,41,27
91,83,207,65,1040,926,33,28
117,76,189,75,1067,966,39,27
119,73,184,77,1046,953,52,31
122,74,162,79,1030,935,54,32
121,85,159,76,911,821,56,36
110,82,153,78,510,502,56,34
100,84,143,69,376,366,53,37
95,80,140,69,316,308,41,35
94,85,153,67,232,229,44,33
93,72,146,73,517,479,49,30
96,76,164,65,764,707,51,30
84,78,166,71,899,844,51,25
98,106,180,69,959,907,60,26
102,105,169,66,1019,968,66,26
123,116,175,60,941,890,65,34
125,121,147,65,785,748,67,36
119,116,144,62,685,646,65,36
117,95,126,60,636,594,63,35
118,92,120,63,581,536,55,36
102,82,124,65,583,542,56,30
96,72,130,60,594,552,59,27
105,89,156,61,592,541,63,31
117,98,165,65,612,551,61,30
113,97,177,64,629,554,64,28
101,96,184,69,702,643,63,28
105,97,179,68,966,869,60,27
96,87,154,65,974,893,66,23
91,76,146,65,962,890,64,22
100,88,147,70,952,886,59,23
110,93,140,69,867,803,61,25
108,91,166,89,504,504,66,25
111,89,165,98,402,393,58,29
94,85,192,107,339,354,70,29
104,68,214,136,265,487,72,32
100,58,210,145,336,732,80,31
98,57,194,135,603,891,77,33
95,58,196,125,773,991,75,32
104,63,173,118,863,1043,70,34
117,76,137,83,936,1013,72,36
134,89,128,62,926,867,78,40
138,104,128,60,827,747,80,41
137,105,134,63,717,656,83,40
133,100,122,60,655,593,82,39
113,101,123,55,597,556,83,36
91,96,137,54,586,539,75,33
89,82,127,54,567,514,79,31
93,82,125,54,562,506,77,31
95,83,133,53,547,496,77,32
98,74,159,62,537,495,75,33
121,85,190,58,585,541,68,34
123,84,199,58,610,566,59,32
126,83,199,60,811,765,63,34
131,95,200,82,966,1078,66,33
139,100,201,101,1246,1397,73,37
121,88,184,104,1427,1592,74,36
117,93,202,105,1422,1588,75,38
110,94,200,106,1330,1519,72,35
147,86,199,95,1247,1339,66,35
134,80,173,63,974,1011,55,29
134,82,165,65,635,620,60,26
145,77,140,62,612,606,67,29
145,76,139,66,586,570,67,33
106,77,133,59,531,515,74,36
105,81,133,60,512,487,73,35
102,78,129,57,531,511,66,35
85,85,130,60,531,506,58,33
90,84,131,64,514,487,58,31
79,79,140,65,523,487,50,27
95,82,140,66,523,489,52,31
90,79,126,64,499,467,53,31
90,68,131,68,511,477,49,32
98,78,151,57,535,478,48,34
138,107,189,75,537,488,43,36
132,105,210,80,542,483,50,33
140,112,218,83,536,495,50,35
142,113,208,80,722,680,54,31
143,112,206,83,755,728,57,30
124,93,167,69,772,743,60,31
118,90,147,72,790,769,62,32
109,88,153,69,811,768,68,32
117,85,165,69,611,574,78,36
127,84,158,65,510,471,86,37
113,77,171,64,424,384,92,33
124,72,172,58,309,273,89,32
132,76,166,60,188,168,87,31
138,82,153,53,140,128,79,32
138,96,176,53,566,540,73,30
150,105,182,52,779,749,72,32
144,105,195,50,918,899,70,33
152,102,190,49,996,979,70,35
143,99,207,52,1048,1026,68,31
121,77,204,64,941,935,64,29
104,66,189,64,823,817,57,28
109,62,185,63,716,687,68,27
99,61,190,61,666,623,68,26
94,61,188,70,633,589,67,26
99,71,157,58,607,548,69,29
103,73,156,55,581,526,63,31
124,82,145,62,570,521,55,31
124,79,158,66,546,500,54,30
125,86,172,67,539,495,55,31
125,77,177,68,539,514,56,27
122,75,179,71,746,718,64,26
96,66,185,69,779,757,94,27
84,73,174,81,799,778,92,25
85,69,142,85,800,781,94,24
88,77,145,98,805,811,96,26
106,79,145,109,613,704,99,28
99,87,142,124,573,780,72,30
100,79,154,128,654,987,77,36
111,84,154,128,836,1194,74,39
122,91,159,124,1097,1313,72,40
102,85,155,114,1248,1318,79,38
118,77,147,96,1317,1302,85,38
122,76,132,75,1302,1163,79,34
124,81,144,68,1217,966,85,30
114,65,143,57,1019,780,84,28
119,69,145,60,830,743,76,26
107,80,170,71,872,792,69,22
106,86,178,74,815,754,70,28
112,92,167,73,769,728,75,32
109,93,154,76,705,683,71,33
102,90,159,73,685,631,70,32
98,88,141,70,403,386,68,32
93,92,123,79,340,327,69,26
62,88,189,88,446,429,77,23
78,97,194,90,639,598,87,24
95,109,189,91,715,676,85,28
92,103,202,87,829,767,85,30
100,100,208,77,883,818,85,32
98,94,165,66,850,780,65,30
115,91,171,62,753,688,55,33
105,84,187,64,745,699,49,32
113,96,194,64,936,872,49,32
117,99,220,73,923,862,60,37
120,94,213,70,929,871,74,40
130,98,213,69,1010,928,76,42
130,92,194,63,1036,926,83,41
128,82,167,70,792,708,82,42
124,86,127,62,852,774,83,41
126,91,136,64,930,865,80,41
83,84,130,65,933,870,84,37
86,84,149,82,876,817,94,39
100,88,143,85,860,817,95,37
106,81,155,100,777,764,92,34
106,75,151,113,710,799,90,32
124,74,162,123,634,909,87,32
136,78,159,125,786,1159,70,35
137,95,167,125,1040,1392,71,39
133,97,176,113,1228,1438,70,38
136,95,191,101,1242,1353,68,36
120,98,192,85,1200,1216,70,38
104,96,190,71,1089,969,70,40
89,80,184,56,846,553,65,37
83,82,168,61,526,324,61,38
106,83,141,68,362,260,53,40
113,78,131,68,530,443,47,40
119,76,123,68,636,563,50,35
134,75,154,79,736,682,66,35
150,77,154,74,771,735,70,36
128,73,189,68,801,769,80,33
126,86,184,69,718,701,83,30
135,91,188,69,642,618,82,31
153,104,204,64,546,500,78,31
157,100,212,66,508,451,73,28
156,104,201,66,491,430,66,30
154,92,202,63,464,406,61,28
150,88,205,57,444,403,61,30
114,69,173,46,426,396,51,28
102,76,167,49,433,378,64,36
104,71,151,42,404,352,65,36
118,77,149,49,540,505,66,38
113,88,140,53,778,720,68,40
110,86,136,59,813,761,72,43
117,83,148,59,821,776,65,41
130,90,194,69,831,786,64,41
123,89,212,77,731,685,65,42
120,75,210,77,443,431,72,43
124,77,219,78,340,325,71,40
121,76,212,81,255,243,70,42
116,70,173,75,351,347,69,41
120,71,154,64,523,510,69,40
117,74,153,59,650,636,60,34
117,75,146,56,717,722,58,35
122,80,147,52,786,763,59,33
118,80,153,53,777,738,74,37
117,77,152,58,727,689,74,35
115,74,157,59,656,605,73,36
122,108,150,60,615,534,71,36
106,121,155,56,556,495,70,34
111,124,152,54,518,475,63,33
104,123,152,48,454,400,63,33
113,125,150,48,429,376,60,35
107,101,161,47,424,373,63,36
114,79,145,47,429,386,65,33
107,80,135,48,593,583,60,34
111,84,128,47,865,815,56,33
115,81,136,59,894,851,60,30
109,84,127,69,902,865,57,29
113,84,132,80,892,857,60,32
112,83,144,93,780,764,64,29
111,79,168,113,463,586,71,29
101,86,163,120,435,722,79,35
111,77,154,124,524,914,81,34
97,81,149,123,839,1202,85,34
98,76,141,113,1122,1347,78,34
103,86,136,96,1170,1363,73,36
104,82,135,84,1196,1305,64,30
103,83,134,67,1158,1170,64,33
114,76,141,58,989,898,52,33
113,77,145,58,702,667,56,34
105,70,122,54,651,588,57,33
108,73,140,50,606,529,56,34
110,91,157,57,636,553,54,30
108,94,159,57,614,537,52,30
115,97,164,61,579,500,66,29
123,91,183,64,605,534,68,29
145,88,170,62,623,557,69,32
141,67,158,65,610,545,72,32
144,72,178,63,644,591,76,32
140,65,182,54,689,621,69,30
137,70,173,55,700,636,72,33
115,72,169,53,710,641,82,37
114,77,173,51,747,649,85,41
98,69,162,53,815,704,82,40
106,83,157,57,971,873,76,41
106,86,153,58,969,873,68,41
99,87,156,67,943,853,59,37
96,83,148,70,891,832,49,33
98,82,125,69,772,727,47,35
100,67,107,71,467,434,51,35
106,80,120,71,334,307,55,30
156,84,132,67,247,234,52,27
162,86,149,63,373,376,56,27
166,85,158,62,581,529,59,25
159,101,181,69,730,664,61,24
158,93,168,66,836,784,61,27
115,92,174,62,920,868,68,29
108,94,173,58,937,865,66,32
114,95,169,60,873,825,69,33
122,80,148,53,809,765,68,32
113,82,144,50,745,694,65,31
120,82,122,51,692,627,63,29
121,80,106,51,631,578,62,29
130,79,97,51,624,562,66,34
120,79,102,45,612,551,61,33
122,74,116,44,614,543,61,33
110,65,111,45,647,568,61,35
109,62,110,44,787,698,73,31
88,60,121,42,933,827,74,28
97,67,118,48,975,879,80,32
95,60,125,58,967,874,84,33
95,61,137,60,933,854,82,31
91,62,142,65,798,737,71,31
115,83,144,68,563,546,67,31
115,82,150,71,403,393,62,28
118,94,144,73,325,318,60,27
118,96,137,88,243,252,61,30
143,104,133,99,340,438,65,31
119,88,132,96,588,583,63,28
111,80,123,90,710,689,61,26
104,68,120,81,830,787,56,29
113,73,122,62,907,856,49,30
113,80,119,36,907,801,51,32
120,84,114,36,802,733,50,33
121,87,129,40,759,678,57,32
124,86,125,41,684,615,65,32
118,83,124,42,642,559,68,30
107,98,141,48,637,561,69,30
115,98,134,48,654,578,68,31
115,106,136,46,636,582,74,33
119,105,145,47,659,604,74,32
126,111,162,52,667,617,78,33
119,87,149,48,664,649,72,32
107,85,150,46,879,816,70,31
104,86,145,64,900,868,61,29
98,98,142,85,880,1008,54,28
85,113,145,103,930,1198,65,34
85,119,151,113,1148,1439,70,36
91,125,155,118,1195,1517,77,40
98,117,145,109,1271,1567,80,40
99,113,158,93,1305,1502,85,41
106,104,147,69,1288,1373,79,36
97,92,176,55,1117,1125,75,33
91,91,183,51,900,890,69,29
92,91,195,57,774,761,68,29
105,85,175,58,731,694,67,29
92,65,185,64,679,648,68,27
90,61,152,62,649,596,69,27
89,57,138,56,618,560,68,29
85,59,127,52,600,510,66,30
75,74,130,56,579,512,60,29
96,80,101,46,566,493,52,30
104,92,126,44,563,496,61,29
105,105,153,47,590,542,65,30
106,123,207,52,612,574,66,29
100,120,210,52,617,574,69,29
88,125,231,59,626,587,70,29
80,123,234,60,634,592,70,29
109,116,224,59,621,589,68,28
112,96,176,55,767,788,67,28
132,90,183,55,778,808,66,30
134,92,155,55,795,818,63,34
133,85,129,59,802,822,57,34
121,76,137,61,801,803,56,33
132,78,137,61,603,555,59,33
112,77,156,59,533,472,57,31
106,66,161,55,450,394,53,27
114,81,179,51,344,300,59,28
126,82,174,49,237,203,61,28
117,79,175,47,200,168,57,30
120,104,159,44,175,147,56,31
123,102,155,39,508,504,57,30
120,88,135,39,674,666,50,30
102,88,121,37,780,766,47,31
105,102,155,55,863,853,48,34
102,76,142,54,919,896,46,33
97,79,142,56,823,783,46,34
93,86,154,59,734,693,50,31
96,105,156,61,652,611,58,34
91,96,131,45,568,510,64,29
99,100,148,46,518,478,67,31
107,98,146,51,505,473,67,29
119,94,136,47,482,443,65,31
108,72,141,44,483,440,62,27
106,63,140,43,516,494,59,27
110,62,124,50,507,490,60,26
131,74,136,44,491,514,58,31
122,76,132,45,651,646,58,31
124,78,128,58,714,704,55,32
121,85,124,78,736,730,49,33
118,81,113,83,757,742,54,35
93,71,103,99,788,814,66,30
93,69,108,116,718,883,72,35
97,69,109,124,790,1072,76,35
95,65,103,119,954,1280,83,35
89,77,133,115,1142,1434,82,34
84,79,132,101,1174,1413,76,34
89,84,126,80,1168,1335,71,29
79,87,156,54,1106,1177,68,28
111,88,160,50,960,923,65,33
111,78,146,44,718,656,64,33
108,77,147,48,637,603,62,33
121,83,149,48,606,582,59,34
132,84,125,52,567,545,63,35
140,82,115,44,543,529,63,34
148,88,105,43,559,545,60,31
162,95,125,42,554,531,63,31
147,94,135,44,559,527,65,32
141,94,163,54,591,538,63,33
111,96,167,57,595,532,59,27
115,97,183,66,591,523,61,31
111,98,175,64,632,573,63,34
117,89,171,65,611,573,73,33
128,93,155,57,594,563,78,34
131,93,152,51,589,594,78,33
116,86,135,42,785,745,80,31
112,78,129,47,797,743,75,30
107,84,127,52,814,752,63,30
99,83,94,58,805,757,58,32
99,87,102,64,797,722,59,35
114,101,103,64,558,515,56,37
101,96,106,65,457,426,56,35
97,88,99,59,372,332,54,33
85,78,98,51,289,237,46,29
79,67,102,44,186,153,42,27
86,46,106,39,333,324,51,31
90,44,99,36,618,593,53,32
102,61,125,38,714,687,55,36
102,62,146,40,788,771,69,34
123,67,142,41,884,858,77,37
111,66,135,42,882,856,72,34
115,77,155,42,745,731,74,33
111,65,148,39,688,679,75,30
120,74,146,38,653,646,64,31
100,76,144,34,560,569,72,29
94,76,154,34,542,531,73,30
89,63,134,33,534,524,71,28
96,63,131,39,542,519,74,27
89,76,126,43,539,496,85,31
93,74,135,46,543,493,80,31
94,83,155,53,535,509,77,29
110,82,156,55,697,682,93,30
111,89,151,49,958,942,90,30
111,75,169,49,981,956,79,26
104,81,168,61,978,955,72,27
107,75,144,65,969,954,73,29
109,89,190,82,857,862,59,29
101,83,202,92,507,591,61,32
99,80,181,104,460,666,65,33
110,73,171,110,535,839,69,36
130,76,171,115,677,1066,71,36
127,59,134,104,920,1283,67,37
129,66,146,98,1143,1326,70,35
139,72,148,87,1190,1271,68,35
142,74,166,73,1234,1225,69,30
129,89,173,57,1187,1051,64,29
120,87,160,55,1040,782,71,27
116,85,151,52,804,687,67,29
111,81,160,48,709,698,70,33
109,81,147,48,564,576,74,35
105,64,139,46,483,509,92,38
109,74,146,54,388,418,89,39
109,74,134,52,406,399,92,39
97,70,123,53,420,365,91,33
85,67,120,50,405,344,84,31
84,66,119,50,415,368,65,32
83,80,111,40,478,392,62,33
86,88,107,41,446,383,66,33
106,94,144,46,426,368,67,37
109,96,169,45,423,377,73,41
102,93,171,47,431,345,76,40
99,85,183,50,370,333,72,37
95,83,187,60,371,322,66,37
75,79,163,57,373,329,59,33
66,76,161,60,550,525,67,35
72,74,176,65,860,769,67,32
62,67,166,76,883,798,68,32
77,56,157,71,936,857,64,34
87,66,184,72,961,882,76,40
99,74,171,73,898,802,72,38
104,76,160,72,685,639,71,37
105,73,168,67,692,620,78,40
95,74,173,67,641,566,79,38
85,61,147,73,608,542,68,32
72,56,136,72,565,515,82,31
70,73,141,69,514,473,82,32
79,81,137,66,468,461,74,29
76,84,142,71,453,453,76,29
106,86,131,68,460,448,79,31
108,84,145,79,475,451,64,32
104,73,145,80,424,405,66,37
94,66,162,78,444,406,73,40
101,63,154,71,424,367,80,39
86,62,163,67,401,351,77,39
84,60,159,55,424,365,67,38
109,68,178,64,407,357,60,33
114,65,163,60,415,367,55,28
112,67,168,62,449,415,42,29
113,66,170,67,451,409,47,28
115,66,167,65,435,414,48,29
123,54,133,55,456,440,50,31
121,54,138,60,414,403,58,34
123,70,196,84,396,409,66,40
117,79,195,83,441,451,64,39
118,83,199,92,438,437,62,36
90,87,207,95,482,471,62,36
102,94,200,94,512,498,55,35
104,84,170,73,507,465,49,30
122,79,164,68,484,440,49,31
121,85,200,70,490,451,54,33
121,79,199,68,452,411,56,31
126,72,215,70,477,402,53,29
123,73,204,69,494,429,48,29
104,81,224,70,493,424,49,27
104,76,221,65,485,415,47,29
121,77,221,63,512,422,44,29
106,83,209,60,567,474,47,28
103,80,205,57,596,500,47,28
104,73,194,61,623,517,47,27
119,69,160,52,639,531,46,26
101,78,184,63,634,531,49,30
109,70,197,72,590,493,47,30
121,67,192,74,595,503,45,30
144,66,218,74,618,550,50,31
133,64,224,75,627,561,50,29
125,63,209,72,666,606,46,26
125,67,201,71,686,616,51,29
113,69,216,71,686,605,51,27
97,79,193,70,685,575,44,27
99,79,181,72,706,586,44,29
111,74,218,69,680,550,48,29
103,74,217,59,657,547,47,25
104,75,219,62,627,528,48,26
83,62,206,58,604,500,50,26
85,71,240,51,592,488,56,27
82,68,220,49,573,486,52,26
84,73,228,58,572,499,53,30
97,67,208,55,638,533,54,31
128,72,226,57,646,565,53,33
130,79,195,62,655,578,57,33
123,79,167,62,720,626,58,32
123,77,176,57,744,623,56,29
114,80,180,60,711,629,53,29
78,74,154,60,707,622,52,27
64,58,146,57,699,624,42,25
59,54,164,60,664,594,44,30
82,62,143,61,645,591,42,29
87,67,145,61,631,565,43,28
92,70,164,70,616,545,44,29
91,70,172,69,605,535,40,29
101,75,172,78,591,526,37,26
120,85,219,79,590,538,38,26
131,86,237,79,596,553,40,27
128,85,232,78,620,583,48,25
132,86,240,80,624,568,50,26
128,84,245,72,612,560,50,24
110,71,209,73,607,537,52,25
97,65,190,71,601,515,51,24
96,70,224,89,593,503,42,23
99,75,238,91,570,501,42,26
102,81,227,87,581,529,44,28
83,75,220,86,597,564,40,28
81,76,240,85,602,575,43,29
80,75,227,60,603,596,43,29
73,67,218,63,638,628,43,27
69,64,216,71,639,620,40,27
81,65,219,69,631,602,40,28
87,66,200,78,622,579,40,29
89,77,217,95,620,556,41,33
86,79,205,89,594,529,44,36
96,78,200,84,577,501,45,35
84,78,196,85,562,491,45,34
71,80,200,79,570,525,43,34
87,76,160,51,562,529,41,32
96,79,159,53,566,537,41,30
97,77,158,52,565,552,40,29
104,80,184,55,579,576,45,30
107,78,166,57,593,575,44,29
92,75,160,63,625,596,47,29
85,71,150,60,644,600,46,28
71,68,152,59,670,621,47,28
103,67,110,61,666,606,46,30
107,66,131,58,674,606,47,29
116,59,118,53,661,600,46,31
115,65,149,56,644,592,45,35
138,77,172,67,620,562,44,37
113,84,183,65,624,565,42,35
122,95,198,66,618,566,44,38
116,94,203,73,612,557,47,34
117,96,188,73,606,542,46,35
98,90,171,61,616,558,43,35
95,81,163,55,603,550,44,33
86,71,147,55,608,555,45,31
90,75,173,53,594,535,42,33
94,70,190,54,589,544,44,28
93,65,188,56,589,535,45,25
91,67,189,56,585,524,45,27
92,63,178,59,557,507,41,29
94,56,156,57,578,529,38,25
99,59,122,56,596,538,38,28
102,65,134,62,585,539,43,32
102,69,141,62,603,554,45,31
102,73,150,54,613,568,48,30
105,78,142,51,597,556,48,31
102,80,176,54,582,542,43,27
100,77,171,48,577,529,43,26
103,74,163,56,542,508,38,26
95,66,150,57,525,471,36,25
93,71,170,59,542,499,36,26
106,69,144,55,548,501,45,28
99,71,141,59,547,511,40,25
97,69,157,56,551,518,41,25
101,76,166,63,563,528,44,27
110,78,152,66,537,488,50,28
92,84,147,74,529,486,44,27
103,85,173,81,521,471,47,30
117,88,150,79,518,475,46,34
114,83,139,73,528,485,42,33
115,84,129,70,524,481,49,34
114,72,134,61,514,466,53,37
107,68,94,47,517,471,55,36
131,68,110,45,517,466,57,36
131,73,114,55,474,433,59,34
117,63,116,55,489,450,49,30
120,62,119,56,474,446,45,28
119,62,148,68,464,435,47,28
92,68,154,65,463,439,46,24
93,67,159,60,501,464,45,26
91,60,161,65,492,462,45,29
90,61,151,67,537,497,51,28
94,63,143,55,560,528,45,28
97,59,131,61,569,541,42,29
97,55,129,66,582,571,45,32
98,58,130,60,601,576,43,30
99,55,131,61,576,570,41,30
98,55,128,61,588,569,46,31
91,51,137,61,598,566,48,32
87,52,134,57,585,544,47,27
94,56,150,61,589,553,50,30
98,60,153,56,591,538,47,32
105,59,144,55,555,514,43,30
110,68,165,54,569,525,44,28
111,66,177,49,544,508,45,31
104,60,166,45,549,513,43,28
97,57,165,56,585,550,44,26
88,63,186,61,609,558,45,25
70,62,175,68,583,536,42,28
81,62,169,70,610,565,45,26
85,65,168,76,587,552,47,28
88,68,191,75,548,519,42,28
87,72,175,72,564,529,43,32
87,62,167,79,569,537,46,32
97,72,173,80,551,507,46,34
96,70,176,75,585,517,43,33
95,67,153,69,604,550,44,36
92,62,167,68,604,555,43,32
88,62,159,55,629,578,46,32
74,54,148,54,638,587,47,33
81,57,161,55,633,572,48,33
81,56,159,57,643,552,49,29
80,51,155,57,636,536,47,29
83,52,154,54,610,497,47,28
80,48,162,53,610,486,40,25
82,51,140,49,575,473,40,26
84,57,142,44,553,454,40,27
85,58,139,42,553,454,43,29
92,67,146,47,543,443,39,30
83,67,137,47,515,453,43,29
102,66,139,54,527,470,43,32
100,61,149,56,514,484,42,33
100,61,135,58,489,494,48,30
93,51,130,55,547,531,49,29
102,51,148,59,587,541,46,30
76,48,155,54,620,553,49,26
85,70,171,54,637,554,52,26
88,68,177,55,643,546,45,28
99,81,189,55,599,521,44,27
95,82,174,48,567,493,44,28
103,91,180,53,504,446,41,28
103,77,161,52,492,423,37,27
98,79,161,50,481,392,37,27
84,65,144,57,461,379,34,27
79,66,169,59,441,379,35,26
68,58,166,60,445,387,41,27
65,65,183,70,417,382,47,27
88,65,174,68,406,379,48,28
91,68,171,65,417,381,48,29
96,69,156,68,542,456,48,28
116,73,154,67,615,525,47,31
112,73,122,60,652,563,47,31
104,71,146,67,668,593,52,28
113,67,159,63,673,607,51,29
115,65,154,64,574,540,51,29
96,56,152,66,505,482,51,26
96,55,151,67,457,434,48,26
90,56,148,73,410,382,48,30
95,61,146,73,374,331,49,28
84,63,152,68,363,323,47,28
85,66,146,65,317,290,45,28
85,71,162,68,308,273,43,28
102,70,151,61,347,304,40,25
87,71,165,63,344,305,44,26
97,74,166,67,523,483,43,27
103,83,183,69,905,858,41,27
103,80,187,65,939,893,40,27
86,86,192,62,944,904,40,26
93,93,186,62,1102,1063,35,30
94,92,175,59,1103,1064,37,30
91,92,160,55,882,863,38,30
100,83,149,62,873,856,36,29
113,81,146,64,879,863,38,35
111,68,130,65,711,672,46,30
107,65,136,69,597,564,47,31
110,71,140,70,528,465,49,32
107,92,133,67,478,400,51,35
93,90,136,66,439,347,47,30
90,98,153,66,382,322,48,32
91,138,161,65,375,321,44,32
107,130,165,68,379,328,45,34
109,123,183,66,389,344,47,33
109,129,175,76,397,356,53,32
108,127,178,88,419,371,49,31
119,86,189,87,429,382,50,31
103,87,183,84,431,382,48,28
91,80,180,83,423,382,47,26
100,79,175,74,416,364,42,30
99,109,188,63,416,354,38,35
101,118,182,70,555,500,39,35
105,118,189,76,825,764,41,37
111,119,174,103,919,959,46,37
101,117,201,110,1081,1247,51,37
107,89,196,109,1115,1294,54,33
96,78,189,104,1074,1264,59,33
95,93,195,98,890,1138,56,30
92,95,201,71,808,993,52,29
101,98,212,66,595,629,47,25
123,97,191,71,544,558,46,23
125,95,199,78,503,515,42,24
121,78,181,82,479,477,42,23
125,79,177,80,494,462,42,24
125,93,141,73,470,427,40,24
108,92,149,63,449,415,40,25
103,91,145,57,457,422,38,24
104,91,153,66,446,422,42,25
101,86,160,67,436,419,43,26
111,71,160,68,459,424,43,26
115,69,160,70,453,412,46,29
128,83,151,69,464,439,46,31
124,84,154,59,542,490,44,31
124,100,151,61,544,506,44,32
113,91,152,59,591,578,43,32
116,97,165,65,914,852,39,31
102,87,200,67,1048,883,44,31
102,84,197,70,1033,873,49,34
111,74,208,75,1031,870,51,34
120,87,207,78,1012,837,54,33
113,79,192,72,764,577,55,37
110,78,151,67,592,540,49,36
116,95,148,60,611,546,51,35
110,99,150,50,602,564,50,34
94,96,144,44,617,558,47,33
95,95,150,43,681,657,46,28
109,103,169,46,849,792,50,28
113,94,171,59,845,807,42,26
109,85,148,75,843,789,45,23
108,80,151,90,809,807,53,23
105,88,155,109,739,789,62,24
91,76,143,120,570,808,64,23
85,76,156,128,655,991,72,26
100,80,159,127,814,1223,72,29
102,76,167,119,1090,1407,67,31
126,77,168,102,1254,1430,61,32
126,80,172,86,1261,1350,61,32
125,76,154,65,1218,1219,54,33
114,69,184,52,1148,1010,54,32
125,72,188,59,922,746,69,39
130,68,184,60,738,684,67,40
135,66,174,64,919,859,65,40
134,69,185,76,914,855,67,39
135,77,161,73,871,821,65,39
127,81,184,68,830,766,50,32
90,76,176,74,760,687,49,29
81,75,183,79,391,360,47,29
91,74,175,89,278,248,42,27
87,64,168,103,216,188,43,26
88,55,121,100,572,477,43,27
107,68,132,96,738,677,43,31
117,70,130,93,913,823,43,32
112,73,149,77,977,871,41,33
117,75,169,56,1035,925,40,33
115,74,174,56,931,861,38,32
93,62,173,57,839,743,40,30
80,63,164,49,692,629,44,25
91,62,169,55,672,616,45,26
88,59,152,57,639,581,44,25
84,65,210,69,599,547,47,24
113,64,213,67,601,543,45,24
118,64,227,75,605,552,52,28
118,63,225,71,577,541,54,30
120,66,234,81,563,541,59,31
122,61,184,70,707,680,56,33
109,68,177,74,885,851,56,32
116,76,198,80,916,872,47,29
108,74,184,94,961,964,48,26
106,71,182,99,995,1084,44,27
114,75,190,117,1001,1205,58,34
109,67,191,121,1044,1317,62,35
92,61,164,126,1229,1468,66,36
90,71,186,117,1246,1446,64,36
93,74,173,106,1250,1387,65,35
84,74,172,93,1195,1232,56,28
88,77,168,89,1036,1005,53,28
92,81,192,87,781,734,50,30
90,72,179,83,704,659,47,29
91,79,180,86,662,595,52,31
96,78,175,84,628,568,52,31
91,75,176,80,605,545,49,29
94,68,145,66,602,556,49,29
95,66,140,67,605,564,48,31
89,59,161,62,602,585,39,28
101,57,151,56,619,601,43,28
99,68,164,58,647,615,44,29
92,67,170,64,659,621,43,26
98,69,174,75,670,647,46,26
113,66,157,74,688,645,44,28
99,81,177,73,690,634,42,30
100,77,183,74,690,648,43,29
104,82,178,66,926,826,41,30
98,88,184,60,929,835,42,32
88,89,190,65,917,829,43,32
92,81,200,68,917,825,37,31
95,80,206,68,889,789,45,30
97,79,228,69,571,544,47,31
99,73,210,64,484,433,46,28
100,70,207,63,404,353,48,27
105,64,194,56,290,259,49,26
104,61,191,56,188,174,38,27
100,56,156,59,136,123,36,26
107,55,166,60,405,363,38,24
97,56,189,60,589,568,43,25
83,54,179,64,697,686,46,25
79,52,158,61,783,775,47,24
80,59,187,68,838,831,52,25
61,61,189,67,782,802,49,24
59,61,172,65,718,726,40,23
68,63,194,64,691,682,45,24
66,62,196,64,656,625,47,22
67,54,177,54,649,601,43,23
82,52,173,59,662,587,47,25
95,59,160,61,631,557,49,24
100,67,155,64,602,520,43,25
102,67,148,64,585,500,47,28
106,74,158,64,548,474,47,29
99,77,163,63,498,459,45,30
94,71,172,65,706,668,43,29
102,67,152,63,751,718,46,28
100,70,156,68,757,737,41,25
94,66,144,73,785,759,41,24
96,66,149,84,807,761,53,23
93,68,146,92,611,582,55,23
78,63,165,105,511,533,58,23
85,61,177,116,481,629,67,30
89,60,180,125,504,798,71,32
91,58,173,121,658,1032,66,33
104,53,170,115,961,1189,66,35
97,50,155,104,1102,1190,62,35
92,49,141,87,1266,1261,51,31
97,46,127,67,1324,1218,44,30
91,38,122,56,1277,1051,42,29
75,52,122,49,1091,878,39,26
79,54,110,45,981,885,38,27
85,58,109,42,769,697,38,27
79,59,119,45,625,566,36,26
90,65,119,48,562,522,33,25
91,62,128,48,570,553,31,27
98,68,129,55,544,532,36,29
98,70,153,57,545,549,39,29
98,71,172,65,582,592,42,29
100,68,174,66,585,601,42,30
114,65,167,65,566,582,42,31
108,66,167,71,598,608,41,31
105,67,149,72,607,603,39,31
105,72,144,81,570,584,41,32
93,74,145,81,602,599,42,31
84,78,139,83,577,593,44,31
97,79,172,82,757,733,42,29
95,77,173,89,792,772,42,29
102,76,156,80,809,779,41,28
108,83,177,79,805,770,40,27
100,84,191,82,825,766,37,28
97,80,161,80,603,575,35,29
104,85,167,73,494,462,35,27
96,80,164,70,411,376,33,26
87,73,155,67,312,286,34,28
99,68,141,63,196,186,36,26
92,66,145,57,153,139,35,23
87,59,132,58,132,116,32,22
85,62,139,60,521,506,34,24
89,63,125,63,745,730,35,23
82,62,161,65,849,830,34,24
102,68,167,63,895,882,37,26
108,70,178,65,952,926,39,29
110,71,197,71,859,847,41,29
107,69,189,71,698,689,41,29
104,72,158,71,632,628,43,28
87,66,143,72,625,603,41,29
88,64,131,66,590,576,41,29
88,70,90,52,569,532,43,30
94,71,113,49,605,565,41,30
94,71,128,46,570,532,42,30
99,78,134,52,556,543,42,29
88,74,139,54,556,557,43,26
109,72,148,58,537,568,41,28
106,72,140,57,793,814,40,28
117,68,128,72,823,826,38,30
112,57,130,93,830,861,44,27
112,55,119,102,849,946,46,27
103,51,148,116,933,1147,60,28
104,52,158,128,889,1230,69,29
90,55,166,128,1107,1444,72,29
96,58,170,113,1152,1463,68,31
101,61,192,103,1167,1434,66,31
95,62,194,96,1136,1298,54,30
110,65,235,93,1020,1072,43,26
111,63,239,82,756,760,52,26
104,61,241,81,680,671,53,25
115,61,231,85,638,621,53,25
118,65,209,72,579,557,51,25
112,62,160,60,580,524,51,26
112,62,149,60,611,519,36,26
114,65,149,65,601,504,38,26
118,71,168,72,578,484,41,29
115,70,166,78,586,507,41,26
107,67,166,72,617,592,42,25
116,69,181,75,669,662,43,24
120,66,175,75,665,657,46,25
101,63,158,63,668,658,47,23
94,58,161,55,654,643,47,23
91,65,150,60,565,541,47,26
95,66,145,65,486,498,48,29
101,65,158,61,877,838,44,29
105,72,157,65,891,850,51,31
104,69,155,73,898,856,49,33
105,63,161,78,921,882,50,34
104,80,183,76,896,839,48,32
87,80,166,79,488,471,44,30
85,78,181,80,406,395,31,30
87,81,188,78,329,319,37,32
87,82,187,69,223,212,45,32
71,71,164,64,145,138,44,32
91,77,173,61,533,528,51,34
86,72,157,57,712,701,51,33
98,75,188,60,853,832,47,33
111,74,180,62,926,889,42,33
107,67,171,63,964,910,45,32
93,77,172,61,846,798,48,33
108,80,208,78,763,699,56,35
103,76,170,70,638,575,56,34
100,81,182,75,563,518,56,35
100,83,185,75,522,502,55,35
100,84,225,98,512,471,52,36
88,81,195,84,443,417,42,31
80,83,195,85,427,391,43,31
73,77,195,81,412,378,41,27
74,80,211,82,403,377,39,26
78,64,162,53,381,342,34,25
78,67,156,53,405,382,39,25
77,66,196,62,396,395,43,25
70,71,198,63,444,421,44,25
73,66,179,68,485,456,47,25
73,70,177,66,478,460,48,26
69,64,179,66,579,565,49,27
69,68,151,58,888,837,50,27
73,67,143,69,973,1000,54,26
111,80,159,86,1149,1279,62,35
108,75,166,87,1265,1377,64,32
108,80,168,91,1241,1351,60,32
109,75,162,94,1069,1221,57,32
107,71,157,82,984,1087,53,32
72,63,152,65,759,733,41,22
70,67,146,63,590,559,38,26
91,67,164,57,578,533,36,25
97,65,154,52,540,490,33,25
96,68,172,59,526,488,36,25
91,60,174,53,532,478,35,26
96,63,173,52,496,436,34,26
91,66,153,57,483,413,37,28
89,68,165,59,489,405,38,27
104,79,157,54,485,403,37,30
110,88,159,59,463,411,37,30
107,89,167,64,505,446,38,28
99,100,174,63,498,460,36,26
94,102,167,58,521,495,43,27
86,95,151,59,540,500,44,23
108,89,139,52,616,577,44,27
118,85,144,51,840,763,45,27
120,76,145,55,894,796,46,29
139,87,152,62,931,813,43,32
141,88,161,65,928,810,53,34
125,82,170,70,869,736,52,30
118,86,156,74,600,495,52,31
121,82,144,72,462,389,52,31
97,68,135,69,283,243,51,28
103,75,133,73,195,164,40,29
101,82,108,68,163,133,45,30
109,82,130,64,434,438,45,31
109,81,156,58,626,614,45,29
109,81,154,53,795,761,42,29
95,72,173,50,872,823,45,26
90,69,186,73,936,868,47,26
70,65,185,71,886,802,47,25
71,69,159,73,838,740,47,25
87,71,160,73,750,644,47,26
89,69,149,74,709,610,46,27
93,70,137,51,662,582,44,25
100,77,145,52,654,566,48,27
93,81,162,55,628,560,49,27
93,81,163,54,611,552,49,26
106,84,160,56,613,549,49,28
103,82,155,56,625,571,44,27
103,76,153,59,701,667,40,26
103,61,176,70,1004,915,38,24
107,82,195,83,1002,922,45,25
115,83,201,81,981,912,45,25
126,93,207,81,957,887,44,27
122,96,205,83,870,794,44,26
119,99,173,86,393,397,47,26
106,80,152,80,277,305,42,25
84,76,149,90,214,245,46,22
90,66,144,104,171,312,47,21
91,63,129,107,532,625,49,25
93,67,182,99,742,768,46,26
96,66,179,94,870,879,47,28
110,73,168,82,954,930,44,29
91,70,175,63,1008,945,42,28
87,69,181,60,928,822,43,27
92,64,125,59,815,734,43,28
101,67,118,60,714,633,44,29
101,70,137,64,655,603,43,27
113,78,165,70,610,572,46,27
118,78,172,67,573,542,43,25
112,76,171,64,557,523,42,25
109,81,177,68,593,533,38,24
109,74,162,62,615,572,41,28
99,67,130,59,646,605,43,28
95,65,132,58,743,726,43,29
95,63,140,57,906,897,42,27
89,69,157,90,905,1010,50,28
71,68,157,102,983,1197,54,26
97,76,171,118,1101,1412,62,34
98,83,173,125,1244,1557,69,36
104,84,178,125,1159,1480,70,37
107,70,175,100,1159,1411,67,38
107,70,197,91,1106,1264,60,38
104,66,196,67,1003,1022,54,32
120,62,182,50,732,683,44,29
120,67,185,60,706,671,45,28
114,68,177,63,709,666,41,24
120,79,162,62,671,616,48,24
107,80,159,66,616,569,46,23
86,83,153,67,606,540,48,24
99,88,169,62,574,510,47,24
101,88,177,64,529,493,48,26
92,77,187,61,515,496,44,24
82,73,182,61,525,511,45,27
92,69,181,57,542,545,44,26
75,57,164,59,576,598,45,24
71,58,168,55,608,607,46,24
66,61,164,54,638,622,42,25
85,65,166,52,680,650,36,23
82,67,180,60,720,693,36,25
83,67,167,58,925,869,35,25
87,69,171,60,939,901,33,28
97,65,165,69,921,892,32,27
91,59,153,72,896,875,33,28
83,58,146,72,848,818,35,26
81,64,157,75,571,558,42,29
80,62,133,76,466,440,42,26
73,64,117,69,394,367,44,29
63,61,124,71,320,286,44,29
72,61,132,67,249,219,44,32
74,59,129,64,191,171,37,30
77,56,135,63,607,548,38,33
74,56,136,60,797,724,34,30
76,64,151,52,896,825,34,29
95,78,150,52,972,911,32,31
94,76,147,47,1030,964,32,31
91,79,152,40,897,848,32,30
97,88,179,42,786,742,36,32
99,85,163,45,714,666,39,31
98,82,155,43,635,568,39,27
96,81,147,41,568,506,38,29
95,78,136,44,560,494,36,27
87,68,107,46,508,468,33,26
83,73,117,47,479,461,30,27
67,70,133,49,516,494,29,27
94,70,136,49,539,497,29,25
91,71,151,56,544,529,30,26
98,71,150,57,750,726,33,26
105,63,150,56,792,759,34,27
103,51,154,65,782,757,35,27
92,49,159,75,792,776,36,25
93,52,160,81,784,765,40,24
90,54,158,92,592,595,46,25
88,60,148,110,517,613,50,22
93,64,133,114,530,764,55,27
93,69,164,123,599,955,63,29
96,85,151,122,811,1142,66,31
106,84,155,113,1043,1218,64,32
101,84,158,97,1142,1188,62,34
90,92,176,85,1272,1222,58,31
82,97,161,62,1275,1118,48,29
87,82,157,48,1167,929,40,27
76,83,156,43,989,858,38,27
108,92,171,39,881,859,36,27
112,88,179,43,653,650,37,26
112,91,160,42,566,561,41,27
113,93,169,50,505,514,46,28
114,92,170,52,452,437,45,25
84,84,161,54,459,437,43,24
92,80,150,56,508,478,42,27
91,74,170,59,484,468,41,26
82,74,168,54,523,500,36,25
103,78,179,53,557,525,35,26
133,91,173,53,552,510,36,29
123,92,155,49,523,492,35,25
130,88,136,44,538,503,35,25
131,88,148,46,493,469,35,24
119,89,151,47,476,459,39,25
98,76,145,44,471,464,37,24
104,93,162,51,682,682,43,27
93,91,161,60,722,715,41,26
100,86,163,65,759,744,39,29
100,85,153,71,782,755,37,28
90,83,161,75,803,759,39,25
82,74,160,71,607,534,33,22
83,73,173,76,519,448,34,25
76,81,163,80,431,363,39,23
80,90,172,75,331,276,36,24
74,96,186,73,206,178,34,24
89,89,189,80,137,120,37,24
95,90,177,72,433,436,35,24
90,90,176,66,595,585,31,27
81,85,165,65,701,676,33,28
84,81,153,66,771,748,36,30
70,79,144,54,802,780,34,31
91,81,154,51,724,692,35,30
97,72,154,48,648,616,33,27
98,70,148,51,576,549,32,26
106,71,150,48,508,477,30,27
119,73,138,49,513,472,28,26
103,84,132,54,511,458,31,26
102,90,145,55,487,436,32,25
108,97,158,50,494,442,31,25
116,95,151,52,499,440,31,26
115,95,180,53,479,423,32,27
136,88,179,56,479,416,30,29
155,87,204,64,474,403,36,34
154,81,200,65,481,414,41,35
146,85,201,69,512,440,43,33
147,83,178,69,515,439,43,32
128,85,177,60,507,448,42,30
107,82,142,51,530,481,40,25
115,89,155,56,497,448,39,21
120,80,163,52,464,422,37,23
115,110,180,51,478,433,38,25
112,109,193,55,493,436,39,24
107,109,185,54,516,439,37,26
110,103,168,54,567,487,35,28
108,120,186,56,595,521,34,28
112,96,176,56,584,514,33,26
112,96,175,54,594,527,31,28
121,101,178,56,564,504,31,27
145,103,184,53,515,468,28,29
146,88,167,49,506,460,28,28
143,90,166,48,512,465,29,30
144,89,152,49,490,464,31,30
140,81,157,51,503,480,30,30
119,72,145,50,547,495,32,29
119,69,130,57,641,571,37,32
122,61,142,58,700,637,37,30
122,61,146,55,707,627,37,30
123,61,149,54,693,614,37,29
133,68,170,56,668,595,37,33
124,66,172,49,543,481,36,30
118,65,157,49,435,363,35,30
115,63,156,57,396,341,37,28
116,66,146,57,391,366,38,31
88,60,138,58,357,354,37,24
87,68,169,58,382,385,35,25
82,72,163,64,433,416,36,27
93,75,178,58,436,420,36,26
86,77,185,59,421,391,34,26
80,79,186,53,437,400,31,26
91,76,150,59,436,383,32,30
90,80,174,53,401,368,27,27
99,77,178,53,397,369,29,30
99,71,174,53,403,365,27,30
99,69,160,56,404,381,30,32
120,84,171,52,404,401,31,30
126,82,149,49,405,388,30,29
112,83,122,51,420,383,29,28
113,84,112,57,422,395,31,26
113,93,136,58,410,371,31,25
93,80,131,56,386,343,32,25
99,77,152,57,396,364,33,27
95,79,145,52,387,359,32,25
97,79,147,44,370,336,29,27
98,68,130,37,378,344,26,26
102,63,135,38,372,347,25,25
94,82,119,38,363,337,24,25
98,80,128,43,376,355,29,27
99,83,126,48,393,373,33,26
107,101,132,50,393,385,35,27
91,103,123,50,418,404,36,29
82,91,117,51,429,411,36,27
80,90,118,51,448,436,35,28
76,91,118,46,462,449,34,29
85,72,123,48,479,455,34,30
85,67,134,48,472,457,33,28
93,68,137,49,463,442,36,29
93,64,133,48,431,400,34,30
103,64,143,49,402,377,31,28
101,65,146,45,390,360,32,28
103,65,138,45,390,344,35,27
101,60,145,42,416,367,33,26
103,62,163,47,434,382,34,25
90,56,160,47,444,392,36,25
75,47,154,49,439,399,37,25
85,80,159,56,454,418,36,26
88,87,157,61,425,405,39,27
126,91,139,55,402,391,36,29
127,92,134,55,412,393,35,29
130,103,161,55,451,413,31,30
144,89,162,47,446,407,29,31
150,83,155,37,481,434,25,30
116,80,165,39,532,465,27,26
117,85,175,41,536,469,30,28
114,74,151,40,539,470,29,25
96,74,146,38,567,493,27,26
83,72,149,39,544,485,28,26
100,74,157,39,530,478,27,27
107,75,153,38,541,481,25,28
118,84,155,40,504,452,27,31
108,73,146,41,483,437,28,28
108,73,145,44,502,434,28,28
99,80,121,42,477,414,31,27
115,89,111,43,485,422,30,26
108,80,102,43,538,484,29,22
114,81,103,46,544,487,31,23
116,84,100,44,566,514,31,23
118,81,98,47,586,527,29,21
113,75,108,51,597,526,30,23
109,78,121,53,607,519,32,25
103,80,123,50,635,530,32,25
106,86,129,50,620,509,30,25
111,79,131,49,644,525,28,25
96,68,135,47,640,530,27,23
96,68,133,46,611,501,29,23
99,64,129,47,604,502,28,23
117,73,129,49,592,499,30,24
111,72,162,48,578,490,34,29
110,76,163,45,586,513,33,28
109,76,172,48,614,537,33,26
122,85,191,53,639,551,33,26
105,79,194,50,682,588,34,25
115,89,168,51,691,590,32,23
129,85,168,53,684,553,33,25
129,86,153,57,673,554,31,27
115,79,134,54,654,539,31,27
111,67,130,54,618,510,30,27
94,56,123,53,617,532,30,26
88,60,129,53,635,561,30,27
100,58,131,44,644,572,28,29
101,61,130,46,646,589,29,29
102,66,131,52,651,607,29,31
99,70,135,51,665,610,28,31
100,75,120,47,653,606,27,30
86,75,121,44,640,580,29,27
97,72,137,44,637,567,29,28
114,70,152,38,637,550,30,25
116,69,155,39,595,520,32,24
122,79,158,41,570,501,32,24
128,82,158,50,573,529,34,27
120,91,147,52,560,522,32,28
107,89,135,53,568,528,30,28
112,92,134,53,591,559,28,31
103,77,140,54,631,572,29,30
94,75,174,49,629,568,31,30
98,68,169,43,633,577,31,28
93,68,169,43,647,593,31,28
89,67,172,47,643,586,33,26
129,79,164,45,635,601,37,30
132,78,122,42,629,582,32,27
131,75,121,41,609,563,33,28
136,75,112,43,576,535,34,30
134,75,128,44,569,506,33,30
101,69,135,44,544,478,29,28
102,75,143,45,527,487,31,27
96,75,150,48,558,505,31,28
95,82,170,52,581,523,31,27
99,78,161,44,589,553,30,25
94,76,161,52,594,560,32,23
95,70,156,53,611,560,30,25
96,72,168,52,615,549,29,25
84,64,147,55,646,533,29,25
81,61,140,59,638,508,31,25
73,61,142,55,657,519,28,26
67,58,156,56,645,522,31,24
81,64,142,58,627,533,34,24
92,62,147,51,599,554,33,24
93,60,153,52,621,601,32,24
98,59,175,55,653,641,33,25
95,60,170,51,659,645,30,26
86,65,166,51,676,655,32,28
75,69,162,55,677,643,33,26
89,81,152,51,658,600,32,28
82,81,129,50,616,547,30,26
90,88,128,52,606,523,30,29
91,79,132,50,576,498,27,26
111,85,131,47,560,496,25,26
131,96,138,48,555,506,28,27
131,101,145,43,537,515,28,27
134,94,144,48,533,537,32,25
135,106,156,50,554,547,32,27
141,101,161,48,583,559,33,30
130,88,159,54,595,564,35,31
137,88,145,55,609,578,35,32
140,92,154,54,639,592,36,33
142,81,146,51,639,595,36,33
124,88,145,55,623,583,38,32
119,93,171,50,630,590,37,27
119,96,182,53,621,576,37,26
113,96,173,56,603,554,37,28
109,98,169,59,608,552,37,26
103,91,170,54,602,555,34,25
89,78,151,54,589,538,35,26
79,69,150,58,586,528,36,25
99,73,144,52,578,524,33,28
99,68,159,54,554,513,35,28
106,78,183,57,553,518,34,28
107,80,178,55,557,508,29,27
115,82,171,54,546,484,31,27
97,82,170,58,551,490,29,21
122,90,167,57,536,477,28,25
119,81,149,57,521,462,29,24
124,87,153,63,524,483,31,24
125,83,153,62,527,500,29,25
121,74,164,60,523,495,29,25
97,65,149,57,555,513,31,25
94,76,156,55,555,520,33,27
83,67,150,53,527,501,31,28
71,67,144,60,535,510,34,28
90,83,136,57,542,496,38,32
97,89,155,57,525,481,40,32
100,79,154,58,520,473,39,30
101,84,171,60,536,465,39,30
111,88,179,49,522,439,38,29
101,71,175,49,520,445,34,25
97,61,159,50,500,440,30,23
104,75,158,56,480,425,29,26
102,77,145,53,465,434,35,26
92,75,131,55,443,435,32,28
118,104,129,56,415,424,36,27
141,126,127,55,412,421,36,29
146,138,129,57,491,462,39,28
147,136,139,54,512,479,39,28
148,148,157,51,579,529,39,28
147,137,171,54,632,579,35,28
139,128,192,55,663,599,35,27
126,108,181,56,653,597,36,27
125,106,187,57,651,597,34,29
121,88,172,57,625,566,35,28
112,77,158,53,593,527,38,27
91,56,156,55,577,519,41,25
108,60,168,50,557,507,39,27
111,66,153,53,534,488,38,26
118,70,154,57,536,495,38,27
101,76,170,60,518,484,36,27
100,79,169,57,516,472,30,30
82,73,151,53,521,472,31,26
81,72,147,48,533,476,31,27
89,75,152,47,532,475,30,29
92,77,145,46,558,496,28,30
90,75,133,49,570,508,30,29
89,74,142,49,570,511,29,29
94,77,148,57,594,534,29,27
84,80,152,55,597,546,31,26
80,75,143,55,595,541,33,25
99,80,141,51,614,556,36,25
97,84,156,54,604,550,38,27
88,77,152,46,595,527,37,26
81,69,158,46,605,531,36,26
84,65,158,52,585,523,37,27
76,76,164,58,548,501,35,25
85,76,152,59,565,507,32,25
91,80,167,58,540,494,31,27
110,85,156,57,529,476,30,27
116,84,162,54,570,509,29,27
115,91,182,51,565,507,33,28
108,89,173,47,559,500,31,26
114,90,164,51,591,530,34,28
116,91,194,55,580,524,37,27
106,89,196,53,550,504,35,27
100,71,169,49,601,526,31,26
117,74,183,51,592,526,32,27
120,74,188,52,575,509,33,26
124,71,151,52,609,528,33,27
125,75,176,54,601,517,33,27
126,76,175,58,548,486,35,28
131,76,163,56,557,485,36,30
123,79,167,54,535,467,33,29
109,82,176,52,484,447,32,27
118,92,184,49,506,448,32,27
164,102,187,51,522,465,32,36
157,98,192,58,522,463,33,36
156,96,175,54,551,493,35,35
148,88,174,55,541,478,35,36
149,81,139,56,537,479,34,36
102,70,145,49,550,474,35,30
94,75,149,41,543,471,35,26
99,74,170,42,536,463,34,28
106,81,171,45,545,486,35,27
103,77,175,47,547,495,37,25
101,75,160,47,541,494,34,24
96,76,159,48,584,547,31,26
102,73,137,50,615,567,32,25
108,66,137,45,626,555,31,29
116,66,132,42,595,531,28,32
111,67,159,43,553,502,28,31
126,78,165,44,475,410,31,32
128,84,170,41,389,340,29,33
130,88,173,41,352,318,27,32
124,86,174,39,358,293,28,31
125,92,167,42,381,327,29,30
113,83,151,42,394,358,26,28
103,83,169,49,401,360,28,28
88,78,171,53,419,372,28,25
78,76,165,54,433,398,28,24
73,66,155,56,429,382,27,25
93,63,164,56,420,374,36,27
92,57,141,50,428,385,35,25
99,58,138,52,399,368,36,28
99,62,138,51,403,396,37,27
99,61,136,45,420,416,37,27
81,58,134,44,403,391,34,24
109,70,145,45,374,366,34,29
104,74,136,42,380,365,38,27
105,80,138,46,348,307,38,27
107,86,147,50,341,304,38,27
108,89,147,56,392,335,35,27
92,82,153,59,427,359,39,27
93,83,162,69,424,362,36,27
102,82,167,70,413,366,35,28
107,77,179,69,414,346,37,30
131,108,182,67,391,337,37,32
122,107,171,66,374,347,34,27
120,107,158,51,393,366,34,28
114,101,148,50,423,383,32,27
108,106,126,44,426,414,28,25
83,73,106,41,415,410,28,24
95,72,106,41,435,418,27,24
107,64,109,47,475,433,30,27
111,72,123,48,487,443,32,27
109,76,125,49,460,409,31,26
102,83,130,52,451,407,33,25
102,89,135,54,450,395,33,27
87,93,151,48,392,368,32,24
78,102,159,47,361,351,30,29
88,98,171,50,382,365,30,29
89,97,183,43,387,365,28,30
82,87,195,48,360,360,33,30
94,98,194,51,494,502,35,32
99,107,180,58,774,755,37,26
94,101,167,60,811,787,40,26
105,99,148,71,823,803,43,23
103,102,125,65,855,829,39,22
90,114,114,63,840,804,36,21
85,113,115,56,662,632,39,26
110,121,140,58,646,611,39,30
109,125,172,45,687,645,34,32
104,139,192,63,723,703,40,32
109,126,197,63,895,847,39,31
114,117,200,66,1109,955,42,30
89,116,201,64,1097,942,45,30
139,117,186,69,1120,964,47,32
147,102,174,54,1127,949,43,32
146,98,170,64,1000,852,44,31
144,86,164,68,761,739,39,29
146,79,140,76,766,744,33,26
95,71,145,81,676,661,32,22
85,76,144,83,574,572,34,26
84,70,141,88,463,419,39,30
98,83,147,86,310,258,38,33
102,84,163,76,221,183,42,34
93,81,151,71,299,284,43,34
92,83,149,71,490,473,43,31
90,87,148,55,626,602,37,28
76,86,164,58,729,694,39,26
67,89,159,65,784,738,37,25
105,110,179,58,790,734,32,27
108,108,176,67,743,682,41,28
111,110,183,66,673,601,43,28
105,100,169,60,598,535,43,26
111,102,168,59,604,539,45,25
77,76,144,68,586,518,46,24
79,74,145,61,573,494,37,20
83,69,130,64,593,519,35,23
96,74,135,81,614,522,38,25
90,64,126,82,596,506,35,24
104,65,122,80,619,534,35,24
102,61,113,86,628,532,36,26
94,59,106,86,620,527,35,25
80,51,86,73,611,539,33,23
91,63,107,68,609,547,38,26
78,65,131,74,598,540,42,27
69,65,154,89,581,550,40,25
69,61,158,90,576,554,40,25
66,64,164,88,611,563,40,26
46,59,151,95,613,561,36,25
63,57,137,91,616,572,31,28
77,55,130,91,647,583,33,27
82,60,142,89,658,586,45,30
85,62,157,99,649,577,46,31
86,59,171,96,656,580,53,30
72,56,170,93,652,567,55,28
65,54,170,69,616,546,55,28
63,50,173,72,592,528,50,25
69,48,176,66,566,523,47,27
66,38,163,59,545,500,41,27
66,42,178,62,556,505,40,29
56,43,176,71,571,512,50,31
59,48,177,67,588,515,47,29
53,58,160,77,601,515,53,26
63,60,165,91,601,532,62,25
62,62,163,127,611,536,66,25
71,63,166,147,610,538,64,23
64,58,161,165,608,547,66,24
60,47,176,164,586,547,61,22
60,45,172,161,582,525,51,24
60,42,160,135,587,538,48,22
50,45,149,112,581,529,42,23
67,51,149,87,603,552,40,23
78,57,170,83,630,572,43,25
79,71,196,73,644,592,44,24
94,73,191,79,627,588,40,26
96,72,209,95,628,604,41,26
87,71,209,100,611,581,46,27
85,69,177,101,607,573,47,26
82,57,144,109,595,565,45,24
66,59,166,108,623,577,46,23
66,57,151,95,625,558,46,22
74,66,176,109,624,566,43,22
69,61,186,104,637,558,40,19
89,62,197,99,647,563,41,24
90,55,179,110,626,559,38,25
89,55,175,112,628,576,42,26
82,40,145,93,623,568,40,26
88,47,141,96,611,571,38,28
73,45,133,93,616,578,40,25
70,47,163,90,620,564,51,26
76,50,174,89,619,551,53,26
74,55,167,89,618,550,53,26
74,52,159,89,590,527,55,26
81,69,164,92,569,502,55,30
85,67,137,82,538,486,47,27
84,65,126,82,516,479,43,29
84,64,134,81,503,470,43,30
78,65,137,73,518,490,41,29
63,46,140,77,525,505,39,25
57,45,138,72,549,528,37,25
51,43,143,77,566,546,37,24
59,40,154,84,593,567,35,23
60,54,159,84,610,588,39,23
60,58,147,79,642,608,86,29
64,57,157,93,643,599,93,29
63,57,147,81,649,596,95,28
55,61,149,78,646,580,95,28
49,44,154,103,634,543,98,27
60,50,166,106,582,503,62,20
70,63,159,96,557,489,53,22
75,64,167,101,518,457,49,24
74,63,158,102,495,444,55,24
77,65,149,81,500,475,48,25
69,58,132,78,517,488,48,26
65,49,145,100,536,494,47,25
59,52,140,98,550,505,48,25
61,53,140,92,552,513,41,25
60,54,144,108,541,499,43,24
58,56,144,105,540,502,40,25
59,60,172,88,546,514,40,26
63,57,186,90,561,530,39,25
63,58,194,94,571,534,38,25
74,60,189,77,583,538,40,28
75,62,220,86,586,548,39,28
69,57,198,90,566,527,43,28
71,56,188,93,536,497,44,28
73,57,188,105,530,490,49,28
60,55,197,104,515,473,56,27
64,62,169,107,493,452,55,26
61,59,168,110,479,449,54,24
67,64,177,105,495,460,55,25
68,62,171,95,486,448,51,25
67,60,168,97,489,454,43,26
62,49,162,85,503,453,42,25
61,53,170,87,513,455,44,26
72,49,166,81,531,476,40,25
69,49,158,78,520,477,40,26
72,62,160,79,508,462,37,24
74,63,162,83,511,462,36,26
84,64,166,78,520,463,35,30
72,63,155,90,492,436,37,29
73,69,170,92,508,455,40,30
70,57,171,91,547,520,42,29
68,57,174,88,557,528,41,30
68,60,164,80,570,555,42,28
66,64,180,77,604,580,39,28
69,56,172,94,604,568,45,26
71,54,167,90,572,528,45,27
73,52,164,93,579,544,46,25
66,54,174,94,570,542,47,26
61,54,167,98,569,545,62,27
56,52,159,74,569,552,56,25
55,53,172,72,563,547,57,26
51,56,181,73,535,531,59,25
53,51,203,81,537,512,56,25
56,52,199,67,518,501,44,23
65,56,200,70,512,500,44,25
64,57,186,73,545,525,40,24
69,56,181,73,552,519,41,25
74,53,137,76,553,527,42,25
70,45,126,77,584,530,38,24
72,41,154,84,580,517,36,25
76,51,166,84,562,495,37,25
72,52,156,80,578,511,33,25
70,58,170,68,557,490,33,24
72,60,184,78,536,477,33,25
58,60,158,67,561,495,33,24
54,55,152,81,557,486,34,23
63,60,165,96,526,461,40,24
55,60,164,92,571,493,40,25
57,61,162,85,543,493,42,26
62,63,166,110,517,479,45,26
62,64,172,99,539,503,45,26
49,61,170,93,550,512,40,26
54,68,164,95,511,485,38,24
54,124,183,104,549,494,41,24
58,132,199,82,547,491,45,23
57,132,194,95,554,492,48,24
71,131,186,90,606,531,49,23
70,128,182,89,623,539,51,23
68,74,159,79,626,539,51,23
62,60,143,75,661,560,46,23
63,56,144,59,631,535,45,23
49,60,152,69,588,496,46,25
43,54,173,71,594,498,44,26
47,53,166,84,558,475,40,24
65,60,158,95,523,451,42,25
66,61,169,107,560,466,43,26
68,58,170,100,561,472,43,26
73,60,150,98,544,463,43,25
73,61,164,91,561,485,45,26
64,57,177,79,566,492,43,24
62,56,219,70,533,488,44,25
61,54,214,66,542,486,41,23
56,56,220,70,562,520,39,26
54,55,205,69,567,525,37,24
47,57,195,73,576,519,36,24
47,62,131,73,587,516,32,23
48,69,138,82,597,513,37,23
49,70,127,99,576,485,37,19
43,68,128,96,649,546,37,21
60,65,129,98,683,589,36,23
65,59,122,95,683,588,35,21
68,60,113,95,649,568,30,23
68,56,133,78,627,545,30,22
79,62,154,95,517,443,30,24
70,64,165,94,439,382,33,23
69,67,174,92,397,358,35,24
77,62,180,88,401,377,36,25
76,61,180,89,428,410,39,26
71,54,165,75,423,422,42,25
66,50,163,88,407,410,44,25
69,44,159,90,422,422,44,25
58,39,155,86,420,420,43,21
61,40,140,80,399,395,42,24
64,43,173,78,409,399,38,23
66,38,168,56,410,384,33,23
64,44,172,57,431,386,31,22
64,50,173,63,438,378,30,22
62,53,175,68,435,366,28,20
53,50,151,70,411,345,30,23
81,57,143,74,398,344,30,23
77,53,135,77,368,332,32,24
77,54,128,76,363,343,35,25
87,50,114,68,380,357,35,25
87,55,110,71,424,390,35,22
70,48,113,72,441,403,34,23
77,52,120,76,437,398,34,22
75,46,125,77,443,393,34,22
63,52,143,84,431,396,34,21
60,47,137,83,393,376,32,23
54,49,138,79,388,362,34,24
43,45,131,72,386,367,34,24
53,46,133,75,426,409,33,24
51,41,135,72,448,429,35,26
53,48,161,75,465,434,34,24
58,51,179,74,462,451,34,25
77,56,177,69,500,454,31,25
81,56,180,65,449,407,29,26
83,57,180,66,412,362,31,25
85,50,151,53,429,357,31,27
80,53,155,51,428,335,31,25
65,49,163,59,377,315,34,26
75,46,164,74,400,318,34,25
77,45,161,73,414,333,31,25
79,51,172,77,408,350,37,26
75,45,147,81,442,385,36,24
73,49,140,81,453,396,35,24
74,54,128,75,463,425,37,24
71,51,119,70,482,458,38,25
70,47,119,65,491,458,33,25
73,46,132,70,508,458,32,25
74,46,133,64,535,477,30,24
64,45,154,65,513,449,32,25
69,43,149,69,505,422,32,23
64,41,142,69,512,421,32,20
62,40,138,60,464,396,32,20
68,43,149,70,445,382,32,20
53,39,124,58,477,408,27,19
47,39,130,59,465,402,26,19
58,41,136,66,469,402,27,22
59,46,146,71,501,426,26,23
52,44,158,70,498,427,28,22
52,45,164,71,509,436,26,20
55,49,159,67,545,466,26,21
53,50,196,65,514,456,28,20
50,46,189,61,491,439,29,18
49,43,172,51,513,442,28,20
51,41,170,52,488,430,33,21
54,43,176,53,509,444,33,20
48,44,119,47,542,482,33,20
61,58,128,48,572,488,32,23
62,64,146,73,573,514,34,25
64,68,156,78,602,531,32,25
60,65,158,80,574,508,33,27
61,65,170,82,561,480,34,26
53,55,157,79,582,495,35,26
52,51,160,75,571,474,33,22
50,46,160,72,550,460,32,20
50,50,166,68,537,455,33,19
54,48,160,66,550,463,33,21
62,52,168,68,528,459,32,19
62,49,150,49,528,466,31,19
65,52,177,56,555,485,34,23
67,48,161,56,586,507,33,22
62,49,158,60,583,524,34,21
54,46,157,64,630,564,34,22
54,46,164,67,640,567,34,26
58,46,127,57,633,559,31,25
62,52,134,61,655,592,31,24
64,50,151,64,651,589,28,25
71,51,168,65,626,578,28,25
74,51,177,65,639,588,30,24
84,60,185,69,641,594,35,24
80,56,188,73,642,559,35,25
88,61,182,71,678,578,35,24
83,58,161,65,669,566,38,24
86,61,159,65,669,552,37,23
72,54,165,62,672,555,33,23
80,52,164,66,639,549,31,24
72,51,168,67,605,512,33,23
73,57,172,67,580,497,32,24
67,59,171,67,709,646,34,24
75,56,163,71,870,811,36,23
66,58,163,67,909,855,38,22
61,60,155,85,896,853,42,22
63,57,156,95,892,850,46,24
80,56,153,103,756,750,46,24
83,67,147,118,524,618,51,25
84,77,151,124,502,729,62,26
89,76,162,132,662,948,66,27
98,83,165,128,878,1159,65,30
87,97,161,124,1111,1270,67,30
86,105,170,108,1259,1298,65,30
93,98,167,96,1292,1251,52,30
94,97,161,66,1261,1136,43,29
84,95,165,62,1138,935,41,24
86,79,182,60,936,781,36,23
82,79,178,62,758,705,33,24
77,81,187,64,677,640,35,23
72,79,194,67,608,582,39,24
73,83,199,74,608,588,37,24
71,88,182,72,608,577,39,26
69,79,192,69,585,557,39,26
69,77,182,72,577,564,39,26
75,86,176,71,578,553,40,27
78,97,178,68,585,555,40,27
75,94,170,68,567,546,39,26
69,85,156,68,615,585,39,24
65,89,177,73,634,593,42,26
59,85,173,67,650,614,40,25
45,63,154,63,648,609,40,25
41,69,165,64,705,684,36,26
56,69,159,76,804,788,42,28
60,64,134,83,841,828,37,26
55,62,151,89,834,824,33,29
63,63,154,97,820,814,32,30
65,61,147,99,762,742,34,29
55,63,145,95,574,556,28,28
51,65,154,87,430,412,29,27
70,65,136,85,346,329,29,24
62,70,180,109,249,237,46,25
70,64,180,115,178,171,47,24
72,69,200,111,216,212,47,23
72,69,199,108,552,546,47,24
68,75,206,111,697,686,49,22
70,72,166,81,820,800,37,21
72,71,160,68,907,880,34,23
81,67,132,66,941,918,36,26
84,68,155,83,847,812,35,28
78,66,147,80,778,743,32,30
83,67,149,76,689,651,29,27
77,71,156,74,617,576,30,27
73,71,163,78,590,548,30,26
72,71,149,63,557,520,29,23
69,72,144,65,556,510,30,22
69,73,140,67,557,519,29,24
70,67,139,68,561,536,28,25
62,65,160,69,549,521,32,25
59,59,150,66,551,549,33,24
68,56,152,76,647,636,36,27
66,52,156,87,710,695,38,26
70,63,148,100,728,708,39,26
77,65,127,110,747,714,37,24
82,69,136,128,775,825,45,26
73,65,142,137,730,892,51,28
71,67,137,140,804,1061,58,32
62,58,142,136,999,1260,65,33
60,59,145,129,1201,1402,66,33
51,51,123,110,1217,1358,63,34
58,51,116,87,1219,1290,56,30
57,62,148,78,1150,1143,51,27
58,60,143,72,979,914,44,25
58,60,167,75,705,671,43,24
58,63,168,74,639,611,39,22
55,64,180,73,606,564,40,22
54,51,168,63,556,495,37,22
52,53,172,64,541,472,33,22
44,48,141,57,558,476,32,23
44,46,146,59,549,465,32,23
50,50,135,56,527,462,32,24
53,46,120,72,544,491,31,22
55,49,129,68,521,480,33,22
55,51,136,73,489,458,31,22
63,55,138,73,515,473,31,25
67,53,149,89,507,466,33,26
66,57,149,76,497,446,33,28
65,59,154,83,555,496,34,28
79,62,144,81,542,503,32,26
82,62,139,92,688,637,33,27
89,65,144,87,722,682,32,29
95,72,154,101,749,713,31,28
97,68,142,98,737,697,27,28
89,63,145,94,747,692,29,29
84,62,138,87,564,534,26,28
83,59,117,77,478,443,25,22
79,48,99,65,379,342,24,21
84,53,105,65,267,241,33,25
80,53,97,67,163,152,35,28
78,57,132,69,146,141,36,27
66,57,136,76,518,506,37,28
60,55,132,71,664,657,37,29
63,60,166,81,779,766,39,29
66,61,173,82,845,836,39,27
62,53,169,80,902,892,38,27
57,50,162,74,805,797,39,27
56,49,164,79,734,717,41,27
55,43,167,71,661,643,35,25
53,44,174,69,645,615,32,23
70,49,162,66,606,578,35,25
72,50,173,66,585,552,32,24
78,55,179,65,599,570,34,26
78,51,137,56,592,571,35,26
81,50,125,63,564,541,36,27
71,46,121,60,567,544,32,27
85,47,114,58,546,549,32,28
84,44,139,62,768,756,29,25
77,46,145,66,784,767,26,23
74,47,144,79,798,788,31,20
75,49,169,100,835,835,36,20
60,56,164,111,875,938,40,21
61,54,150,125,744,927,47,22
55,59,142,132,838,1101,57,25
60,58,148,126,1054,1323,58,29
67,60,116,114,1223,1429,58,29
69,62,124,104,1348,1421,56,28
76,62,127,85,1392,1376,50,28
77,56,143,71,1338,1245,38,26
76,65,150,69,1183,1000,36,23
65,60,148,63,994,812,33,23
62,49,146,68,801,709,33,25
50,51,135,63,646,617,31,23
54,51,137,65,833,807,33,25
56,41,115,61,810,796,29,23
59,51,158,68,784,776,28,24
59,52,161,60,765,765,26,20
56,51,159,70,754,733,27,20
60,55,144,77,468,441,27,17
80,52,153,88,408,384,30,17
80,43,126,95,337,361,35,16
82,49,135,105,543,571,39,18
86,56,151,104,697,701,41,20
86,54,158,96,788,779,39,21
66,55,166,89,842,833,38,22
66,55,165,81,896,854,35,21
66,55,146,68,905,866,31,21
65,47,137,70,1004,948,29,21
75,46,133,77,961,908,31,23
79,52,121,73,985,934,30,22
77,55,122,69,1020,963,29,23
76,50,138,72,971,890,29,25
76,52,128,65,779,740,28,25
62,54,124,57,788,758,26,24
59,53,127,53,733,702,26,26
64,58,136,57,658,650,32,26
64,58,120,56,584,624,30,23
69,61,120,59,817,850,32,25
67,58,130,80,813,899,43,26
71,54,118,97,885,1076,47,24
66,44,99,105,1000,1290,50,27
81,50,100,114,1206,1495,59,32
72,47,122,118,1262,1531,62,32
72,50,119,107,1397,1532,57,33
65,47,123,90,1456,1492,55,33
66,53,123,78,1431,1361,52,31
64,49,119,64,1286,1141,44,28
67,47,93,49,1084,909,38,26
67,49,107,44,884,831,36,26
76,53,107,49,702,679,35,28
76,48,119,44,568,558,31,27
74,57,141,41,513,485,30,27
70,57,147,46,473,434,31,29
71,57,144,49,455,410,30,27
77,62,144,52,475,404,28,27
86,61,141,58,462,376,27,29
74,53,125,57,428,371,29,27
77,57,166,58,463,402,31,24
76,52,161,55,493,424,31,26
70,50,162,57,462,423,33,24
74,61,154,55,505,454,35,27
74,63,173,65,500,449,33,26
73,59,134,61,471,433,31,26
93,63,143,63,492,455,34,26
88,71,146,57,546,530,34,26
85,66,145,54,873,822,31,23
84,64,126,51,909,856,32,25
86,63,121,55,917,866,30,27
65,60,100,54,946,896,25,27
61,45,89,51,944,880,22,27
54,37,88,51,685,658,25,26
53,35,69,43,664,639,29,25
46,35,78,44,711,698,30,21
48,32,104,49,814,788,33,20
51,36,104,64,791,751,38,21
63,43,102,85,740,731,43,20
65,43,101,101,772,819,43,18
72,52,111,108,785,940,54,25
73,55,97,125,767,1045,59,28
78,54,98,126,989,1272,62,29
66,55,110,114,1237,1388,60,30
67,62,115,100,1311,1352,58,32
62,56,102,91,1287,1251,49,28
63,57,94,65,1306,1199,43,25
54,63,113,55,1136,947,33,25
57,59,105,64,852,728,30,25
55,59,125,65,662,664,30,24
59,61,129,67,610,604,30,25
60,58,129,68,270,224,28,26
62,57,123,67,207,176,29,25
62,54,136,59,197,177,29,26
63,49,122,59,432,387,28,26
60,46,123,56,592,559,30,24
62,46,140,51,686,662,29,23
61,37,134,47,754,721,28,26
54,42,119,46,817,774,28,24
85,74,120,46,776,754,31,27
97,80,134,51,725,682,32,29
95,82,133,49,715,645,31,28
97,83,139,51,696,612,33,26
98,86,157,51,685,587,32,26
71,62,163,47,673,557,32,23
54,55,155,41,652,540,29,22
83,56,157,45,635,505,31,24
81,54,152,51,631,515,28,25
84,54,145,51,608,491,31,26
87,55,139,54,728,648,29,26
86,53,130,60,936,875,32,25
61,50,127,62,941,898,35,24
62,57,136,57,928,890,38,24
80,49,155,70,905,882,38,22
83,48,152,73,769,738,38,20
87,48,159,86,431,402,40,19
85,47,154,98,338,381,39,17
85,39,140,111,281,385,41,16
68,41,121,118,270,563,51,25
64,41,115,116,455,667,52,27
67,47,126,104,637,775,48,30
70,51,126,92,727,805,47,31
80,53,136,78,801,836,43,31
83,52,149,58,873,795,31,27
96,54,167,60,850,767,32,25
95,52,170,66,777,714,33,22
95,51,165,66,739,680,33,22
90,53,164,65,732,675,32,22
91,53,143,61,698,634,30,22
76,56,121,61,672,612,30,23
68,55,109,52,651,577,29,24
65,53,113,55,630,555,30,24
86,55,115,53,597,541,31,22
81,55,111,49,573,528,30,21
81,51,115,47,660,631,29,23
82,54,112,55,936,888,31,22
92,54,119,71,1071,1177,39,25
76,50,112,91,1265,1436,54,30
75,51,111,102,1470,1656,59,32
76,50,107,104,1454,1631,60,30
76,48,102,101,1337,1547,58,32
73,53,98,90,1271,1375,52,30
72,62,129,90,1090,1098,39,27
69,64,146,81,797,732,32,25
72,66,148,76,773,708,31,26
74,66,148,83,700,628,35,27
76,63,139,79,626,557,36,25
72,53,106,58,604,557,35,23
80,55,90,60,613,550,36,23
87,59,123,67,600,551,35,25
93,56,121,60,616,569,33,27
84,55,122,62,649,602,31,27
79,54,126,63,665,611,30,29
77,48,124,66,664,613,29,29
73,44,95,59,670,621,27,27
90,50,104,56,671,617,26,30
91,49,128,56,654,598,27,29
93,47,131,52,642,585,27,28
101,49,143,43,682,658,26,27
101,48,143,48,840,814,30,31
85,41,135,50,895,858,32,26
89,47,130,61,892,860,34,28
93,49,138,70,889,860,33,28
86,46,124,73,829,784,33,29
84,51,125,70,616,568,30,26
76,50,126,73,449,426,26,26
87,48,109,69,359,335,22,28
103,51,100,61,264,245,22,28
102,55,101,57,185,176,23,26
98,50,106,57,151,144,22,26
97,52,105,53,460,454,24,25
88,51,102,50,662,643,26,21
74,56,110,52,776,749,26,23
96,52,117,56,857,833,25,26
99,54,115,62,921,891,24,26
100,57,124,58,863,822,26,25
98,56,135,57,767,726,28,27
104,47,123,52,713,670,27,28
80,46,111,45,666,614,26,25
80,41,111,40,634,587,28,25
96,44,128,42,608,567,30,29
107,46,124,38,585,552,28,27
96,47,136,54,571,536,36,28
101,49,154,66,558,522,39,28
99,47,147,65,525,502,39,28
88,42,119,64,524,524,36,25
71,44,121,64,646,653,35,24
65,48,112,55,692,706,30,20
60,48,89,46,704,721,27,20
66,51,94,60,724,728,31,18
70,51,93,76,714,716,35,19
74,53,94,92,597,607,41,20
75,53,116,107,503,603,43,19
76,56,118,121,507,720,55,27
79,58,116,125,650,963,56,29
74,61,118,120,901,1157,58,30
69,56,116,110,1113,1226,56,31
67,53,90,93,1179,1204,56,32
66,55,88,72,1203,1157,47,26
58,56,85,49,1143,983,43,25
56,55,86,43,968,744,36,24
71,56,90,42,731,626,37,23
75,58,95,43,636,609,36,27
73,54,114,43,563,552,32,26
73,50,125,48,542,529,35,25
75,48,126,45,548,523,35,27
59,48,117,42,541,508,36,27
73,44,114,40,553,516,36,23
73,44,103,40,577,533,38,24
74,49,106,40,561,500,38,27
69,46,110,41,568,508,39,25
69,47,106,40,575,515,33,24
48,46,100,50,560,497,32,23
45,44,87,48,537,470,30,22
37,45,80,51,514,450,28,20
48,50,102,51,454,425,26,19
51,60,110,55,695,657,30,21
59,75,119,61,728,696,30,24
59,75,135,64,746,720,30,25
66,76,134,65,777,747,28,26
59,77,135,72,801,752,31,26
59,71,132,71,566,528,28,26
53,58,142,65,481,438,31,24
57,66,128,65,400,356,32,24
52,65,141,63,293,259,35,22
62,65,129,56,179,162,33,24
63,74,131,56,124,116,37,27
77,98,130,57,420,412,39,27
73,101,132,58,612,599,41,25
73,104,153,66,719,692,40,27
77,121,163,72,783,765,38,27
78,124,172,71,849,833,38,24
63,114,157,64,770,759,36,25
66,109,155,61,658,650,33,26
67,109,113,46,599,598,34,25
57,88,85,33,538,533,35,22
67,104,72,37,482,467,35,25
72,96,77,39,495,473,33,23
83,98,75,38,494,475,33,23
83,92,85,37,473,452,31,23
86,104,100,43,497,469,35,24
77,103,106,49,485,458,42,24
76,115,129,51,479,489,43,25
64,117,134,52,695,664,43,24
67,124,131,62,703,686,44,24
59,121,121,67,723,702,41,24
60,104,116,74,737,733,36,21
59,102,100,92,734,703,38,21
58,103,105,110,576,671,48,21
62,123,106,115,587,775,55,25
68,131,112,130,695,958,61,29
72,153,128,129,885,1170,63,31
80,160,128,119,1136,1297,67,33
85,169,123,105,1218,1262,60,34
78,152,126,97,1368,1299,53,30
75,141,174,72,1361,1216,46,26
72,139,169,62,1259,1018,40,24
66,149,175,55,1059,888,30,22
78,145,184,53,954,871,30,23
81,156,192,47,709,705,31,24
80,155,156,39,588,595,29,24
78,150,150,39,540,553,28,25
84,165,142,41,503,492,29,27
79,161,147,42,461,437,28,25
78,160,154,44,450,419,28,25
87,173,165,48,456,429,28,27
95,163,170,50,445,418,27,30
103,131,173,50,440,415,27,27
98,132,182,49,502,480,29,28
100,117,167,49,551,523,28,27
101,103,156,56,566,538,29,27
99,97,160,71,584,569,29,27
98,105,168,72,570,562,27,27
95,103,143,74,536,526,29,27
92,102,147,73,510,543,32,27
90,108,158,68,838,826,31,25
85,108,140,56,846,822,33,26
69,88,124,63,860,836,34,28
70,87,122,66,860,837,33,28
75,100,120,71,837,797,30,29
66,90,113,70,450,443,34,30
65,89,118,71,378,379,36,29
83,111,133,65,306,308,37,29
87,122,137,60,221,222,36,29
82,119,136,60,139,138,38,27
85,128,122,61,562,555,35,27
114,138,118,55,758,743,34,28
110,130,108,56,843,835,38,26
108,137,120,54,909,891,40,26
111,134,120,50,940,929,39,25
120,142,145,45,786,774,37,26
99,144,155,51,635,624,34,25
100,155,170,50,567,533,31,24
102,138,176,53,476,453,30,27
98,142,183,52,439,399,30,28
84,132,163,52,420,370,31,26
109,121,154,47,411,358,32,27
126,114,135,46,374,335,30,34
128,114,122,49,379,338,31,33
134,107,115,48,410,348,33,35
138,107,139,59,419,363,36,38
136,120,144,60,398,355,35,41
121,118,139,58,411,351,34,34
122,117,128,54,416,345,34,31
117,116,117,54,388,331,33,30
117,112,94,41,384,337,29,25
93,97,99,39,475,495,30,21
80,75,106,38,870,840,31,21
75,79,108,39,1110,989,32,25
99,92,127,40,1193,1060,33,25
98,91,121,39,1307,1171,33,28
113,99,117,42,1308,1161,33,29
121,104,110,42,1116,989,33,30
119,123,118,41,889,864,29,26
108,130,104,37,787,778,31,26
103,141,105,41,597,604,30,22
96,136,104,40,524,511,29,22
90,138,106,40,436,407,30,23
109,127,96,40,406,361,33,25
102,116,100,44,389,370,31,25
109,105,102,45,384,367,30,27
99,107,97,42,389,389,31,26
93,105,94,44,468,445,31,25
74,98,96,42,525,492,28,24
82,95,93,43,549,511,30,29
76,91,106,40,570,529,31,32
75,88,114,39,613,527,30,33
84,80,118,42,566,482,31,33
81,74,129,43,504,428,31,34
73,74,146,41,487,397,32,31
82,79,147,41,520,473,32,27
90,84,148,46,789,746,32,28
101,100,150,56,838,795,29,26
100,115,153,58,853,811,28,25
107,123,137,65,852,816,27,26
118,125,128,65,874,822,26,25
117,121,126,65,662,615,27,26
107,117,128,53,586,542,27,26
111,121,124,63,557,510,30,26
110,110,131,65,531,490,31,24
93,112,133,82,389,399,36,22
110,113,128,92,259,391,37,20
107,106,121,106,274,543,47,20
117,108,136,117,407,763,55,30
112,111,159,118,580,913,55,31
111,103,151,106,695,957,52,31
93,104,150,98,795,989,51,31
100,101,151,83,849,948,44,33
87,88,127,60,845,817,31,24
86,90,103,51,798,680,27,23
86,91,100,55,746,615,32,24
87,94,99,53,671,539,31,24
80,94,106,54,619,503,31,23
81,85,109,49,620,492,33,28
86,86,100,48,578,469,33,30
99,94,118,45,563,473,29,31
99,89,115,44,574,487,30,30
96,95,135,44,614,517,29,29
93,95,152,49,679,626,28,27
88,90,159,47,912,857,28,26
102,84,158,73,935,977,33,23
104,92,163,95,1034,1193,39,24
110,90,160,114,1162,1401,55,35
118,112,141,120,1343,1566,60,35
113,120,153,120,1294,1529,60,36
88,117,157,108,1333,1488,57,36
90,125,162,91,1258,1333,55,35
88,121,141,67,1142,1114,38,27
84,105,153,52,896,839,28,24
85,99,149,55,760,705,27,24
91,106,139,49,673,640,26,24
83,87,135,53,702,627,23,25
77,105,147,49,688,640,21,23
76,112,161,47,703,606,24,35
107,109,151,46,723,608,26,57
112,106,147,47,739,603,27,61
115,109,140,41,716,585,26,61
115,91,135,40,725,568,26,62
110,83,108,46,677,558,25,56
87,84,100,44,652,555,26,34
77,91,102,47,627,562,29,28
70,91,109,46,660,589,29,26
79,95,108,49,753,694,29,27
105,101,110,47,1031,909,35,28
102,112,101,46,1084,925,33,27
100,104,102,50,1106,934,31,28
100,102,111,54,1064,910,31,28
93,99,113,56,973,810,31,27
66,93,113,58,611,498,26,26
72,79,117,62,452,405,26,27
81,74,121,61,299,294,26,26
88,66,119,59,241,221,25,28
95,84,122,57,501,500,28,29
89,80,133,54,733,689,31,28
85,81,135,55,842,804,32,25
74,91,127,54,937,904,35,26
64,107,123,54,1001,969,36,24
54,104,114,56,934,891,33,22
80,101,94,55,827,811,31,25
83,95,97,49,776,750,32,39
95,93,102,47,716,676,30,99
95,87,92,46,679,634,31,104
95,80,107,45,649,600,31,107
84,87,142,48,613,561,31,108
89,97,161,52,586,548,28,105
84,100,168,53,579,537,31,56
89,94,178,53,567,520,30,47
87,103,172,51,575,577,28,39
79,103,152,48,839,835,30,37
95,102,133,57,868,858,32,34
105,99,126,60,860,858,36,33
115,116,126,70,861,861,39,32
118,115,132,71,845,820,41,31
118,118,137,71,542,519,38,29
101,114,132,63,428,407,38,25
85,122,137,69,357,337,33,19
67,106,124,75,259,265,31,18
69,100,136,94,169,243,39,21
72,96,128,106,157,406,50,28
69,95,142,113,520,668,50,30
69,80,140,106,767,840,51,30
72,78,144,98,874,916,50,32
69,72,144,80,963,972,46,31
74,81,158,62,1019,970,35,28
70,81,149,46,942,858,34,28
73,84,151,51,809,735,32,28
71,98,147,45,742,678,31,28
65,104,147,61,664,618,28,29
62,100,130,60,629,576,28,25
66,111,143,60,609,560,31,22
90,121,171,66,629,580,33,23
89,120,184,66,643,587,35,23
93,115,180,60,674,603,37,24
96,109,178,63,680,613,38,26
96,99,169,68,649,605,35,27
75,94,131,60,809,766,34,26
75,79,120,83,925,998,42,30
82,92,107,101,1132,1298,53,33
79,90,106,109,1352,1546,62,34
80,93,112,108,1543,1667,63,38
80,84,120,110,1503,1627,64,37
80,95,123,94,1455,1514,59,34
89,93,139,67,1302,1280,46,29
97,97,149,53,1060,956,33,27
97,107,144,48,779,731,33,22
101,105,150,43,662,645,30,23
108,106,154,48,587,582,30,25
99,102,141,51,537,525,35,27
88,114,163,52,543,522,32,26
87,99,159,53,531,509,32,27
82,112,156,64,512,497,35,25
72,103,147,62,506,481,35,23
69,106,147,62,526,496,31,21
65,90,112,66,504,481,33,20
60,93,112,63,497,469,33,19
67,75,116,52,539,499,29,19
71,118,121,52,541,503,32,20
72,116,122,54,527,480,31,21
79,128,149,46,538,485,33,25
84,128,152,48,513,474,31,25
82,152,150,46,710,669,35,27
74,123,152,57,764,735,32,26
74,128,156,61,784,763,32,27
73,138,143,64,803,782,33,25
94,134,143,67,833,799,34,25
98,113,164,70,626,597,32,28
99,109,164,66,514,479,31,28
109,110,156,59,434,399,32,31
113,101,158,57,327,298,28,31
108,109,164,57,207,194,27,31
112,113,134,57,159,150,33,31
120,119,127,53,537,541,34,31
115,110,140,53,735,729,37,28
108,99,135,53,870,854,38,27
93,90,124,49,939,923,39,28
83,82,125,48,994,977,35,24
71,81,127,44,892,858,37,23
61,107,118,44,785,745,34,22
87,109,123,46,675,634,35,24
94,110,143,45,641,593,34,23
92,116,162,43,615,561,34,24
94,114,169,44,586,542,30,25
97,102,168,45,570,540,29,26
81,96,155,44,569,545,28,25
79,115,157,46,539,526,26,26
93,113,152,45,534,532,27,26
91,118,145,48,576,585,27,27
100,110,149,53,784,798,30,25
103,115,163,57,822,821,28,24
98,111,149,71,840,830,36,22
99,106,138,87,839,834,39,21
101,104,136,101,849,881,45,17
89,104,134,117,690,818,49,18
81,119,119,128,740,978,63,24
82,117,122,135,900,1185,64,29
63,124,134,130,1121,1346,63,31
75,132,143,119,1256,1377,63,32
74,181,144,106,1369,1410,60,32
78,168,148,90,1383,1342,47,29
86,164,153,68,1296,1175,39,26
87,159,136,61,1117,982,38,25
73,152,136,63,941,878,32,26
78,82,128,53,733,713,29,25
74,85,117,60,797,758,39,29
71,102,104,65,761,731,44,27
77,118,163,66,741,716,44,27
81,120,172,61,725,694,44,26
78,125,186,63,716,654,45,27
80,125,201,68,437,421,38,24
78,136,216,79,374,353,37,24
74,129,182,92,399,419,41,26
77,136,174,93,527,519,42,27
78,142,189,91,596,595,41,28
79,143,172,84,716,698,41,27
90,116,156,71,752,736,37,31
103,143,152,55,745,704,32,30
98,137,142,57,670,644,34,28
102,138,106,57,636,634,34,28
96,151,114,54,801,785,34,27
83,164,120,62,794,774,34,24
69,145,120,69,784,766,33,23
69,148,129,67,777,760,29,26
58,141,120,77,756,713,29,26
70,123,118,78,421,402,26,26
70,120,102,73,368,349,34,31
83,114,104,67,304,288,39,32
105,105,100,67,222,211,40,32
107,118,110,60,133,127,39,31
100,124,118,72,91,87,45,30
103,121,133,88,487,475,46,26
86,119,127,89,708,684,45,24
68,127,123,90,827,791,46,25
70,133,145,89,853,820,47,25
77,138,137,77,889,854,44,27
79,131,136,65,773,735,38,27
78,128,136,59,609,565,36,26
70,114,135,60,472,439,34,25
64,92,135,68,456,424,34,27
52,72,154,87,415,390,32,25
37,67,158,85,403,370,32,25
40,85,167,90,392,369,32,25
34,98,199,94,406,362,35,24
36,98,204,93,400,339,36,23
38,100,199,78,397,324,36,26
39,102,209,73,406,344,35,25
62,92,220,74,382,336,38,28
66,84,201,74,363,340,38,27
94,82,192,72,379,348,38,32
104,81,190,72,377,344,39,33
104,79,185,73,352,326,39,33
94,74,169,69,371,351,39,33
91,68,163,68,371,338,41,34
74,63,158,63,350,327,40,28
60,65,156,72,366,339,42,26
59,65,157,78,381,345,41,26
57,60,164,76,410,349,40,26
81,61,163,74,446,392,35,26
84,64,169,79,453,396,36,28
87,62,160,73,440,393,33,26
91,57,148,71,444,399,35,28
91,58,140,70,424,383,41,25
80,59,158,65,385,349,53,25
73,70,204,68,380,347,53,23
76,74,210,67,387,349,57,25
79,71,204,63,386,353,67,25
82,75,206,65,385,372,64,26
76,85,192,66,385,387,55,24
70,73,127,65,406,400,56,23
66,69,140,71,438,415,52,25
61,70,146,68,440,409,34,22
62,71,202,93,439,405,35,25
59,58,207,113,461,403,36,26
57,60,228,122,459,397,36,27
55,61,227,125,421,372,36,26
51,61,223,130,439,395,37,26
46,58,193,124,458,400,36,23
45,53,194,116,448,399,34,22
75,55,187,106,470,421,35,24
74,54,185,107,486,434,37,21
74,52,193,104,474,412,38,22
71,49,172,94,479,429,40,22
73,59,165,82,515,448,38,24
46,55,141,92,520,463,36,22
61,55,138,85,587,528,38,23
62,62,139,95,616,559,39,25
67,61,137,95,625,544,59,27
65,52,146,120,638,543,61,25
62,52,153,130,646,547,61,25
44,53,146,138,602,487,60,25
49,47,144,141,598,481,60,24
50,45,139,141,595,498,39,23
50,48,164,136,562,504,43,23
54,54,164,145,560,504,45,24
55,54,175,155,560,512,45,24
50,57,172,161,550,501,45,23
47,58,185,163,592,511,47,22
63,57,155,157,593,501,41,20
61,50,160,139,574,473,42,18
60,49,155,122,594,488,40,17
60,45,154,110,633,521,39,19
56,41,147,104,586,504,38,19
51,41,150,105,600,505,39,20
54,43,148,105,645,533,36,22
55,42,153,105,645,545,34,22
59,42,154,101,635,553,33,22
59,47,158,119,684,590,34,23
50,46,149,114,693,602,32,23
47,43,142,104,713,625,32,20
53,41,134,105,715,611,33,23
50,42,120,105,709,592,32,21
54,46,111,85,684,567,32,22
52,48,124,85,688,564,32,23
48,48,122,88,623,513,33,22
50,48,143,85,617,513,36,21
51,47,154,81,604,503,37,21
57,45,152,83,572,468,37,24
66,47,166,93,532,460,37,24
70,46,163,87,545,493,36,26
64,47,137,86,564,516,36,25
65,48,134,94,565,524,36,25
60,44,128,87,615,572,36,27
55,42,102,68,661,595,36,25
60,51,115,83,672,589,38,25
61,48,119,81,666,568,37,25
58,49,122,86,671,562,42,25
60,48,125,89,646,551,42,21
67,53,131,98,611,530,40,21
68,47,133,101,612,537,43,22
68,48,147,105,605,563,42,23
72,47,152,96,586,554,37,22
68,47,162,123,593,552,40,24
62,44,172,119,601,559,45,26
68,43,163,107,614,557,40,25
66,41,161,114,621,555,40,23
62,37,163,137,644,573,44,23
61,34,154,115,626,558,41,23
62,37,135,118,611,546,37,22
57,43,147,127,581,529,42,26
57,52,146,117,550,510,42,27
55,54,131,85,539,504,36,27
57,56,129,88,549,510,35,28
51,51,126,87,586,567,35,27
44,52,126,75,624,575,30,24
53,45,126,78,666,587,38,26
60,43,141,86,681,600,38,25
58,46,147,81,705,623,40,24
59,45,146,79,695,582,39,24
74,46,148,81,670,580,37,24
84,51,136,78,628,555,27,23
80,58,139,72,612,540,28,23
81,57,138,79,586,510,29,27
84,56,142,88,565,496,29,25
70,51,133,88,560,492,30,25
56,47,145,85,560,495,33,24
58,42,125,87,551,497,36,25
58,40,120,90,552,511,32,22
54,41,127,91,553,529,34,23
54,38,124,100,572,548,36,22
47,38,129,107,594,570,36,22
43,37,139,104,598,571,32,21
47,38,144,103,597,557,34,22
47,39,142,95,597,544,32,24
45,41,149,95,585,551,30,23
43,41,138,97,573,539,30,25
55,46,131,101,562,535,32,24
56,46,128,96,565,545,30,24
56,46,123,96,593,562,32,24
55,48,108,88,602,541,32,25
55,45,111,82,621,561,29,22
49,37,108,73,636,566,30,23
40,36,111,78,643,572,34,23
44,42,112,99,622,549,38,23
49,39,113,98,597,532,37,21
55,42,113,117,591,507,38,29
51,40,111,123,565,489,35,28
56,41,112,121,546,471,34,28
52,35,127,108,546,482,31,27
53,35,131,106,543,485,33,28
53,39,124,91,535,484,32,21
61,41,122,87,580,515,33,24
67,58,142,92,592,531,32,26
78,59,131,95,594,541,30,25
80,63,130,100,619,548,32,27
78,62,133,95,609,553,34,27
79,63,140,95,584,530,38,26
72,49,122,90,583,517,38,24
64,48,118,80,570,491,40,25
59,45,115,74,540,478,40,22
56,40,107,64,542,472,37,22
48,39,118,93,528,471,35,21
55,38,108,97,498,456,34,20
55,40,109,100,498,460,32,20
54,40,110,105,493,454,30,20
57,41,114,109,481,441,30,19
55,39,98,80,495,445,29,21
46,48,127,77,503,451,28,21
44,55,130,82,499,450,26,20
52,55,128,88,530,468,26,23
57,55,120,86,530,468,24,23
58,55,114,87,523,471,25,23
60,50,102,89,539,472,25,23
56,35,100,84,566,488,26,25
46,47,135,84,533,474,26,21
46,51,166,96,531,476,32,22
49,53,179,100,518,462,32,22
50,52,166,91,523,477,33,21
67,54,164,88,486,459,34,21
70,44,142,79,498,451,35,22
68,44,150,77,496,444,32,21
64,41,139,76,511,457,32,21
64,42,137,78,525,476,31,22
47,41,135,77,547,494,29,21
50,44,144,81,573,533,27,22
49,41,115,78,596,562,29,23
51,43,113,73,605,571,32,23
49,40,117,76,614,582,33,24
49,39,113,74,621,586,35,24
45,37,111,77,607,578,38,23
45,34,113,71,612,583,36,23
51,33,116,78,610,577,33,23
50,35,116,93,579,537,34,23
50,39,123,102,553,517,32,22
53,42,121,99,552,504,32,25
51,40,119,94,525,472,30,23
45,42,117,90,506,454,32,24
48,44,132,73,525,461,35,23
55,43,126,59,529,462,34,24
57,40,120,56,520,457,33,20
70,43,109,92,548,474,39,20
70,39,104,97,571,490,37,18
69,37,81,95,566,491,32,20
64,42,107,99,576,509,32,20
63,45,113,100,585,513,33,20
51,42,111,74,574,515,27,20
48,44,117,71,557,510,28,20
57,43,119,69,539,503,30,19
58,39,116,66,536,506,32,19
67,49,112,82,569,529,37,21
65,50,122,83,556,507,39,21
65,50,132,79,564,508,39,21
57,49,136,81,589,532,40,22
61,50,122,90,567,502,41,22
56,45,120,73,555,506,36,20
59,43,110,68,595,538,33,21
61,43,123,74,569,513,36,21
60,44,128,79,545,480,34,21
65,41,124,68,567,491,32,21
59,33,124,89,526,452,34,19
53,37,139,95,462,404,35,19
52,39,135,123,489,444,34,20
60,40,130,129,468,429,34,20
70,42,142,135,457,425,38,24
73,47,142,126,485,450,36,26
76,54,148,141,502,454,36,25
78,54,129,115,476,420,37,25
76,61,127,108,509,444,40,25
62,61,119,102,499,431,39,22
58,59,133,102,479,404,41,21
56,53,113,77,485,405,42,22
61,53,124,86,503,406,40,22
63,54,137,90,498,398,40,24
75,55,136,98,508,409,39,26
75,60,142,98,489,387,37,25
75,61,139,96,480,381,36,25
70,62,129,88,464,384,35,27
77,54,123,80,441,370,31,26
67,58,135,80,439,368,31,23
68,50,114,69,444,373,33,25
73,60,122,78,552,496,32,26
71,67,123,76,626,560,36,21
63,68,114,105,630,569,38,24
62,66,111,98,626,578,35,24
65,76,121,105,632,591,33,23
65,73,118,111,535,497,34,22
76,70,125,119,506,506,33,23
74,77,133,96,910,847,33,22
79,76,127,100,1283,1183,41,25
83,69,124,101,1519,1330,44,27
80,68,127,92,1544,1348,44,29
80,71,151,98,1547,1342,42,29
91,65,148,115,1359,1177,41,27
82,76,168,109,1021,843,34,24
75,77,166,102,627,588,31,21
73,79,169,108,578,561,32,20
69,78,147,97,528,511,34,20
62,92,156,89,498,464,36,23
65,98,155,104,499,460,40,24
70,106,156,108,473,435,41,24
77,105,152,106,442,406,40,23
75,105,175,107,459,410,41,25
65,98,172,101,432,380,39,23
62,88,156,86,395,353,35,22
61,82,158,84,415,368,32,24
64,81,163,84,395,349,36,25
75,75,138,79,359,321,33,24
77,67,139,85,377,351,32,24
77,59,133,90,377,344,38,25
78,49,137,86,541,540,38,23
69,47,129,86,888,849,37,25
61,58,131,89,915,881,36,27
63,60,129,98,964,926,42,28
64,68,143,98,1001,951,38,30
79,72,191,111,945,880,40,32
90,77,221,111,659,630,41,33
87,77,233,110,681,648,45,31
94,76,241,117,633,590,41,29
94,69,235,114,587,555,40,26
111,75,208,103,586,531,41,26
105,72,180,97,569,494,36,25
106,64,171,113,500,423,34,26
99,65,153,89,469,409,34,25
98,66,152,94,473,435,36,26
60,63,142,112,510,536,34,23
60,59,134,111,841,820,39,21
78,61,148,99,1099,972,46,25
79,59,150,101,1310,1036,46,27
80,60,158,119,1321,1038,47,29
82,64,159,109,1345,1072,47,29
82,66,160,114,1238,963,44,28
64,65,158,129,1064,872,34,25
68,67,160,127,822,815,35,24
69,65,189,113,807,810,32,22
63,48,190,111,728,701,35,22
66,54,191,115,611,586,35,21
62,61,183,94,559,516,35,21
65,59,188,93,533,495,33,19
62,66,144,105,543,493,33,21
64,70,139,98,528,475,35,23
57,69,151,96,571,498,40,25
72,67,134,95,599,519,39,24
67,66,140,96,590,511,42,27
72,63,150,79,615,532,42,26
74,65,151,84,633,543,38,23
77,61,133,82,590,513,35,24
61,58,154,89,640,615,37,25
62,59,146,86,912,852,38,24
59,64,172,83,916,865,38,24
58,65,170,85,911,868,37,27
55,66,172,85,906,867,34,27
57,65,187,105,839,773,32,27
62,77,181,107,500,476,27,27
60,70,156,104,400,381,25,29
57,66,151,105,328,310,27,27
56,63,152,102,279,264,28,27
73,65,138,79,172,171,31,26
84,56,142,78,453,465,32,26
86,61,138,82,716,665,35,25
87,64,154,73,827,768,33,25
95,66,158,73,911,838,37,27
81,65,141,75,1007,927,35,25
63,60,137,73,963,860,33,24
59,58,138,86,845,760,33,22
59,52,144,104,798,715,38,23
55,51,139,107,780,691,35,21
61,55,132,108,730,631,36,22
57,60,147,114,718,620,38,24
58,66,142,101,694,593,36,24
61,74,123,90,664,550,32,23
59,76,133,91,623,530,34,26
58,71,137,94,613,522,34,26
69,66,125,104,751,696,31,25
68,57,126,105,985,906,36,25
65,45,134,101,1004,937,35,25
66,44,140,104,985,923,35,23
66,52,148,119,944,893,36,21
61,51,142,106,799,747,39,21
69,56,147,117,434,510,41,20
79,62,135,125,424,566,45,20
78,62,131,140,532,757,53,27
75,57,120,131,739,999,58,29
71,57,118,135,961,1219,60,33
64,55,119,123,1187,1339,58,34
75,58,151,122,1273,1316,56,35
71,57,183,99,1321,1297,49,30
77,60,179,85,1292,1175,40,29
76,58,182,82,1186,987,34,24
77,66,250,95,1003,831,33,22
60,58,234,90,894,829,31,21
60,58,205,85,816,739,28,20
54,54,211,87,731,683,29,23
59,56,213,94,683,638,29,23
62,50,162,96,642,598,34,23
62,56,158,92,620,574,32,23
62,54,156,98,586,560,33,24
64,57,168,98,587,569,35,21
62,60,165,94,606,585,38,21
67,58,179,96,632,603,35,23
74,55,181,96,655,619,35,26
75,52,186,97,660,618,37,25
73,51,178,97,666,621,36,26
78,44,176,90,724,717,34,27
71,52,132,87,999,944,34,26
61,54,151,102,1010,958,36,23
60,57,148,102,992,947,34,25
62,62,142,105,980,936,32,25
65,68,146,108,912,839,31,26
63,60,134,98,539,523,28,25
62,61,113,82,423,409,27,27
69,68,169,115,359,338,28,25
80,63,183,127,264,248,30,25
72,60,189,126,175,167,33,22
70,60,189,126,457,472,33,21
76,74,195,145,702,702,35,21
69,65,158,116,827,820,38,22
67,68,152,108,921,900,36,22
69,68,144,106,978,948,36,22
71,73,158,120,930,879,37,26
66,57,150,97,795,749,38,26
68,58,137,97,713,660,34,24
57,58,128,92,658,614,38,28
61,69,152,93,625,587,37,28
58,66,152,71,599,561,36,25
61,71,155,72,610,561,38,29
64,69,154,84,614,572,40,30
64,70,150,78,607,558,36,27
60,64,132,86,606,555,35,26
61,64,119,91,600,588,34,26
57,57,108,90,802,805,33,21
52,56,115,76,839,841,31,21
48,53,117,82,834,844,33,20
69,45,110,92,835,847,34,19
73,39,115,97,824,825,36,18
74,44,114,106,593,607,37,18
75,47,113,119,503,572,43,17
78,48,137,130,482,675,52,22
62,50,134,132,573,847,58,27
67,58,144,131,818,1089,59,31
64,60,156,124,1056,1273,59,34
60,59,160,112,1190,1281,55,33
69,64,147,92,1212,1214,46,33
79,70,167,94,1222,1186,49,30
69,69,178,100,1112,997,51,28
75,75,190,105,923,769,52,27
83,76,183,106,779,761,51,26
74,72,173,110,762,780,55,23
64,68,166,95,665,649,47,23
69,70,157,91,613,605,43,22
69,63,144,85,580,572,37,21
59,62,152,86,540,533,39,23
60,68,160,87,527,521,35,23
63,64,150,81,523,503,35,24
57,58,139,72,507,500,35,24
61,56,144,70,515,507,36,25
62,62,168,78,532,497,36,25
57,54,165,74,533,496,33,26
66,56,164,73,548,502,33,25
66,56,164,72,552,494,33,25
61,61,146,72,522,496,33,24
68,55,114,71,648,638,31,23
68,53,116,73,689,692,33,24
59,59,124,78,712,717,30,25
58,62,132,83,734,733,30,24
57,57,152,88,748,720,33,27
59,62,178,90,603,573,31,25
63,70,201,92,497,462,28,24
62,66,198,88,393,358,29,26
70,65,197,84,277,252,27,26
68,70,193,97,180,166,42,26
60,67,177,87,279,291,43,26
65,60,155,80,563,555,45,27
67,60,158,85,704,694,45,23
64,58,153,83,805,780,47,24
65,50,148,58,883,861,35,22
84,54,147,67,916,894,36,24
84,58,139,67,812,798,36,24
84,69,143,60,731,715,36,26
82,75,154,63,655,665,34,25
89,74,160,62,607,609,32,26
72,71,145,60,560,550,30,25
65,68,174,78,538,532,32,23
59,57,168,84,549,544,35,22
69,50,156,82,556,536,35,22
61,54,140,86,522,506,38,23
70,62,157,84,533,527,38,24
73,64,139,67,518,523,37,24
75,69,130,58,692,686,33,24
69,69,128,83,728,727,38,21
71,67,127,86,765,760,37,17
62,57,116,98,765,768,39,18
60,54,103,120,799,852,47,18
62,51,120,138,688,853,57,25
70,51,122,145,790,1037,61,33
64,51,123,148,989,1231,63,36
69,54,120,142,1203,1358,65,38
72,54,122,125,1351,1383,60,41
69,59,113,115,1384,1359,54,38
61,55,107,91,1326,1209,50,32
72,58,109,79,1194,1021,48,31
67,60,128,79,998,855,43,28
61,59,128,83,772,733,44,26
65,50,137,68,658,634,39,26
61,49,136,64,804,804,37,28
51,45,148,72,779,784,35,25
51,39,133,64,738,746,34,24
55,36,125,57,734,738,29,20
59,40,138,75,734,718,30,18
61,44,135,78,488,465,31,16
60,46,121,88,406,384,32,18
66,50,125,108,341,375,39,19
63,54,133,113,612,650,42,20
61,50,119,100,799,798,42,22
61,50,123,97,874,868,39,21
64,50,137,83,924,910,38,20
68,49,139,60,979,936,30,21
75,49,146,53,850,788,27,21
80,54,158,60,690,641,29,21
83,52,177,82,630,576,35,23
85,50,167,82,604,560,37,24
87,53,174,87,546,505,42,24
82,55,179,85,532,502,44,23
79,54,157,82,515,498,44,23
80,64,151,75,507,490,40,24
86,70,167,79,518,507,39,22
84,66,156,71,593,573,35,20
85,63,140,70,661,663,32,21
78,60,150,75,915,899,32,20
78,54,141,90,929,1000,43,20
67,51,141,103,991,1163,44,21
67,47,146,119,1067,1349,58,31
68,52,148,129,1239,1535,66,32
77,54,144,127,1146,1465,65,32
82,47,137,110,1171,1432,57,31
98,50,133,95,1125,1310,56,32
94,50,126,80,1029,1099,42,23
93,48,127,64,747,732,32,20
91,47,147,66,621,612,32,21
88,55,147,67,529,513,38,22
68,49,142,69,473,438,36,20
66,50,143,62,426,387,35,21
78,53,142,67,407,359,36,24
75,48,114,61,378,327,36,23
83,44,117,63,361,320,33,27
84,45,104,65,343,307,38,27
90,44,105,72,336,314,36,27
87,49,133,67,345,329,37,28
90,63,153,76,358,353,40,27
90,89,163,72,388,373,38,24
90,90,166,65,414,393,34,23
82,93,170,66,416,382,37,26
80,91,155,77,430,391,34,23
92,90,142,75,508,518,33,25
87,65,133,74,834,823,35,25
109,66,133,84,856,848,38,28
110,67,130,82,909,908,36,25
106,67,147,86,951,948,38,26
96,60,145,82,947,921,36,27
93,67,157,89,692,676,34,26
82,67,163,86,666,658,31,25
86,64,193,99,621,600,37,26
89,62,175,89,558,537,35,28
83,61,178,86,513,490,35,25
93,59,176,81,487,475,36,28
82,56,171,75,481,443,39,28
80,58,130,54,476,439,34,27
81,57,130,56,461,433,36,24
89,56,118,64,524,536,39,28
78,47,106,69,796,813,44,24
88,50,113,87,1170,1185,47,26
89,45,119,87,1473,1382,50,26
85,50,118,85,1564,1448,51,30
76,49,119,81,1567,1442,50,26
97,61,136,86,1466,1328,46,28
93,60,130,70,1198,1031,38,24
98,61,133,79,798,754,37,24
98,55,130,80,634,621,33,20
104,60,139,79,588,568,31,22
87,44,131,70,543,502,29,22
84,47,133,74,538,485,29,23
77,45,135,64,537,467,23,22
75,53,144,70,494,453,26,23
74,54,139,70,480,429,30,23
70,55,135,67,520,454,30,23
67,53,141,70,513,448,33,23
67,56,179,72,538,474,37,25
73,52,173,66,578,511,39,26
94,50,187,80,575,502,42,27
96,50,183,79,603,518,42,26
97,53,199,75,674,523,41,25
97,50,153,74,688,597,38,24
94,49,171,92,908,797,38,22
84,55,156,90,937,835,32,22
80,54,166,93,914,830,30,27
76,62,167,100,858,821,32,27
75,62,175,102,805,735,37,29
77,61,157,89,483,458,33,29
83,58,166,82,369,341,34,29
87,58,164,80,275,250,33,24
87,45,129,67,195,177,31,24
90,48,130,60,435,455,30,25
89,51,159,62,633,614,32,27
73,47,151,58,704,691,32,25
72,46,151,58,794,770,34,27
73,43,151,58,871,832,35,27
73,51,176,62,830,764,31,30
80,47,154,58,745,689,30,28
69,46,147,57,757,662,32,29
71,50,164,65,737,618,34,30
69,55,182,89,707,580,39,29
67,49,156,85,687,568,39,23
61,51,161,89,703,576,38,23
72,55,191,90,657,558,39,24
73,57,174,90,631,541,37,22
77,53,158,70,608,530,32,21
74,54,175,74,685,635,33,23
76,52,186,70,942,878,32,27
78,47,161,73,966,907,32,25
73,44,160,71,945,904,31,25
68,44,163,71,925,892,29,24
71,38,153,76,840,789,32,24
69,44,137,82,427,444,33,20
62,47,134,93,303,371,37,20
58,47,130,105,291,528,43,20
58,49,126,126,421,766,55,28
62,50,113,122,623,937,54,28
63,49,103,118,743,989,57,31
66,67,136,115,838,1031,54,32
68,65,135,104,909,999,48,33
82,65,134,74,899,871,34,28
75,65,140,71,806,718,33,28
72,67,169,74,753,680,26,25
71,50,148,61,690,627,27,25
69,55,154,62,633,589,27,26
54,58,163,68,616,569,29,28
56,56,162,72,625,576,30,28
56,56,155,68,617,568,32,30
47,58,159,72,628,584,32,30
62,55,160,70,620,580,33,29
64,53,174,79,637,625,38,26
67,61,179,77,836,830,36,27
69,57,162,84,874,980,41,26
71,56,155,105,1002,1197,54,25
71,57,168,126,1233,1462,64,30
66,60,171,122,1440,1628,66,33
67,61,161,123,1381,1562,66,33
69,68,160,121,1386,1500,63,32
79,68,185,106,1309,1344,53,34
72,74,168,77,1105,1057,40,29
72,71,151,76,808,750,30,25
72,65,172,77,721,675,29,25
83,60,168,68,661,609,28,27
70,53,141,57,625,569,30,25
69,47,155,67,594,541,32,24
68,47,147,63,592,534,31,24
79,50,146,58,589,551,34,25
69,51,147,68,579,547,36,23
72,65,172,94,583,558,42,25
68,65,178,98,607,579,41,27
80,69,177,98,620,589,44,27
70,68,158,97,626,586,42,25
67,70,207,97,653,618,40,27
66,59,198,72,677,626,36,24
68,55,180,60,678,656,37,25
58,53,201,76,899,852,38,26
76,52,208,81,939,882,39,28
80,51,161,76,925,869,42,30
85,58,158,82,908,859,38,31
82,56,157,89,896,822,36,30
91,56,148,80,620,563,31,30
73,55,131,82,495,457,32,28
65,52,133,85,424,380,30,24
59,43,116,78,332,292,28,23
65,51,137,78,231,205,31,25
55,51,167,78,180,166,30,24
62,53,179,72,538,564,29,25
63,52,183,70,724,737,29,24
74,58,195,81,833,841,38,26
70,51,188,72,908,921,36,23
75,52,149,78,957,963,39,23
75,49,143,79,868,854,40,26
77,63,140,83,771,750,44,26
72,61,121,73,694,677,38,24
71,60,109,74,649,611,37,26
65,55,112,59,639,597,37,25
65,57,105,59,603,560,38,21
62,40,93,53,588,556,31,22
55,37,95,52,600,549,30,23
57,41,98,47,591,533,29,22
56,42,79,50,563,515,30,24
57,48,120,65,532,500,31,26
58,46,125,63,730,686,31,23
57,47,125,65,775,735,34,24
62,46,128,73,776,750,35,26
61,47,135,72,798,766,35,26
58,43,136,73,824,774,33,25
66,52,151,90,626,596,41,26
68,51,161,98,507,501,43,25
61,48,156,115,468,537,46,22
65,52,162,129,438,637,54,29
71,52,146,131,552,867,59,32
58,44,129,122,809,1089,56,33
64,48,116,116,1056,1192,54,33
72,49,115,97,1135,1166,54,33
64,46,129,80,1241,1220,46,27
67,50,129,64,1251,1135,39,25
78,55,128,62,1131,960,38,24
74,56,144,70,952,874,41,24
72,54,146,66,875,887,37,22
87,60,126,64,729,738,35,25
80,54,115,60,603,618,33,25
75,51,116,59,581,577,30,23
76,49,106,50,563,546,27,25
85,51,111,69,566,540,27,26
70,44,105,74,558,522,31,24
67,44,98,74,569,537,31,24
65,45,98,75,795,747,33,24
69,44,103,96,996,1058,44,28
58,47,97,105,1214,1299,55,29
58,44,98,101,1268,1346,54,28
60,49,102,100,1270,1354,55,28
65,50,101,101,1167,1267,56,30
60,48,97,79,998,1027,47,26
56,46,101,45,709,697,35,23
55,55,114,44,607,602,32,24
74,55,116,45,592,570,31,25
72,58,114,38,523,518,28,24
73,68,104,36,517,503,28,23
74,70,99,36,498,476,29,23
72,63,94,39,480,475,30,24
55,62,86,40,507,504,30,23
58,58,123,40,497,499,31,24
70,47,124,44,473,485,28,23
71,48,129,47,518,522,30,25
72,52,120,43,515,510,28,23
68,46,120,42,498,496,29,22
63,53,92,44,536,529,31,22
56,59,91,53,541,525,31,21
58,73,90,54,494,506,29,20
58,71,127,70,716,722,32,23
64,76,136,76,744,731,35,25
62,73,147,79,761,735,36,31
52,72,154,81,774,744,37,32
48,57,163,81,793,739,35,32
60,71,139,75,583,502,33,31
53,65,127,71,507,436,29,30
54,67,118,69,401,347,24,26
54,63,110,62,312,262,26,24
58,74,126,64,209,170,30,28
55,65,129,58,133,115,32,29
65,71,132,56,440,435,34,29
72,83,145,62,659,647,39,28
78,86,146,60,742,733,39,29
77,84,119,56,788,790,41,25
87,84,116,55,849,842,39,23
90,84,117,58,783,774,38,23
102,79,113,55,646,640,35,24
106,80,135,61,585,570,34,22
107,76,131,58,562,531,28,23
95,85,130,57,524,489,28,24
90,88,130,56,490,452,31,24
93,86,118,54,484,450,31,23
82,83,96,43,488,447,31,26
84,77,94,43,476,438,32,26
88,74,105,50,457,431,34,26
84,65,107,50,488,514,32,26
69,74,105,47,776,802,32,24
78,82,104,49,777,807,32,21
72,84,109,53,790,819,31,20
72,110,111,54,795,825,30,16
84,117,120,65,771,773,33,17
85,111,117,76,450,463,35,16
81,128,135,91,423,458,40,17
89,147,147,111,397,478,49,17
86,131,143,120,384,603,59,24
93,139,157,129,523,832,60,28
88,139,162,127,841,1109,65,33
86,130,145,119,1078,1176,63,35
79,115,130,100,1126,1171,57,36
76,107,130,86,1241,1211,45,33
66,92,114,68,1244,1125,44,28
63,92,118,60,1096,895,34,23
71,75,125,62,874,803,33,24
69,74,126,62,810,783,34,23
70,77,123,62,621,613,36,25
60,119,122,54,525,503,32,26
80,124,107,55,470,445,33,26
84,152,116,53,469,434,34,28
89,156,129,57,479,456,36,28
91,159,138,56,481,451,34,26
95,126,138,59,461,450,34,25
75,124,146,62,452,436,33,24
68,102,146,59,437,430,30,25
70,135,145,60,431,400,26,24
70,138,138,57,415,390,29,25
69,142,145,68,392,356,33,26
71,139,136,61,374,334,32,25
75,131,119,59,364,319,35,23
79,97,110,53,354,310,36,24
82,92,112,59,352,303,37,22
79,91,102,44,354,306,32,24
80,102,122,44,345,290,33,24
75,101,130,50,356,304,32,22
66,106,144,56,349,302,33,21
97,155,146,57,397,331,33,23
100,165,158,59,446,368,39,21
104,170,162,59,485,410,38,22
102,172,156,58,534,455,37,21
112,169,139,55,563,484,37,24
87,125,139,52,531,473,35,22
86,116,125,51,524,464,29,23
82,114,116,62,499,437,32,23
91,118,114,57,441,389,32,25
85,123,126,56,439,377,31,23
83,123,117,53,429,364,30,23
80,118,124,50,393,343,30,24
93,114,112,36,400,356,27,24
85,112,117,37,392,350,28,23
78,104,113,38,383,341,27,25
73,104,124,47,544,545,27,23
74,102,105,52,820,779,29,23
61,93,105,57,849,811,29,28
58,85,104,63,878,842,33,28
58,85,102,61,900,875,34,26
59,81,90,53,846,801,34,28
61,111,95,46,635,615,35,27
66,112,96,42,609,587,34,26
69,122,115,41,583,571,30,27
72,118,123,44,555,533,31,28
77,129,134,50,542,502,31,27
83,104,138,55,535,509,31,30
74,105,134,65,525,508,35,29
71,92,115,59,550,503,34,27
68,97,108,58,577,519,34,29
67,97,92,54,629,627,33,29
54,95,82,56,824,804,34,25
56,93,128,47,858,830,33,25
73,105,141,57,848,830,32,27
74,99,150,61,816,809,31,25
81,97,158,67,745,706,31,26
80,94,168,67,446,425,29,26
80,89,142,67,324,307,25,25
68,74,133,65,240,226,28,24
81,83,141,61,378,369,30,25
87,69,127,55,528,520,29,24
89,73,113,49,653,630,29,25
86,84,113,44,726,704,28,25
84,85,119,38,784,760,28,25
81,80,97,37,782,741,27,22
71,93,99,39,726,667,28,22
71,92,111,41,684,618,31,24
72,81,112,46,670,591,34,23
71,85,126,46,652,566,34,23
67,99,139,50,637,538,38,25
75,92,141,49,644,548,39,24
85,92,144,47,666,558,37,23
82,93,138,45,674,565,36,23
82,93,120,45,695,578,36,24
80,87,106,43,744,659,32,25
66,96,109,48,950,861,34,25
57,104,107,60,936,868,41,24
61,115,114,60,910,852,41,22
65,124,123,63,872,826,39,21
65,117,131,69,782,739,38,21
72,123,142,72,443,441,36,21
71,117,139,74,320,321,29,19
72,110,135,91,238,270,36,20
71,111,139,103,392,506,43,23
67,114,134,99,554,608,43,21
70,97,137,94,672,707,40,23
72,106,135,85,791,808,40,25
69,103,139,65,848,831,38,25
67,101,136,46,843,754,29,25
65,101,139,56,779,705,33,25
74,114,123,57,714,635,34,25
77,117,119,62,637,560,35,26
77,118,115,63,615,560,31,27
77,109,126,60,583,535,33,26
79,123,128,49,582,537,31,26
64,137,131,48,602,552,34,24
60,141,140,45,607,544,32,23
65,150,146,45,602,547,34,22
61,150,126,44,636,629,32,22
63,142,116,44,944,886,32,23
72,118,121,71,961,937,37,25
78,108,108,84,954,1068,42,24
81,97,104,103,1068,1250,51,28
85,102,107,120,1225,1437,59,32
90,98,105,125,1235,1494,63,32
89,100,97,113,1311,1555,59,31
100,102,107,102,1359,1504,55,32
93,104,125,85,1318,1389,48,29
91,99,122,60,1171,1168,36,25
83,98,123,54,940,904,29,24
75,91,120,56,835,755,32,25
67,81,120,55,756,684,31,26
69,82,102,48,685,623,27,26
71,80,102,46,637,583,30,26
82,100,118,47,616,573,33,26
81,100,119,47,566,533,31,24
70,101,114,49,560,527,34,25
74,96,110,53,544,516,35,23
75,98,112,51,562,525,34,24
65,72,109,48,576,545,32,24
71,93,152,55,610,578,31,24
69,92,155,60,649,604,30,25
65,99,164,59,689,648,31,26
67,93,167,63,712,669,30,28
71,90,159,64,721,715,28,29
69,83,141,64,899,868,31,28
77,98,138,69,903,890,32,28
79,93,142,75,876,863,31,28
75,94,141,81,858,847,31,28
74,99,147,84,836,788,31,28
70,106,137,81,573,560,28,29
68,89,133,76,463,436,27,29
66,114,128,74,390,361,25,29
67,120,138,65,286,267,23,26
68,119,125,58,184,177,25,25
68,106,116,55,128,122,30,26
60,107,120,49,500,539,31,24
58,78,103,42,712,739,33,24
63,87,90,40,834,855,33,24
73,85,114,47,915,930,39,24
74,89,111,44,965,978,36,23
76,94,109,53,884,871,36,22
85,105,109,55,776,753,37,24
93,91,111,61,700,661,43,28
87,91,89,54,646,603,36,28
83,82,92,56,632,577,36,29
82,83,87,56,621,559,38,30
75,70,99,57,623,557,36,29
59,72,123,54,616,560,32,25
62,81,132,53,630,566,32,25
71,85,134,55,634,557,32,23
71,81,152,56,646,580,30,22
70,117,157,57,784,732,36,22
72,121,137,58,840,786,33,22
65,117,134,70,826,781,35,23
66,121,134,80,818,796,38,22
73,124,130,90,808,810,44,22
79,86,119,102,675,729,43,23
79,87,129,113,648,817,50,26
89,90,127,123,753,997,60,33
85,89,121,124,977,1228,60,34
86,95,104,118,1195,1362,58,35
81,104,107,106,1345,1372,56,35
80,99,93,92,1404,1365,51,34
70,97,96,71,1385,1270,39,27
69,89,97,56,1271,1075,38,27
68,91,108,47,1074,882,36,28
69,81,108,44,856,818,35,26
66,83,114,45,802,758,33,23
61,105,125,53,762,720,39,26
59,112,126,61,693,665,39,24
64,112,121,61,680,648,38,23
72,116,116,62,686,634,37,24
73,120,132,67,537,497,39,24
80,107,124,64,441,411,34,20
80,109,129,71,386,355,36,20
87,95,127,71,522,502,37,20
86,95,137,74,664,631,41,22
87,92,121,67,763,737,37,22
87,85,121,65,834,812,37,23
86,76,116,48,885,858,34,27
74,75,135,45,818,789,33,27
67,89,136,39,720,716,29,24
69,96,139,55,729,734,33,27
63,104,138,60,721,717,32,29
62,104,149,64,702,700,31,28
58,110,132,74,691,684,31,29
58,104,137,82,670,648,30,32
72,95,136,76,538,496,27,29
74,101,133,71,434,393,27,28
77,101,121,69,350,310,28,26
77,93,126,64,252,223,34,27
78,83,109,52,163,148,33,23
60,89,122,52,310,311,33,22
56,74,135,52,627,626,31,21
59,76,137,48,762,749,32,22
69,83,141,48,843,823,29,22
70,85,138,49,934,903,29,26
71,77,117,50,941,894,32,28
71,87,110,48,800,737,32,30
78,106,117,50,747,667,30,30
68,107,114,45,706,611,29,30
67,110,117,46,633,534,30,28
66,119,128,43,607,515,33,26
65,111,134,43,623,539,33,26
51,91,129,46,566,510,33,25
52,98,129,43,560,522,34,22
48,93,130,44,563,531,34,22
55,88,115,42,637,596,31,25
64,94,101,42,652,632,30,25
84,103,106,44,815,772,30,24
91,93,104,75,817,772,34,24
93,105,152,91,812,771,36,23
98,104,159,108,767,790,40,24
117,99,163,120,821,923,49,31
116,116,169,137,788,1040,60,36
115,116,168,128,974,1233,62,38
116,109,133,117,1048,1290,62,39
139,113,145,103,1254,1326,61,41
141,112,150,95,1261,1263,57,37
140,101,141,73,1223,1102,47,33
145,111,139,63,1102,892,43,32
156,109,129,66,1051,825,42,34
140,115,162,70,775,717,75,45
131,114,154,67,883,837,96,62
125,100,162,75,836,812,98,66
122,107,165,81,794,786,100,68
105,115,188,82,748,748,102,67
132,108,155,76,730,707,82,63
132,108,166,75,405,380,59,49
162,131,163,73,338,314,60,45
163,130,162,81,268,250,59,45
186,127,148,91,475,474,59,51
215,148,148,95,655,654,54,52
213,149,146,93,784,771,51,53
207,134,149,85,836,817,46,60
216,133,151,73,888,868,40,59
225,138,144,56,804,772,36,54
186,119,152,49,665,622,36,48
222,124,136,47,546,501,35,45
217,127,119,43,497,453,34,34
222,120,165,57,454,407,36,31
208,139,174,56,427,390,40,32
203,146,174,56,452,423,45,46
176,145,185,60,437,413,64,63
230,156,185,62,438,427,79,80
217,163,151,56,425,401,80,87
219,152,158,56,453,487,81,88
241,152,143,65,824,821,79,83
232,160,137,76,842,834,70,71
173,148,148,94,894,917,54,52
181,145,145,104,909,1023,54,47
167,135,124,119,1023,1196,58,45
142,142,122,115,816,1031,55,48
163,138,130,106,865,1065,50,51
158,139,125,89,839,1014,47,49
154,144,135,73,823,913,45,51
165,163,131,48,681,626,33,49
159,150,152,53,600,556,35,46
138,143,139,56,500,462,33,44
165,146,145,63,461,402,38,48
158,140,139,62,440,372,42,42
164,124,152,62,422,354,45,56
156,117,136,66,414,342,46,57
169,129,149,63,401,346,46,56
154,120,146,61,392,375,45,53
160,110,145,61,411,403,39,53
153,100,137,60,437,423,37,39
181,119,143,54,467,446,35,38
196,108,163,62,479,449,36,40
193,107,162,58,505,441,38,42
192,132,160,57,548,464,42,42
184,132,156,59,535,513,42,43
159,123,145,53,843,803,39,38
124,125,111,48,1111,917,41,38
137,134,108,47,1152,951,40,36
136,121,114,45,1142,953,38,39
130,120,124,43,1135,922,38,36
131,117,133,47,961,717,40,38
158,120,146,46,646,586,38,37
139,127,156,49,559,539,37,35
165,131,147,50,544,508,41,37
170,132,138,51,575,527,42,39
179,133,137,53,537,488,43,43
151,124,125,55,517,456,44,48
162,126,119,57,508,443,44,51
136,124,129,62,510,440,41,47
152,134,144,77,473,398,46,45
142,141,179,80,447,394,47,41
154,157,196,78,474,436,49,35
146,153,192,80,482,441,51,33
142,153,205,80,485,454,58,31
175,166,213,77,518,500,59,33
197,173,193,73,510,490,60,36
219,164,183,71,592,599,56,35
218,153,181,68,887,838,53,36
214,157,166,73,909,865,48,40
176,129,149,69,931,897,41,42
150,109,134,67,985,954,39,39
116,115,139,67,952,893,42,39
127,111,141,71,719,702,46,40
169,123,147,59,727,692,40,39
169,133,153,53,720,640,41,35
171,139,149,53,661,570,44,34
163,132,139,59,728,662,39,35
154,140,155,55,925,816,36,33
115,112,158,69,915,839,44,29
115,110,174,96,920,978,47,29
124,97,182,110,990,1134,50,33
154,111,181,121,1058,1237,61,34
158,114,179,132,1115,1347,66,34
166,121,168,129,1301,1489,63,38
172,117,139,110,1357,1436,63,41
169,127,155,100,1321,1352,57,41
142,116,156,85,1240,1229,46,36
145,111,147,63,1055,1013,37,35
138,110,150,59,842,785,39,32
127,106,155,59,743,732,36,27
114,93,122,56,718,668,36,25
142,96,114,53,704,642,35,25
150,98,102,51,686,600,34,25
154,97,110,51,633,559,30,23
155,99,126,52,623,549,27,24
162,99,128,49,628,531,30,24
131,86,129,50,603,517,33,24
107,76,150,58,582,513,36,24
100,73,142,58,616,532,34,24
97,75,124,57,619,532,33,22
85,76,127,60,647,573,34,22
122,77,135,58,711,609,32,23
147,78,125,59,713,602,36,27
146,70,118,58,709,594,39,26
152,56,127,61,708,592,41,27
150,54,125,55,677,558,40,28
131,56,115,60,618,519,39,30
110,56,104,58,592,502,34,29
99,56,105,57,556,488,32,29
90,55,97,58,547,491,32,28
91,61,100,61,538,481,35,29
106,60,95,57,542,479,35,27
109,59,85,51,568,500,36,25
109,59,98,53,597,518,37,25
105,59,94,57,637,560,35,25
117,65,97,57,655,592,30,24
118,66,102,56,678,630,31,27
111,63,103,57,705,662,29,26
117,65,84,54,710,671,28,27
144,73,102,49,679,636,32,27
150,63,97,48,672,620,35,31
129,56,92,50,629,578,35,28
135,59,113,56,593,537,37,29
136,55,119,57,552,500,36,29
113,50,105,56,534,500,34,28
93,53,107,55,536,507,31,23
127,68,115,55,540,511,30,24
135,81,101,48,538,515,28,24
137,91,105,55,553,528,30,24
132,89,104,59,562,526,33,26
156,93,106,62,555,525,33,27
135,82,98,59,565,528,33,27
122,75,92,61,565,530,34,26
116,70,88,58,565,530,31,28
121,74,101,58,566,528,26,26
89,65,90,55,571,526,26,25
95,69,107,59,577,540,26,24
88,59,119,59,591,562,24,25
99,55,113,58,600,571,27,21
97,49,96,51,608,584,26,22
96,55,126,52,601,579,31,26
98,72,118,54,597,560,32,27
124,74,117,53,586,537,33,27
121,75,125,52,589,527,33,28
126,80,126,51,591,521,33,29
131,81,99,51,596,525,28,28
130,66,97,50,578,524,30,27
114,70,87,53,555,501,30,27
107,67,73,50,541,501,28,26
113,60,70,51,522,498,29,28
112,58,85,53,519,503,31,26
118,54,90,50,549,527,30,27
122,45,85,45,587,565,29,26
129,49,86,46,612,584,30,30
113,56,88,45,639,606,32,25
125,54,75,40,666,617,30,25
110,55,73,41,667,609,30,23
96,56,83,52,661,592,31,24
91,53,85,51,641,570,30,22
102,52,92,54,616,538,29,26
88,47,90,55,590,514,31,26
91,47,88,60,568,500,30,27
92,47,78,48,548,491,30,30
100,46,76,49,551,501,33,30
108,43,65,42,550,501,31,27
132,53,111,51,554,522,31,29
132,58,135,51,576,523,36,28
131,57,137,54,587,526,39,25
124,60,138,58,575,507,49,25
123,56,140,59,582,511,54,25
94,46,111,52,561,477,54,23
95,54,83,51,530,460,52,23
111,57,106,55,537,483,51,24
119,54,108,51,540,491,39,24
107,58,109,55,531,483,34,24
107,62,119,58,553,516,35,24
127,63,126,53,566,532,34,25
116,63,118,56,541,512,33,24
119,65,136,74,564,522,34,23
126,70,147,75,559,515,33,26
128,69,144,74,542,487,30,25
105,59,135,74,543,476,29,24
108,58,124,67,543,462,27,24
110,63,114,56,511,434,27,27
103,63,96,51,503,431,28,25
101,66,81,48,476,410,28,27
97,63,74,47,445,400,28,26
97,70,76,47,454,417,28,29
76,72,66,47,442,414,27,26
76,68,70,48,452,424,26,28
95,72,73,50,479,446,29,27
109,80,79,51,489,451,26,30
107,76,95,53,479,445,30,27
110,74,85,41,530,488,31,29
129,71,92,46,543,510,33,28
118,66,92,43,548,515,31,28
109,63,92,43,580,539,34,27
131,86,80,40,592,550,30,27
150,89,81,41,549,520,30,25
145,96,95,42,542,505,26,25
167,111,92,40,546,499,27,27
168,114,94,46,513,472,27,26
154,100,105,60,519,474,31,26
140,95,108,60,531,476,32,26
141,93,89,56,526,469,33,26
121,84,91,58,538,486,32,25
121,75,90,57,538,481,34,26
127,71,89,44,522,463,32,26
131,69,85,45,522,469,28,25
127,70,88,46,564,509,30,27
123,56,91,47,566,511,31,27
121,58,90,40,596,540,28,27
114,60,79,37,630,568,27,31
106,58,107,40,647,576,29,31
93,48,108,41,618,543,27,30
82,46,104,40,604,530,26,28
96,55,106,40,594,525,28,29
97,54,110,43,572,508,27,25
121,56,93,40,569,503,31,26
126,59,85,36,564,506,30,25
132,83,85,35,580,518,31,27
129,77,73,34,591,520,28,25
124,76,71,34,588,515,29,26
97,76,59,30,572,508,24,24
99,78,61,32,583,508,29,24
118,93,69,36,555,489,29,22
141,96,73,36,541,475,32,24
147,97,77,37,555,489,31,23
147,101,78,41,580,501,33,25
148,99,90,43,599,528,32,28
140,69,90,40,639,555,32,28
121,65,95,45,638,560,31,26
134,88,102,52,653,559,33,30
133,90,103,56,652,546,30,31
140,106,112,58,616,506,28,30
127,106,112,57,579,476,27,31
117,111,111,58,587,474,26,31
117,104,108,50,545,442,24,30
136,101,112,45,513,430,26,29
127,86,94,39,534,449,28,28
126,81,93,41,532,453,29,28
122,75,101,39,523,451,31,26
129,63,85,39,534,473,32,25
113,60,84,41,538,481,32,26
129,54,97,46,518,464,31,25
133,59,97,48,543,473,33,27
136,58,92,49,542,478,32,26
161,75,99,53,551,481,34,25
166,81,97,50,566,496,32,23
152,81,87,50,576,506,32,25
154,80,85,46,583,504,30,25
157,81,82,47,587,499,29,24
119,62,85,53,622,539,26,23
124,56,92,54,672,573,26,27
126,57,87,54,667,570,26,26
135,79,120,62,618,545,27,25
130,76,116,58,603,537,26,26
121,74,123,50,531,474,26,28
105,82,124,53,425,412,26,27
119,85,122,51,381,386,27,31
113,63,96,41,388,385,27,32
115,64,97,43,379,381,27,31
120,68,88,43,375,368,26,30
124,58,80,42,388,363,29,30
110,61,80,42,460,402,29,29
97,62,82,45,478,415,30,29
105,70,82,44,472,408,31,30
99,70,73,45,516,434,32,30
102,75,78,45,516,427,32,30
94,73,94,47,465,392,32,28
94,72,86,42,450,377,29,27
89,66,87,43,486,400,30,27
112,68,89,39,445,377,30,28
109,64,82,37,451,384,28,26
115,58,60,32,450,384,26,25
127,68,68,37,470,394,31,30
127,69,69,34,441,377,28,28
124,67,69,36,441,381,27,29
120,66,66,32,409,361,28,29
117,64,75,34,419,372,31,28
103,54,67,29,432,371,27,23
127,67,91,38,416,355,27,24
108,61,90,35,427,370,28,23
113,64,99,39,436,376,27,24
112,68,92,38,432,379,24,24
121,67,94,39,425,396,25,24
113,55,93,40,462,429,27,27
115,54,93,40,485,445,27,29
115,75,88,42,519,463,28,30
112,75,93,44,553,475,29,30
119,81,93,46,540,462,27,33
109,85,67,39,515,439,24,30
108,90,74,45,489,405,25,29
110,76,68,41,463,405,25,29
123,75,72,39,413,378,25,30
124,72,73,39,394,363,25,28
127,66,75,40,394,359,28,27
129,68,69,32,403,376,26,26
121,62,91,32,401,365,26,22
150,67,89,31,426,385,28,26
149,68,95,34,468,416,31,27
143,71,91,37,484,427,30,27
141,70,95,38,497,428,31,28
144,68,76,40,532,446,30,29
112,66,80,42,539,449,29,27
101,65,78,39,500,425,26,25
93,59,78,35,488,421,26,24
92,56,107,49,480,425,29,24
105,71,108,46,434,394,29,28
104,70,103,45,431,371,32,25
112,67,98,45,468,387,32,25
112,70,109,47,491,400,34,26
113,67,83,37,512,400,32,24
103,50,80,38,549,432,32,19
109,49,79,40,556,449,29,21
113,54,83,38,575,458,28,22
118,49,75,41,589,468,25,22
121,51,72,38,560,452,24,23
130,63,79,39,559,444,24,26
117,62,77,36,552,432,26,24
101,55,73,39,520,423,29,26
103,68,69,36,508,419,29,27
98,69,76,36,545,453,30,25
107,62,72,35,540,460,31,23
113,63,77,35,603,509,30,27
114,63,76,34,637,531,27,26
106,57,73,33,646,528,29,25
111,59,63,36,679,545,29,26
114,60,67,35,688,549,28,27
119,59,70,40,638,511,28,24
118,63,78,41,637,512,29,23
120,58,78,39,646,526,28,23
122,58,80,36,600,503,27,24
98,56,75,38,609,506,26,24
83,58,66,29,621,523,24,23
103,57,60,28,616,520,25,24
101,55,57,29,610,525,25,25
96,54,56,29,624,532,24,25
115,51,58,27,628,544,26,23
117,49,61,30,663,579,31,24
101,51,57,30,666,584,30,24
100,51,86,33,647,570,28,24
96,45,87,31,664,580,27,24
81,53,84,34,677,583,27,25
80,55,89,34,658,566,21,26
74,52,88,35,656,569,21,28
78,59,65,31,685,580,22,28
89,61,76,35,675,583,23,28
76,55,79,34,659,582,21,27
74,56,78,33,689,570,21,26
76,58,90,32,712,579,22,24
72,51,86,32,713,583,21,24
55,49,74,29,702,558,22,24
49,50,70,27,691,539,24,24
65,51,61,25,645,538,25,25
68,61,52,24,598,500,36,29
70,65,49,23,535,484,38,32
77,66,48,31,560,509,40,33
100,69,52,33,565,508,39,33
104,74,58,37,575,517,40,33
108,62,50,37,610,555,30,30
106,57,56,40,670,576,27,25
109,57,67,35,675,574,25,28
112,59,70,33,680,607,26,28
105,53,66,31,682,611,26,27
104,57,77,31,665,591,27,28
115,66,79,29,654,582,27,29
109,70,72,29,608,558,26,26
105,74,73,28,586,525,25,28
103,74,79,28,558,502,25,28
116,72,68,29,545,501,23,27
113,65,64,27,545,506,23,26
130,65,68,29,549,515,22,27
131,56,68,31,568,528,24,25
135,55,80,31,593,553,24,24
121,51,82,31,612,576,26,22
118,58,83,33,623,583,27,23
106,58,87,33,635,596,28,22
87,55,82,32,640,605,28,21
88,53,70,33,633,592,27,24
99,62,70,32,623,575,28,23
116,62,77,31,611,574,26,28
114,62,69,30,619,574,28,29
136,73,69,32,603,556,28,29
145,74,66,29,606,557,27,28
139,69,67,31,607,569,23,28
129,68,59,32,608,568,26,23
129,63,60,33,592,561,25,22
123,54,62,33,604,570,26,21
126,58,57,32,593,570,28,20
136,61,54,32,580,554,31,23
132,57,65,32,541,518,30,25
137,58,70,33,527,500,31,26
129,57,66,32,505,484,31,26
107,54,66,33,517,494,29,26
98,54,75,36,531,507,29,24
106,59,60,36,559,541,27,22
