108,384,128,74,138,56,37,60
114,398,140,81,134,57,38,65
114,396,128,75,126,58,42,69
121,308,116,82,132,53,40,57
125,296,118,90,125,58,41,56
114,290,124,87,125,59,46,63
111,268,110,86,126,56,46,72
116,257,109,87,136,54,52,67
120,236,104,81,131,57,54,72
119,291,106,71,123,50,55,74
121,277,90,63,117,48,53,73
172,288,85,69,118,56,91,107
199,304,75,67,109,61,96,113
207,305,76,75,132,80,133,115
217,274,71,77,142,97,171,125
217,286,73,82,146,99,181,126
219,332,81,75,159,123,242,128
225,343,107,76,179,125,265,173
273,343,109,106,210,114,266,225
275,332,104,170,268,114,256,226
279,341,116,363,505,146,257,224
313,322,160,576,759,202,222,216
321,344,146,626,811,214,231,188
298,356,156,629,849,236,245,136
334,362,157,618,841,229,236,136
347,359,164,565,766,238,322,150
301,326,131,434,584,233,383,155
278,286,132,371,521,231,373,151
264,271,121,383,474,216,391,138
218,291,122,387,481,220,395,133
191,323,110,346,466,214,366,125
195,328,99,255,410,178,293,120
209,330,103,251,404,173,295,125
210,347,96,222,380,166,247,121
205,369,95,215,401,160,245,119
203,350,87,198,370,155,199,119
214,365,75,174,334,144,244,127
185,365,67,158,348,145,237,121
179,364,75,147,344,170,238,130
166,331,76,144,287,183,239,130
170,310,75,134,269,191,248,128
132,304,76,137,280,182,185,100
147,308,83,148,247,199,177,99
153,284,82,143,233,187,200,101
168,276,78,131,227,181,190,105
199,295,75,132,209,164,160,96
211,401,77,125,250,168,179,110
240,438,73,132,271,147,170,107
243,514,77,159,323,147,150,102
240,519,78,160,325,151,156,97
230,527,77,159,331,142,164,108
214,449,78,158,288,135,143,94
231,407,71,142,275,127,138,96
214,320,63,115,255,116,126,84
277,315,67,123,254,124,121,91
281,283,69,126,251,123,95,80
291,283,69,117,278,119,108,83
256,286,69,132,279,142,119,77
269,297,66,132,241,146,123,85
195,277,58,137,251,128,116,76
188,269,55,132,239,135,125,93
235,272,51,126,225,134,114,90
237,263,56,117,232,116,109,92
255,227,57,111,236,123,103,98
279,230,61,95,224,123,108,103
309,245,60,92,226,110,114,108
269,222,57,99,199,106,110,111
269,223,57,108,206,106,116,110
246,217,55,128,260,97,108,99
251,262,54,133,264,103,111,112
200,251,60,159,293,129,111,100
218,273,64,156,312,141,117,98
209,261,62,145,296,138,117,103
227,267,66,132,258,150,145,106
239,291,67,127,263,153,157,97
236,299,69,124,248,133,150,94
245,305,73,132,248,128,158,99
258,322,77,133,252,132,161,92
248,325,81,136,264,117,149,95
225,291,83,150,274,121,162,94
244,318,82,144,268,125,162,95
238,301,79,137,259,124,155,97
232,379,77,154,301,143,152,98
242,521,79,142,328,148,151,94
243,620,81,131,336,143,167,90
224,680,82,131,360,163,181,92
206,757,85,165,375,176,201,89
238,746,85,152,349,175,207,109
230,685,86,171,317,182,216,116
225,596,83,176,314,185,189,111
261,542,83,167,288,170,197,129
261,442,80,148,294,168,236,129
235,407,88,155,324,167,268,118
300,416,87,197,377,187,321,123
337,434,101,220,395,231,377,150
346,390,130,243,400,318,533,211
355,391,141,246,382,332,562,230
376,404,138,248,376,333,555,231
357,379,136,221,364,332,554,232
330,350,125,208,345,305,522,223
325,368,96,188,380,229,369,158
333,350,79,181,374,211,285,134
325,314,82,177,355,201,262,137
292,351,103,153,310,237,334,154
301,347,110,136,328,252,362,169
284,474,108,128,302,246,394,167
276,653,118,150,333,250,417,171
248,723,123,160,328,248,429,168
241,715,109,166,327,235,398,150
215,730,116,161,309,227,402,150
221,656,115,166,289,219,378,153
219,521,112,167,278,206,393,165
230,454,114,152,269,228,424,179
270,408,114,188,282,180,369,175
291,393,103,192,253,164,358,174
295,417,107,183,245,195,396,182
301,435,101,187,315,207,362,165
296,404,98,198,318,211,345,150
280,407,103,163,304,218,344,149
257,401,108,177,320,222,313,126
255,372,104,182,354,203,253,103
237,325,107,202,357,216,265,100
235,387,130,216,488,304,296,138
248,403,141,234,516,312,304,139
248,407,138,234,520,310,315,142
234,460,137,232,517,320,317,143
240,475,139,202,494,312,331,167
276,495,131,213,421,216,295,140
232,494,124,198,418,223,294,131
243,486,135,185,403,226,352,182
259,494,135,186,381,225,401,218
257,485,133,190,364,228,392,205
231,428,113,156,325,242,376,207
234,432,103,151,293,239,385,211
232,475,90,180,359,239,352,174
233,455,101,212,389,232,286,132
266,474,110,227,407,228,353,181
265,484,143,280,451,239,377,206
277,521,145,295,450,223,353,205
272,485,158,286,426,248,379,202
261,468,180,284,461,265,412,203
255,445,176,268,444,263,372,161
271,451,158,212,389,260,390,135
300,407,168,190,409,301,427,155
313,478,156,184,433,282,403,181
308,469,134,162,385,281,371,174
305,452,138,164,373,291,339,177
299,427,135,170,373,273,282,167
267,429,122,167,346,232,287,177
261,392,124,165,322,251,258,149
259,387,121,168,326,241,259,159
246,406,125,202,379,225,268,154
245,405,125,196,395,225,296,160
264,461,118,207,417,233,239,139
276,442,112,212,433,225,253,143
289,482,111,204,454,232,273,132
301,482,100,177,453,269,282,129
295,475,110,214,455,290,334,137
317,407,119,203,430,294,367,150
305,395,119,195,406,286,355,141
303,369,122,189,391,291,395,167
301,365,129,182,388,267,396,170
315,407,118,140,382,240,338,165
284,409,108,142,373,217,293,141
277,422,119,154,367,215,312,147
340,418,126,165,373,213,307,185
327,425,123,180,385,222,304,192
325,398,125,180,374,217,295,184
318,386,129,182,381,221,295,183
318,410,124,170,377,229,287,195
240,435,108,191,350,206,191,134
238,449,102,165,287,190,154,113
204,461,100,159,271,198,199,113
217,467,102,160,264,192,195,118
218,460,101,176,254,176,177,96
224,460,93,142,265,163,172,91
226,452,89,143,240,154,185,102
229,472,81,131,246,153,136,101
225,488,78,140,273,172,178,117
221,466,72,129,274,174,213,135
220,456,87,122,259,171,215,131
217,438,100,121,289,181,218,138
247,400,105,122,276,161,215,138
245,393,118,118,285,160,204,140
268,373,119,122,292,161,169,137
270,321,121,144,334,196,192,139
286,342,119,164,363,199,188,127
263,340,115,166,374,207,193,126
262,326,115,153,373,205,223,140
274,320,117,148,363,207,233,132
278,323,119,141,306,174,221,131
274,324,110,118,248,162,207,131
298,344,111,125,252,170,222,135
300,350,94,131,218,164,172,114
277,371,99,125,219,152,171,112
259,397,97,120,235,154,161,112
257,397,104,119,222,140,172,115
228,415,111,111,221,116,159,110
275,464,117,113,235,112,164,100
273,547,110,122,246,120,149,96
298,547,105,127,250,128,157,105
317,571,107,120,277,136,148,102
323,544,99,121,265,140,139,104
277,524,95,125,270,176,143,100
270,488,97,123,281,189,138,97
257,499,98,120,322,201,151,123
230,448,103,130,326,238,174,135
266,545,106,127,319,238,180,136
309,527,137,133,382,254,238,176
305,480,138,126,374,251,241,177
314,505,132,136,334,238,226,160
315,511,119,150,328,202,213,150
305,422,117,153,338,221,233,151
270,499,76,145,257,178,169,103
336,505,79,160,277,180,226,159
329,445,83,173,339,204,236,174
313,530,94,166,366,204,235,174
302,513,100,170,370,185,216,192
306,519,101,190,376,185,223,193
271,549,104,189,371,187,181,167
277,574,116,179,359,160,175,159
288,505,118,180,331,155,175,157
306,517,113,188,337,151,165,139
296,501,112,167,353,147,180,138
261,473,104,165,351,129,176,119
243,476,92,146,306,120,179,103
253,454,83,128,297,119,174,105
215,463,79,106,273,117,171,90
256,393,79,131,257,109,156,103
280,380,91,170,244,117,148,105
277,339,93,186,259,138,155,110
259,385,93,207,319,160,157,117
258,373,95,231,343,170,159,119
240,350,95,222,333,166,156,115
215,374,86,195,336,154,160,118
232,384,76,181,318,133,143,118
236,398,74,173,285,147,189,113
236,393,76,156,313,171,194,114
215,408,77,148,322,177,199,114
214,432,79,143,326,189,202,122
194,420,90,159,380,210,206,129
202,420,106,202,418,206,189,131
231,436,112,199,408,185,224,135
228,471,115,217,418,215,251,143
228,464,114,231,463,217,280,137
229,490,111,226,419,223,312,134
233,468,108,188,380,209,325,141
216,492,107,182,376,213,306,141
226,527,109,211,412,220,299,144
241,506,119,202,379,232,282,142
286,504,118,202,378,208,255,147
280,510,112,222,357,221,255,154
303,490,117,246,376,239,257,176
325,408,112,227,378,208,247,171
384,417,131,226,424,249,265,182
400,411,132,246,440,278,354,249
438,389,148,226,471,363,496,325
457,430,179,348,571,390,554,339
484,453,188,354,545,397,593,364
451,532,173,370,515,431,696,367
427,552,180,365,554,446,719,347
396,568,168,389,550,382,676,278
398,576,168,363,474,362,696,258
390,593,165,343,468,360,678,230
400,614,167,326,458,283,583,234
465,597,177,373,473,279,581,227
558,572,190,352,461,275,578,316
549,538,163,268,391,280,526,319
564,629,163,290,470,333,567,340
550,575,162,306,525,338,560,334
509,569,150,259,454,328,477,317
403,622,135,266,516,350,406,217
390,684,128,257,513,339,436,205
376,700,128,263,467,325,440,150
375,706,136,278,405,365,445,152
350,713,135,282,436,347,455,141
353,682,133,295,355,319,483,145
340,627,184,335,440,302,501,183
309,486,181,318,438,263,449,195
323,483,175,325,516,221,436,198
336,521,172,316,530,242,441,205
332,499,185,369,582,329,450,215
336,509,148,347,553,340,407,179
322,547,160,361,593,350,399,172
345,529,176,392,576,361,408,211
369,508,182,404,575,362,413,213
413,553,173,336,517,294,406,227
410,592,173,334,519,293,458,250
425,629,172,315,484,295,487,254
419,602,169,250,413,358,588,242
452,572,161,231,378,346,599,245
454,574,159,253,416,337,573,230
476,591,191,422,604,458,586,228
464,534,196,433,600,461,567,247
462,536,199,436,615,402,471,228
427,582,218,455,649,424,474,234
394,602,216,473,642,422,475,229
407,523,185,327,493,350,406,248
417,515,172,313,449,331,397,229
408,517,158,314,494,321,359,219
409,511,151,321,498,341,368,200
423,482,149,286,515,349,375,210
391,530,144,283,508,285,352,188
390,512,140,292,513,304,342,187
383,512,143,271,485,294,400,199
360,548,122,211,445,252,346,204
322,546,132,233,491,248,384,193
345,499,128,243,508,291,404,190
352,605,128,242,541,287,407,207
334,604,129,244,507,305,414,199
327,616,128,241,554,377,459,204
376,600,135,228,505,386,458,237
365,578,150,238,519,389,494,236
337,485,164,243,503,407,513,219
339,524,162,249,526,414,492,212
338,415,181,280,545,352,486,206
288,439,178,349,570,356,490,169
290,475,171,342,609,329,463,177
315,540,165,344,633,288,444,172
421,549,172,360,682,321,570,295
432,598,155,387,648,304,553,310
501,635,156,316,636,331,537,320
499,656,155,313,573,322,507,311
528,643,146,300,539,327,526,316
462,615,139,282,550,314,367,217
470,573,147,237,511,310,363,197
408,551,136,233,514,265,334,181
390,498,126,207,486,261,330,187
327,501,138,251,523,253,283,184
313,514,131,279,458,193,265,177
279,525,115,252,460,186,263,189
269,502,112,243,415,168,279,189
278,518,127,267,436,205,298,195
265,449,112,233,375,219,302,186
286,433,106,178,324,206,297,189
291,425,110,176,334,248,322,191
283,410,127,283,511,304,331,208
296,401,106,282,485,279,316,186
316,420,105,284,488,276,308,187
306,423,107,280,488,288,322,198
323,426,111,297,498,270,281,186
329,424,96,256,364,213,269,163
320,413,121,240,355,202,278,166
311,393,123,228,358,203,270,165
298,377,149,249,375,215,286,141
285,338,145,264,446,215,302,143
299,383,145,218,432,251,317,159
289,417,130,218,435,254,284,158
292,473,131,223,439,255,311,176
293,467,100,208,441,265,294,169
293,521,100,207,350,266,324,176
283,493,101,193,311,245,326,172
270,503,103,187,322,242,332,162
263,568,109,201,463,247,322,155
259,597,109,189,445,216,303,159
261,562,106,154,445,203,275,155
270,557,97,162,447,180,236,151
269,544,93,165,440,189,233,158
261,467,80,131,295,177,229,148
291,416,78,127,299,174,238,149
268,427,84,103,295,169,214,132
246,405,86,90,272,170,220,124
251,475,81,112,364,174,226,121
239,456,82,116,342,159,217,108
216,466,85,119,322,152,205,106
205,501,74,116,298,144,192,101
186,518,69,110,301,132,166,90
172,486,66,70,146,89,155,75
175,445,62,56,132,86,147,92
153,457,54,43,130,89,144,88
154,413,49,43,131,77,145,86
164,418,51,45,124,77,147,93
159,383,50,45,118,74,124,94
173,391,50,45,112,67,119,86
153,377,48,48,107,64,104,79
146,371,49,45,91,53,94,77
124,360,44,43,78,41,83,64
151,354,44,43,76,43,84,60
126,354,45,46,77,45,97,60
132,341,40,39,84,44,100,65
139,357,41,45,87,44,97,64
143,359,42,50,88,46,99,69
108,342,41,49,83,43,96,70
107,375,36,46,71,36,57,59
102,376,35,44,60,35,58,52
89,343,28,38,61,35,58,52
96,334,27,31,72,32,54,51
97,335,27,32,72,33,54,52
88,295,29,32,73,36,52,48
74,301,30,36,75,35,44,47
89,314,35,38,82,50,99,53
76,323,33,38,72,51,103,45
81,319,35,38,78,51,107,49
84,357,35,41,79,50,108,49
88,366,39,41,79,50,110,56
67,363,33,43,72,33,64,45
71,336,37,44,72,34,59,46
62,328,34,40,64,31,51,39
63,294,31,37,66,33,56,41
61,315,31,56,64,31,52,28
73,411,43,60,95,33,57,44
65,416,46,61,99,28,51,42
66,416,51,64,102,28,49,43
65,411,61,66,108,41,86,44
63,379,65,50,117,43,89,47
49,275,65,50,105,43,87,35
51,273,66,49,115,43,89,38
50,258,68,59,126,48,91,39
63,231,63,60,126,40,66,44
65,198,57,61,118,38,63,42
77,160,51,60,114,41,76,46
90,115,49,68,101,45,86,43
97,87,43,60,85,46,93,55
95,74,36,60,74,45,90,59
98,74,38,59,79,46,88,59
101,88,38,56,71,50,87,59
91,191,32,48,72,47,80,60
109,252,32,54,82,50,92,59
109,281,37,49,88,48,92,53
110,321,37,51,88,49,94,55
99,336,35,50,88,41,85,51
97,301,37,46,87,43,82,53
70,264,35,38,75,34,56,45
56,271,31,38,67,31,43,37
43,267,28,34,67,30,39,35
44,287,28,32,67,30,34,35
40,294,26,29,69,27,26,29
34,311,28,26,70,25,24,24
34,293,27,26,73,29,30,24
32,278,29,25,81,28,29,22
31,468,33,25,145,28,30,18
34,551,34,28,160,28,30,20
39,614,34,31,169,30,35,24
39,645,33,31,171,29,33,25
42,653,32,34,167,30,33,27
44,523,29,39,114,28,33,30
45,432,26,37,90,29,33,33
45,319,26,35,70,28,34,33
46,257,27,35,59,25,30,33
44,214,26,36,49,24,31,32
44,192,25,39,42,25,30,30
42,172,28,39,39,23,29,26
34,182,23,39,38,21,25,23
55,180,23,43,45,24,32,33
55,192,26,44,44,24,30,33
54,191,31,39,43,24,45,35
56,195,29,40,46,28,48,34
59,183,31,42,43,29,49,36
57,209,31,41,35,31,52,47
56,201,29,37,35,31,53,48
53,201,24,35,33,30,42,47
60,223,26,39,32,31,43,53
59,230,26,35,35,31,42,54
46,189,24,51,38,35,64,46
52,185,29,56,40,35,66,47
52,191,28,57,42,33,66,46
43,180,30,57,50,34,67,42
47,194,32,59,52,36,69,43
44,205,31,46,54,29,45,34
39,227,35,44,56,39,74,43
42,231,35,43,56,40,75,44
43,224,31,37,50,38,73,42
35,207,29,33,50,35,72,38
41,219,28,34,52,35,72,39
38,192,20,31,48,23,39,26
38,196,23,36,49,24,39,24
39,190,26,40,48,26,53,29
39,199,25,40,46,26,51,29
42,186,27,38,45,31,59,34
45,195,25,34,46,32,57,34
46,199,26,50,49,30,56,35
45,209,25,52,46,27,41,33
45,208,24,51,45,27,42,34
43,204,33,53,41,25,50,37
43,198,35,54,43,26,52,38
52,186,35,36,53,47,90,50
93,230,38,33,63,70,148,78
99,235,39,35,66,73,157,83
120,248,36,41,71,75,156,84
143,290,37,65,91,77,166,87
175,320,36,71,121,82,170,94
206,311,57,80,144,83,149,84
217,350,73,110,204,109,184,91
251,346,80,122,251,119,199,117
288,346,85,167,329,143,217,133
300,391,98,199,353,161,237,140
305,391,106,217,412,165,260,146
336,399,101,232,437,177,259,155
353,421,97,257,491,199,279,143
335,444,109,247,491,262,298,158
315,403,104,329,598,280,288,154
345,401,100,327,591,298,303,161
322,363,106,315,578,301,296,156
272,343,121,298,527,298,291,153
284,306,112,290,517,243,275,140
298,309,109,165,372,212,272,148
252,294,101,185,356,189,244,141
275,304,101,184,342,195,271,153
289,401,90,188,328,183,268,156
283,577,97,174,278,179,282,161
287,615,109,174,287,215,297,165
273,639,109,168,301,219,309,173
300,658,113,155,294,211,282,164
308,634,110,146,299,206,265,162
296,501,112,146,331,219,272,162
285,480,103,174,339,199,268,154
283,503,110,210,335,192,239,146
226,471,99,222,352,178,227,146
214,448,102,229,364,181,258,157
225,431,90,232,328,156,230,144
236,417,94,212,312,139,221,144
246,393,92,166,279,140,234,136
252,409,103,185,290,162,255,134
306,427,100,183,274,177,274,157
306,460,120,191,288,199,323,177
296,472,127,197,337,216,350,178
310,458,125,257,497,228,372,195
312,454,116,247,514,219,399,200
291,440,116,256,527,219,382,176
278,419,106,259,540,208,352,152
348,379,104,261,513,193,349,148
346,435,101,219,386,179,318,140
348,469,109,270,392,211,310,155
322,482,106,262,419,207,297,154
334,467,102,256,440,206,278,155
250,518,93,246,449,212,259,155
251,468,89,217,428,212,266,146
252,434,82,163,416,172,220,112
236,403,91,183,389,171,237,112
230,418,90,188,353,177,244,115
254,352,87,186,332,163,215,106
265,347,89,189,324,160,261,104
243,334,90,179,285,165,257,101
264,346,88,140,267,161,268,117
245,314,85,126,240,142,254,111
239,369,86,128,250,142,255,111
211,374,84,135,277,140,187,109
212,385,79,113,265,124,182,116
220,451,83,148,324,154,122,108
219,487,81,156,341,152,123,106
212,451,77,156,332,148,122,120
207,446,76,142,311,146,126,124
217,462,76,136,314,151,134,123
191,384,65,95,264,106,134,105
211,354,69,88,256,110,144,106
197,412,70,79,252,125,180,93
214,430,79,79,253,118,187,83
228,436,83,100,271,133,186,79
239,466,84,150,280,172,246,90
223,451,84,155,298,216,245,95
252,422,87,163,345,229,237,97
278,395,80,164,338,239,244,107
282,378,79,157,309,248,302,137
292,330,77,125,383,245,267,150
311,346,87,123,363,207,270,156
289,396,93,114,352,252,395,180
248,450,106,111,369,267,434,188
269,453,111,106,383,263,429,180
256,476,112,109,280,250,462,192
232,491,110,111,326,264,474,194
253,447,106,124,300,215,371,177
282,435,99,143,286,210,344,182
241,455,104,159,325,226,343,178
250,461,112,164,340,267,404,173
263,475,111,160,302,266,409,168
287,499,115,172,305,271,411,173
262,516,115,166,323,266,407,159
253,490,113,209,476,301,384,153
276,486,129,235,547,305,318,154
278,444,130,239,578,323,317,159
251,417,125,243,632,332,317,146
294,355,127,246,647,329,317,158
318,368,123,206,537,280,336,182
294,358,98,197,491,253,292,186
298,353,93,202,466,241,287,194
321,334,93,198,389,212,302,211
285,341,96,196,371,210,287,210
264,310,96,190,346,212,275,198
249,290,97,185,342,185,262,171
268,371,98,194,344,154,246,159
234,376,105,204,354,182,221,135
237,394,101,244,355,171,206,131
241,454,105,253,359,173,233,139
284,445,107,233,311,174,227,142
268,421,111,247,374,202,213,133
268,453,100,233,373,182,210,133
258,428,94,185,335,184,204,121
245,376,83,178,344,182,124,95
244,404,93,194,389,179,132,104
231,445,92,192,388,174,151,104
222,430,97,220,440,203,141,105
225,472,97,226,442,204,155,97
232,473,114,256,449,197,161,92
190,466,108,257,456,262,194,88
225,423,110,247,445,263,200,90
253,408,111,227,377,246,195,86
237,360,112,236,393,249,188,91
233,349,93,209,386,250,240,101
230,361,86,194,328,181,217,94
208,370,72,168,249,152,198,95
177,431,69,178,298,164,201,108
195,470,69,215,370,169,208,111
194,473,67,212,362,164,164,102
216,462,68,213,380,168,155,102
198,453,79,226,401,185,153,95
190,406,80,205,369,169,164,88
205,370,80,176,310,159,158,93
235,384,92,196,354,170,128,100
236,407,92,191,338,167,128,98
249,395,84,184,331,149,140,105
270,416,80,199,339,163,126,112
271,477,81,184,381,183,141,115
261,499,73,159,343,171,138,107
237,483,68,156,334,163,134,105
226,486,74,156,335,161,121,102
218,487,78,128,315,135,128,99
208,433,72,107,224,104,106,100
206,414,69,99,217,159,126,105
210,402,71,108,237,180,155,106
214,401,75,106,245,202,153,109
214,383,69,107,247,204,153,103
262,388,73,124,259,200,154,97
282,377,72,130,266,181,166,107
309,400,78,138,335,194,174,109
320,378,78,175,435,204,199,117
313,361,83,185,476,225,200,139
285,420,89,192,494,257,236,138
313,421,95,192,509,246,222,135
290,406,92,205,500,241,214,139
287,429,89,202,462,252,209,144
303,458,95,239,461,245,215,122
292,389,98,229,455,221,177,118
239,381,105,232,446,231,201,123
254,373,102,231,407,220,190,126
243,370,104,216,339,179,169,114
255,329,97,171,348,224,191,118
285,361,87,184,380,317,196,123
291,382,76,184,354,315,191,126
279,389,82,173,376,327,212,136
307,425,80,202,436,365,250,150
297,445,105,262,426,359,279,164
287,435,118,315,479,297,317,180
283,450,122,376,534,309,346,191
318,596,125,384,522,325,359,184
313,575,143,398,522,314,408,198
305,624,157,377,527,320,419,205
279,670,151,362,453,347,405,191
308,680,150,293,396,340,444,182
289,564,144,284,396,310,426,185
267,549,126,229,350,325,357,164
267,461,95,213,325,304,335,141
267,403,89,169,307,256,320,146
243,348,105,187,347,338,367,161
218,330,118,192,378,349,392,158
229,329,122,194,369,304,435,163
253,366,124,204,386,303,430,185
263,351,137,239,454,326,437,186
251,351,124,236,435,257,330,176
259,361,117,233,430,239,306,192
306,400,145,228,444,260,280,213
301,396,144,223,434,262,254,200
309,406,136,205,426,238,251,198
352,418,138,208,415,222,247,191
363,461,136,207,411,248,281,174
331,439,109,209,387,223,243,148
329,435,106,214,399,211,243,146
343,411,104,202,366,221,239,156
300,401,137,306,517,258,249,159
289,347,140,319,525,248,228,162
345,366,139,331,530,255,250,164
343,358,134,321,525,265,250,167
335,406,141,320,526,272,262,156
332,400,114,247,416,231,236,147
334,413,115,222,400,249,265,136
271,381,122,225,427,267,259,135
261,383,122,229,414,252,257,125
306,435,112,201,382,238,267,134
316,429,102,167,345,248,274,135
304,412,102,229,401,227,228,139
315,420,92,224,371,198,209,129
319,406,92,214,358,195,233,132
324,350,94,213,354,211,212,131
345,375,100,206,350,194,211,136
372,379,106,171,333,199,266,168
349,379,107,194,349,243,273,172
376,400,123,249,405,238,253,170
324,368,130,285,442,214,262,161
329,444,131,283,444,205,263,162
315,500,132,270,404,220,272,125
324,521,139,272,466,195,271,118
280,524,134,287,506,217,306,121
273,502,136,316,540,265,294,122
269,433,136,326,563,272,290,132
275,420,135,319,557,249,277,178
278,400,129,291,493,235,284,179
297,400,126,253,459,218,263,182
293,408,109,179,403,148,286,181
276,412,112,160,381,139,287,172
250,371,106,160,392,126,233,137
264,343,95,159,379,118,237,134
268,339,108,125,313,129,232,129
270,316,127,179,364,161,236,147
277,367,115,193,370,171,238,141
326,376,116,206,359,172,237,146
334,392,119,208,384,268,228,171
328,391,111,208,381,322,227,169
326,406,102,159,329,311,190,147
345,336,117,142,305,308,179,166
307,300,122,164,301,308,185,153
319,317,120,181,313,238,204,130
311,302,134,193,322,151,194,135
314,319,138,190,306,146,186,136
278,374,133,196,309,140,188,122
282,397,134,186,313,136,194,119
238,407,134,200,338,152,183,123
290,438,113,192,356,150,183,133
334,434,107,194,409,165,192,146
344,413,105,184,401,163,208,155
350,391,99,157,391,178,200,157
360,361,107,203,375,160,177,162
326,329,115,250,431,168,209,166
279,313,113,277,382,168,209,170
252,289,116,292,406,189,207,166
259,352,120,291,409,180,210,166
255,342,113,241,367,170,213,158
257,366,121,274,407,186,192,152
268,394,118,244,421,178,196,146
283,387,121,229,396,159,215,136
281,334,112,235,409,160,237,141
268,325,118,241,424,169,243,135
247,299,103,153,312,147,244,127
235,303,125,211,365,161,249,121
230,308,119,215,381,167,241,140
197,321,126,209,386,179,233,139
226,330,118,200,371,172,232,155
251,314,134,195,363,179,238,165
249,276,125,184,359,178,227,159
239,301,128,224,373,221,211,149
252,294,126,287,412,233,197,164
273,306,141,309,507,257,198,149
278,302,124,305,505,259,179,134
286,309,124,326,541,283,188,132
292,289,144,390,696,294,222,140
293,313,171,447,733,296,220,120
295,306,170,451,715,278,253,124
319,326,174,451,733,277,277,140
344,330,182,448,708,268,291,152
375,349,178,440,651,246,317,145
373,320,158,385,667,279,348,145
369,340,146,372,636,282,375,153
380,342,150,373,659,285,391,154
375,377,127,334,617,259,374,165
355,356,126,372,661,269,350,171
361,409,123,376,603,245,324,173
342,387,127,405,656,249,285,176
361,400,116,410,629,236,280,163
339,365,134,410,633,242,318,182
333,366,126,322,526,201,300,179
359,350,133,331,590,206,328,183
362,351,142,319,564,215,329,180
312,353,142,314,561,210,316,207
342,352,139,315,572,218,371,196
339,360,132,308,545,221,380,233
350,316,134,306,520,182,359,249
390,313,143,309,498,160,408,262
386,299,162,308,514,199,440,245
455,306,164,310,540,192,400,236
456,310,160,284,512,187,423,207
442,414,179,261,517,201,476,211
411,424,177,290,626,226,451,204
424,412,163,319,623,215,446,221
328,402,163,338,604,209,430,227
328,411,164,343,605,210,415,228
298,320,132,297,523,196,421,208
292,355,122,253,409,192,427,201
297,405,147,278,454,189,392,200
320,398,138,271,466,208,380,185
333,399,150,290,501,209,366,190
405,402,156,292,497,214,343,200
409,452,150,295,482,199,294,203
393,418,127,296,479,197,294,186
371,447,130,328,498,185,286,190
348,450,117,316,477,182,298,173
264,473,112,322,501,169,242,152
258,422,123,293,468,158,241,138
258,406,128,254,390,148,250,137
268,411,119,237,386,137,268,151
286,410,129,278,409,136,268,152
281,383,127,297,405,137,263,166
287,362,135,306,433,152,288,169
281,364,125,284,417,140,282,169
281,342,132,250,362,143,281,159
275,326,125,191,386,163,285,170
273,326,126,155,399,161,284,157
279,322,107,148,372,144,256,166
258,337,110,145,374,150,245,171
250,363,110,121,369,146,241,173
269,389,113,152,324,122,234,172
303,388,113,150,289,122,219,172
303,398,121,187,300,117,231,171
316,388,120,191,296,115,265,168
338,389,115,196,294,120,264,164
322,353,112,172,240,122,238,158
308,341,110,183,229,148,245,173
324,341,120,215,311,186,271,182
319,358,125,230,340,191,238,179
297,302,126,227,336,187,224,176
305,312,123,223,335,185,262,180
305,323,128,227,338,160,254,183
326,323,110,179,292,126,216,170
334,330,102,169,293,118,207,174
360,347,111,207,343,140,221,186
395,373,119,222,370,145,175,178
412,373,119,220,376,158,172,161
361,359,118,209,392,158,192,162
341,315,124,201,378,151,189,155
314,312,120,195,369,131,207,148
285,285,113,180,380,129,208,144
265,315,102,156,368,115,208,152
284,340,108,175,343,127,187,150
302,376,104,205,354,138,225,148
290,377,95,202,353,143,188,133
297,376,102,203,339,137,191,144
269,345,101,207,337,139,199,136
282,320,92,185,335,125,206,149
277,331,90,184,386,139,178,163
281,343,92,155,358,127,186,181
240,346,83,156,331,127,191,184
257,334,97,165,352,129,186,188
272,344,98,180,339,130,186,178
298,318,99,150,272,107,180,163
324,313,97,169,297,107,182,145
339,307,93,178,304,106,164,128
350,339,78,166,300,115,176,134
319,319,72,141,278,101,168,128
326,359,75,145,277,103,152,128
320,359,82,178,350,154,161,133
326,387,86,233,427,195,192,140
349,393,89,237,418,192,180,138
341,415,90,238,431,200,179,148
311,406,94,235,416,194,196,160
321,409,131,248,384,165,205,171
335,404,137,235,379,137,197,181
298,394,136,240,381,139,205,182
315,384,139,248,379,140,209,177
317,380,139,248,381,151,222,175
287,389,108,243,438,184,222,187
249,376,102,213,391,178,229,194
242,400,106,206,395,169,226,178
250,415,102,210,405,169,236,174
242,388,103,249,420,166,220,172
256,384,96,214,305,126,210,149
263,401,96,211,283,116,188,118
263,415,89,230,355,130,181,148
290,398,95,260,433,159,170,154
289,410,104,310,498,180,165,146
282,437,136,359,640,224,166,148
270,412,139,380,662,237,177,156
278,382,141,372,618,233,190,135
240,379,159,407,609,221,200,134
264,368,172,386,669,242,210,165
263,347,150,366,648,220,211,162
268,338,148,366,749,207,199,154
253,310,148,365,790,204,205,188
251,333,138,325,831,222,221,188
252,352,127,402,855,220,236,171
281,344,147,419,877,219,281,176
322,359,146,396,780,216,285,180
336,372,152,396,777,222,281,146
350,347,140,372,699,197,277,169
331,373,126,241,590,170,268,161
331,357,104,159,428,150,263,154
313,354,106,172,419,153,269,173
315,388,102,197,368,154,285,183
311,380,111,225,372,158,302,178
320,345,109,254,346,150,300,181
310,343,114,255,361,160,278,188
311,341,114,263,358,166,296,173
285,383,113,248,367,163,275,160
293,450,105,224,353,182,244,150
332,463,117,169,308,175,262,165
340,483,125,196,333,173,246,180
326,486,135,192,363,198,226,181
336,412,141,196,370,214,252,181
344,373,145,203,371,202,253,191
325,359,142,224,403,211,229,177
302,339,134,193,382,216,232,155
316,410,124,192,352,203,244,166
307,425,115,190,314,186,239,170
299,416,112,195,349,186,231,143
298,412,110,237,455,239,234,142
318,423,108,283,502,253,224,144
303,326,103,291,548,242,203,127
340,327,108,323,610,242,182,122
357,383,127,370,658,270,198,133
333,393,127,343,631,220,184,128
300,386,126,308,597,195,176,119
286,425,128,292,578,197,182,118
261,459,128,268,547,210,183,116
230,401,121,269,472,170,164,99
234,395,121,285,466,173,189,104
259,378,117,284,450,161,190,111
281,373,110,279,420,155,185,115
326,332,102,260,368,132,173,151
326,333,98,209,423,134,169,163
329,342,96,178,338,118,162,167
350,342,105,223,335,147,171,172
366,343,102,247,363,158,154,172
328,323,110,253,370,158,164,141
330,326,103,223,282,149,175,162
318,326,100,220,297,147,152,156
317,338,90,190,305,126,150,157
296,334,109,189,293,140,159,159
292,359,119,209,358,150,146,156
281,393,124,241,390,150,125,130
290,398,131,266,428,158,158,139
263,392,152,364,562,188,159,133
258,433,153,457,636,198,161,142
250,412,146,463,616,196,179,150
244,403,140,452,624,199,189,144
272,449,134,438,607,195,188,148
270,447,112,351,478,169,188,146
261,384,100,229,396,150,201,137
264,396,99,288,503,178,195,123
255,352,114,352,592,196,201,137
253,265,116,360,611,205,197,142
264,344,116,359,625,204,188,143
294,401,117,337,612,198,196,133
292,403,116,300,533,182,193,156
286,410,111,222,431,163,200,146
271,441,118,295,496,186,187,132
257,406,117,308,504,193,200,139
228,406,115,308,496,188,187,168
224,428,115,273,478,177,182,147
266,445,108,278,481,169,156,150
279,423,93,178,378,135,153,147
274,424,91,154,359,129,159,142
301,433,116,165,343,123,153,114
302,418,120,168,328,116,152,118
293,408,117,143,264,109,155,120
277,406,127,161,272,138,171,145
301,374,129,163,251,136,158,153
288,317,101,142,271,144,152,155
294,304,90,130,270,146,149,157
291,338,95,139,284,158,168,163
279,327,90,165,287,139,161,146
316,354,122,188,306,141,173,160
310,343,128,193,291,137,175,151
353,335,138,260,438,212,206,171
389,322,152,279,475,234,218,184
400,317,156,304,482,232,210,183
359,311,148,314,497,237,213,181
351,311,150,330,544,254,206,186
327,373,152,293,462,217,270,233
265,369,137,274,418,187,251,214
264,390,129,221,381,181,259,231
252,375,113,192,344,169,251,218
240,371,110,187,302,158,267,217
196,304,105,217,291,145,179,148
200,286,107,221,301,145,190,150
215,282,112,225,299,141,185,127
218,297,118,220,323,158,190,128
260,304,123,207,290,142,181,154
286,332,118,183,317,147,185,166
301,330,124,205,352,171,181,172
307,328,126,192,357,174,198,179
364,348,122,205,369,167,242,217
350,349,121,198,365,179,312,223
345,328,134,168,319,166,380,233
345,436,132,141,276,145,409,243
323,443,124,151,287,153,442,242
304,447,132,135,294,166,459,225
288,458,130,141,356,174,439,210
370,515,117,146,356,173,437,206
360,435,117,146,352,191,478,211
363,458,126,153,334,190,524,234
338,444,112,151,303,186,541,236
339,438,119,156,246,173,527,229
233,400,111,157,238,168,482,219
223,412,108,151,213,148,461,197
226,365,95,137,218,145,375,177
203,339,91,146,194,130,327,156
211,330,84,134,180,130,340,179
201,287,107,129,174,143,377,194
223,268,99,116,193,150,323,202
212,287,103,114,202,145,313,205
207,330,117,132,227,138,279,205
198,364,115,143,244,132,255,186
234,488,101,158,273,135,192,182
227,621,104,185,287,124,192,179
245,771,110,187,284,140,222,171
247,963,103,162,278,165,305,185
260,1017,104,151,291,186,355,196
252,969,99,134,282,187,364,188
239,881,99,115,294,192,376,201
228,748,89,113,299,181,354,190
225,454,83,130,295,161,291,176
203,321,91,139,310,153,236,171
170,298,91,145,293,136,239,155
182,321,99,146,268,134,234,127
215,354,104,150,270,128,251,135
250,358,121,326,412,139,246,133
334,327,124,349,428,126,231,137
363,391,132,401,518,130,206,145
385,387,129,410,521,125,187,148
364,385,134,414,529,124,163,143
365,371,122,291,434,110,146,146
295,371,112,264,413,109,175,129
276,338,104,204,332,115,206,117
239,349,98,176,335,115,206,115
270,320,95,171,324,122,277,137
242,357,100,189,357,128,281,129
246,373,96,209,472,160,271,163
239,400,108,238,514,194,278,163
249,468,127,321,560,209,280,171
223,480,127,336,561,209,218,166
268,454,117,326,546,208,228,201
270,440,125,314,441,183,219,187
341,399,134,330,500,144,190,203
333,344,134,319,529,169,200,199
360,313,143,343,551,173,195,197
323,336,143,349,565,176,184,164
336,317,137,346,554,172,224,162
291,302,116,289,432,162,235,148
297,241,110,265,387,141,221,145
262,301,103,225,407,146,240,143
260,303,108,213,381,145,250,140
265,310,107,207,388,145,212,125
257,351,113,205,387,151,216,117
267,345,100,156,317,122,220,119
263,333,85,133,287,129,239,113
276,325,90,159,288,128,232,113
255,334,86,164,287,140,228,113
264,389,96,176,340,156,214,109
250,390,97,152,367,176,215,116
259,362,109,155,350,193,176,142
259,349,107,149,343,198,201,158
282,365,113,148,336,200,214,163
280,272,104,138,288,190,214,182
277,281,107,135,274,176,246,183
293,287,109,143,261,141,249,159
293,311,110,151,319,135,225,148
283,277,109,152,314,128,226,142
261,279,105,150,314,127,241,151
270,279,98,149,295,123,197,141
246,293,84,123,280,130,205,154
230,282,83,107,213,146,197,147
251,313,92,103,223,165,216,198
249,315,98,112,207,157,203,187
281,323,113,122,216,154,196,208
298,336,112,120,203,145,171,202
310,328,116,107,203,129,177,220
282,321,108,122,213,103,133,183
280,378,121,121,222,120,149,181
245,359,110,110,223,129,169,164
216,386,109,112,283,163,189,169
208,380,111,123,297,166,188,149
198,370,122,131,324,169,194,142
206,335,105,175,370,239,184,134
228,365,102,183,391,255,199,144
267,333,102,182,367,253,201,128
288,349,97,175,361,267,206,133
286,343,84,190,400,274,225,132
279,312,101,186,404,262,226,159
263,286,122,199,393,251,206,148
246,286,126,203,405,238,197,162
233,301,129,201,409,219,200,157
236,306,126,173,353,212,188,170
252,340,114,145,357,152,169,149
250,382,92,147,376,153,168,146
282,357,85,155,378,159,171,148
295,369,75,154,374,157,165,158
300,374,81,157,387,146,161,145
283,344,85,144,360,151,170,143
308,308,112,166,350,147,182,159
269,329,122,195,415,161,190,156
284,307,133,213,418,178,212,148
290,314,142,224,410,197,211,159
297,329,141,222,405,193,221,153
279,337,124,189,388,191,218,138
283,342,118,160,335,184,216,131
253,323,104,160,372,221,217,153
251,325,92,149,350,204,218,149
243,334,89,147,337,197,198,151
259,323,90,146,333,201,200,152
249,318,95,173,321,209,206,163
261,323,98,151,341,172,200,165
259,317,110,174,361,183,202,163
286,289,121,185,394,185,217,192
292,406,116,183,406,182,204,206
323,688,134,164,427,165,215,193
336,772,137,184,411,161,212,192
371,822,146,190,432,157,224,208
348,874,143,188,405,155,225,184
332,839,144,187,402,152,227,179
322,642,126,174,345,140,215,191
309,540,120,157,347,141,213,172
272,472,131,152,340,174,211,161
274,369,129,169,368,177,219,174
273,363,130,173,351,170,237,154
312,349,130,170,366,199,273,151
358,370,128,165,309,182,261,163
361,392,100,142,302,148,247,163
364,414,117,169,315,156,232,160
363,384,120,195,330,171,228,170
319,376,114,202,322,143,181,178
247,361,119,203,337,144,231,170
264,323,112,198,315,144,230,163
254,334,91,162,280,130,235,159
259,339,84,140,287,123,227,164
249,443,96,210,371,155,221,143
244,635,96,223,393,161,175,140
209,716,93,219,386,159,193,155
210,723,93,212,372,164,182,144
192,793,92,207,364,159,211,148
208,748,78,136,277,121,207,151
211,654,75,125,236,111,211,158
213,598,75,135,276,115,192,145
229,601,91,139,279,107,226,160
240,517,99,135,271,102,182,150
228,502,129,135,305,131,246,153
266,421,131,148,314,144,234,155
288,427,138,158,300,153,280,162
327,484,132,168,313,159,256,160
324,651,130,175,318,171,263,156
324,714,105,174,291,158,214,159
292,742,102,153,274,151,219,154
285,735,109,137,267,137,222,170
233,721,106,178,302,141,224,176
226,590,111,179,296,129,247,178
216,500,125,243,444,138,275,179
229,464,119,253,469,137,271,181
212,436,111,255,460,132,225,160
249,398,112,227,427,116,231,159
257,410,107,250,500,138,204,154
262,437,98,223,406,145,166,150
249,454,122,301,459,156,177,151
240,476,123,319,489,169,181,158
201,481,133,315,504,184,190,144
193,441,132,292,438,173,186,146
226,428,125,270,402,160,192,160
264,423,133,303,539,231,210,155
281,439,133,313,569,244,227,150
267,418,118,327,558,238,235,154
285,416,120,330,575,238,260,178
267,459,121,328,577,233,252,163
252,474,108,243,365,170,263,165
230,480,98,230,370,156,248,153
247,467,101,216,369,150,234,158
241,511,101,231,395,152,218,144
223,504,100,315,503,181,205,142
216,487,83,296,525,163,180,138
246,451,84,272,463,146,196,158
243,473,102,378,649,241,244,160
242,483,113,382,629,243,242,157
272,449,110,323,543,219,251,157
287,497,112,317,529,220,241,167
288,477,118,321,533,225,242,159
280,500,104,192,296,122,187,146
269,467,101,179,318,119,177,146
237,463,106,176,327,134,186,140
210,396,113,172,341,143,194,129
196,423,109,174,347,142,187,134
214,385,114,178,345,147,244,138
244,360,106,159,299,143,252,142
249,381,107,156,306,142,253,151
255,382,99,187,327,135,261,150
247,427,104,195,316,133,254,147
239,439,99,191,361,134,196,140
256,452,98,195,366,125,199,134
264,480,100,205,363,123,197,144
277,509,104,182,313,122,173,147
267,472,103,188,314,135,190,157
271,471,110,198,240,128,197,172
248,490,122,195,232,128,190,175
280,492,117,174,229,124,200,181
317,515,114,173,243,139,230,196
355,540,122,177,282,131,220,208
349,507,122,205,287,135,221,200
359,497,112,199,303,142,237,207
341,501,112,208,287,140,231,204
296,465,113,215,277,128,254,187
291,433,101,205,310,141,254,167
305,441,98,165,330,143,260,163
308,407,109,183,319,143,302,155
301,346,107,189,377,160,330,148
300,398,101,201,426,175,309,153
299,410,101,193,382,163,304,142
302,422,94,193,362,161,301,154
263,436,90,190,361,157,244,150
293,496,103,218,380,160,196,166
292,452,108,197,322,137,184,165
259,421,117,215,307,138,239,202
254,445,122,225,350,141,242,188
257,463,119,301,362,140,238,197
234,407,113,291,325,151,246,206
251,415,126,300,360,148,232,205
266,438,130,379,485,160,201,175
280,404,150,458,548,199,197,196
296,401,171,537,686,220,203,185
301,418,173,580,710,209,187,154
291,390,166,577,714,213,192,152
289,417,156,524,647,203,180,180
299,432,150,482,651,173,182,185
300,411,141,417,563,167,181,185
303,434,139,380,564,166,195,203
327,472,135,383,547,161,199,208
348,437,140,389,548,164,194,177
331,428,121,342,442,143,176,162
358,447,124,306,480,146,238,188
355,433,120,268,450,149,229,170
349,515,137,309,480,168,261,169
318,544,132,314,471,166,261,168
332,575,155,327,509,178,290,168
331,581,140,260,398,171,252,178
370,592,169,439,601,240,262,193
377,524,164,428,585,233,225,200
386,474,166,415,580,231,226,202
380,447,158,406,564,226,190,200
421,495,183,467,590,232,188,213
493,549,183,409,493,199,198,219
558,608,181,416,507,212,215,222
624,678,185,432,527,217,243,251
647,790,182,462,544,224,253,248
649,785,160,425,554,222,254,215
574,761,140,360,473,198,252,191
507,697,129,333,456,187,258,176
434,641,124,315,431,190,226,133
406,510,113,279,398,181,213,134
366,456,104,245,371,164,206,141
387,432,99,217,319,130,189,158
371,415,109,237,298,120,178,157
393,421,120,265,311,126,208,179
394,392,123,261,326,129,249,187
391,403,126,276,281,132,255,184
368,358,122,257,272,137,245,193
374,389,134,245,273,139,251,199
386,385,147,232,286,125,237,186
376,373,142,259,279,127,196,177
367,379,143,240,283,127,185,165
426,398,141,226,278,122,191,145
420,361,126,206,270,120,166,133
380,348,130,216,255,133,155,134
402,352,146,192,271,139,164,151
424,322,150,193,280,138,156,155
382,297,152,193,293,138,161,156
426,356,157,199,304,149,173,177
448,404,129,166,384,157,174,174
433,436,126,153,361,150,194,171
407,459,115,148,342,151,225,181
397,454,120,153,332,154,221,178
354,411,113,148,316,138,227,171
331,401,132,138,206,128,232,171
326,367,120,166,250,130,223,197
316,345,118,176,270,129,197,187
286,356,112,169,278,132,202,186
325,365,113,183,317,143,182,186
332,329,121,273,416,141,174,190
317,327,128,270,427,164,196,159
303,317,131,270,431,172,208,168
329,341,138,288,432,177,226,199
312,338,133,291,413,175,233,199
292,409,111,220,342,168,268,203
354,459,102,203,281,148,268,244
358,485,98,188,257,137,281,246
353,496,104,176,260,138,276,229
382,495,117,297,494,163,299,246
434,452,128,305,486,170,278,241
415,419,139,316,526,182,254,200
472,394,145,319,545,193,231,200
508,405,137,309,543,200,299,207
511,457,133,220,429,190,279,180
457,448,127,253,497,206,265,170
448,454,113,254,471,206,317,177
389,496,120,259,450,192,314,168
347,501,117,257,449,179,247,173
299,466,115,226,397,175,262,175
363,471,113,185,337,176,279,174
344,505,110,163,326,153,255,164
363,470,100,152,349,156,259,173
393,443,103,158,356,166,280,162
426,437,107,193,490,180,269,175
434,425,108,193,470,157,259,205
457,400,109,199,469,166,244,227
457,406,132,201,466,183,333,231
449,372,129,196,457,178,326,232
428,425,135,182,282,154,318,226
396,417,139,182,336,180,334,230
378,416,140,175,327,181,325,212
354,466,121,180,323,168,239,197
344,469,123,182,320,172,241,199
323,418,108,151,303,179,262,200
329,442,102,123,254,152,241,181
374,406,102,121,317,169,245,191
423,336,102,121,296,160,250,216
433,336,124,127,298,156,247,212
450,334,126,139,326,161,232,208
457,319,122,143,290,163,273,214
441,349,125,143,216,143,277,234
432,345,125,136,289,147,264,216
416,378,114,155,367,181,259,247
398,395,119,198,418,179,251,248
415,395,122,213,450,199,293,282
438,391,138,218,473,207,321,264
430,443,132,232,447,206,333,259
422,455,124,218,419,239,360,235
454,434,130,174,354,232,387,271
541,439,172,168,373,231,423,408
607,419,167,196,378,242,433,449
632,390,174,191,384,248,436,461
654,336,185,187,351,188,404,468
641,379,180,196,360,202,459,472
623,404,135,181,304,176,391,358
567,420,123,150,274,145,342,355
580,427,125,142,266,136,346,347
558,500,116,148,320,140,382,339
558,500,108,139,310,120,290,307
489,491,110,146,335,125,309,284
471,544,147,150,351,146,407,275
408,532,141,148,361,178,403,284
455,494,129,149,322,190,398,308
522,502,135,155,324,190,397,308
494,495,135,148,297,191,370,298
469,432,91,122,276,181,279,250
444,417,88,121,253,148,275,231
393,416,94,136,237,120,271,223
305,384,96,140,259,135,319,258
318,391,93,145,258,132,318,261
314,400,103,173,255,141,338,262
335,422,103,168,244,138,327,266
385,390,101,151,242,147,320,259
353,443,92,140,213,135,271,227
330,432,94,145,233,135,255,218
321,418,82,114,233,115,202,197
325,460,88,114,261,128,209,193
270,498,92,118,259,115,172,159
295,474,92,123,252,105,159,155
331,529,110,121,261,114,182,190
352,520,112,123,257,113,200,189
356,507,117,120,234,104,209,195
369,466,115,116,231,106,232,214
361,458,121,118,231,123,296,227
349,388,113,121,207,115,302,219
348,398,116,122,217,128,304,220
350,350,106,124,227,134,323,241
321,381,107,127,214,131,328,224
328,427,137,143,232,126,307,218
351,436,129,138,209,116,303,205
383,448,142,141,193,112,312,233
379,440,145,164,188,99,282,206
413,449,176,180,244,139,294,234
424,380,153,159,229,145,264,240
414,397,156,150,248,149,248,233
364,387,141,145,241,143,232,203
354,405,137,140,229,146,236,208
305,366,89,119,167,118,219,184
315,472,86,117,174,114,219,149
286,447,79,118,160,114,230,189
306,464,82,115,183,126,258,203
293,456,91,92,186,122,255,206
327,530,101,88,193,116,226,197
291,445,105,100,188,111,242,211
307,444,111,109,198,118,246,197
290,423,107,124,183,111,207,183
302,433,101,125,176,117,193,175
257,347,88,121,187,117,193,187
254,338,77,113,176,112,155,176
240,380,63,107,165,109,152,162
254,392,75,90,163,98,147,155
242,391,77,86,165,89,164,156
242,387,78,90,169,87,158,148
217,374,84,95,187,85,189,137
262,332,100,126,196,72,175,152
256,325,93,125,207,76,182,151
273,287,90,120,209,77,211,157
314,358,92,148,206,108,250,167
334,353,87,153,215,120,232,173
325,366,73,128,200,123,233,153
304,366,73,126,194,129,231,173
310,386,96,138,225,155,215,186
281,327,98,146,227,141,184,175
301,338,122,271,378,168,194,168
309,396,153,300,429,182,209,165
331,437,161,313,471,191,222,157
306,460,157,335,491,184,220,143
314,483,168,341,537,249,245,141
283,479,159,273,467,235,244,150
274,474,141,267,447,231,241,159
309,420,134,258,426,223,233,162
321,417,147,240,392,210,235,147
315,425,144,227,325,141,212,140
323,455,143,200,284,132,222,128
316,386,148,179,266,130,234,135
292,409,152,181,248,134,278,135
327,396,134,157,244,140,268,183
356,488,124,130,262,138,298,198
429,615,128,174,370,164,298,230
435,702,127,216,441,197,330,230
455,731,118,208,447,211,306,241
436,751,116,208,441,209,325,220
420,692,119,215,433,203,323,216
375,580,106,175,349,188,315,187
374,484,105,242,295,164,263,182
356,453,109,275,289,167,246,164
351,411,113,282,295,172,234,160
379,401,109,280,293,170,196,186
340,406,110,285,291,166,228,202
347,428,95,194,229,159,273,221
319,453,99,184,242,146,345,219
412,480,100,229,265,164,419,252
412,485,119,238,311,210,464,252
419,480,133,236,303,210,460,244
420,512,151,236,331,221,521,257
417,477,154,243,375,237,518,267
335,487,156,206,377,238,472,242
326,512,151,267,386,205,497,229
315,532,139,284,380,199,499,226
323,522,125,277,392,180,417,189
333,528,121,251,327,166,412,182
329,489,129,279,401,180,394,167
310,460,126,262,471,201,303,148
367,427,151,314,563,214,311,161
379,478,144,328,567,218,319,205
384,523,160,331,589,220,345,201
420,516,150,299,538,191,357,204
403,517,156,264,457,163,361,210
375,566,157,212,431,157,375,207
321,481,167,226,438,164,362,156
340,462,153,225,433,147,279,151
326,496,157,227,428,145,280,172
340,507,145,218,426,146,283,174
335,469,116,192,382,154,265,185
349,506,107,172,362,143,261,204
391,482,107,178,352,150,278,206
359,463,92,189,360,159,269,187
358,452,102,216,399,174,277,188
356,447,131,260,471,184,252,170
387,450,130,297,498,205,259,165
353,493,133,345,511,204,246,211
355,495,144,408,592,236,286,218
359,468,154,441,618,242,277,212
347,489,137,448,622,234,286,219
300,505,133,425,605,216,283,208
262,482,126,382,623,222,274,161
280,494,144,384,656,214,255,168
317,530,145,375,653,205,247,165
319,518,157,377,595,194,232,166
325,501,162,384,585,197,227,166
423,498,166,388,558,210,257,174
424,468,145,322,412,179,232,153
406,445,156,349,449,186,249,203
438,431,153,391,542,203,246,208
443,445,152,392,571,219,247,210
406,426,160,396,582,206,218,225
395,448,172,399,603,209,205,231
386,448,150,342,577,198,180,205
388,435,140,305,602,230,213,215
397,426,145,323,588,224,272,226
354,533,144,318,574,215,332,219
361,590,148,313,579,236,416,261
380,604,165,332,539,231,422,262
360,635,177,306,501,215,462,263
381,609,170,288,488,224,484,268
387,512,165,287,486,226,463,283
393,487,153,277,460,203,424,248
395,473,148,242,432,203,455,240
378,427,131,191,300,169,410,242
337,446,155,194,342,176,364,241
309,420,158,219,345,185,356,204
294,393,162,227,393,190,333,210
321,409,150,227,397,185,289,211
333,428,151,229,389,181,289,199
328,407,140,229,380,142,329,187
322,442,138,239,417,135,323,186
345,453,144,273,394,126,311,173
291,430,151,310,441,142,314,176
282,484,157,314,436,148,301,166
298,476,159,293,445,149,242,157
324,478,161,327,444,150,275,175
286,485,153,329,492,158,285,198
307,534,142,305,464,146,302,193
315,482,135,305,463,140,307,190
324,522,118,302,411,141,308,201
315,557,101,233,389,127,299,203
315,560,93,179,292,128,309,180
307,519,109,160,317,134,299,190
323,536,113,151,359,155,349,204
352,503,121,183,412,196,400,216
346,454,128,188,469,210,380,203
361,443,157,236,480,201,381,208
357,448,160,247,463,194,398,210
330,428,151,261,447,200,357,206
288,443,149,258,415,163,299,208
310,429,157,279,425,176,301,209
313,415,144,275,451,195,310,205
316,390,138,263,453,220,306,209
358,392,148,265,466,221,319,227
371,357,180,309,467,218,336,246
431,416,179,296,394,200,344,279
420,428,167,271,400,198,346,298
534,452,165,297,452,189,351,335
533,462,159,289,453,176,336,321
524,483,120,240,483,194,309,309
480,454,110,244,494,213,296,294
483,408,115,304,488,198,275,281
407,407,133,291,433,181,276,231
371,408,153,293,423,192,315,226
423,463,150,275,400,172,344,200
432,467,173,312,508,178,372,201
445,489,168,266,495,176,377,203
389,475,168,273,497,182,353,187
387,452,164,306,551,169,323,182
380,430,165,318,535,178,336,233
340,427,149,271,397,142,321,218
319,454,161,274,408,153,319,207
300,536,156,292,511,189,352,215
302,628,148,255,458,212,369,225
261,629,168,249,478,222,330,176
300,641,179,255,502,226,340,180
323,608,165,227,480,222,359,193
342,540,149,165,358,193,313,182
351,448,145,169,331,152,319,194
347,392,126,183,336,143,322,186
322,357,106,214,312,127,312,182
321,393,110,227,303,119,275,175
326,439,123,230,301,112,303,176
328,424,120,216,285,118,288,163
329,461,137,218,300,154,367,224
332,447,141,217,404,185,368,222
333,440,160,229,474,218,369,229
369,420,158,235,471,218,350,251
396,408,161,242,496,224,351,260
465,364,156,233,472,192,255,224
461,423,153,192,399,176,225,229
446,411,137,172,338,145,227,223
440,409,137,195,367,150,233,208
420,407,137,206,381,174,268,203
309,437,124,190,387,187,279,195
304,436,133,243,414,190,288,186
309,452,137,243,427,194,299,190
296,480,135,231,426,193,294,194
321,523,124,216,383,163,235,172
321,498,128,226,368,146,255,175
325,448,108,165,309,132,271,177
331,446,90,164,319,128,240,166
363,433,90,157,301,127,242,151
319,379,89,155,305,117,246,155
324,395,93,146,315,125,239,145
311,428,95,139,325,128,217,128
312,412,96,137,271,110,246,147
249,382,95,120,247,108,255,143
256,442,116,126,247,122,269,133
253,453,107,121,250,113,255,132
276,465,121,151,267,121,256,138
278,452,146,173,273,127,247,129
267,430,151,179,275,118,226,130
284,377,140,185,264,111,201,132
280,373,137,182,235,124,233,136
281,330,128,165,228,135,227,165
284,396,103,131,229,140,210,159
284,431,111,125,261,163,292,170
259,424,107,113,281,164,307,171
294,420,127,123,291,155,281,174
286,424,121,114,261,133,277,157
347,380,259,282,321,155,318,214
388,360,268,308,314,135,261,227
392,348,280,338,326,150,257,234
430,452,299,392,384,178,299,270
437,446,303,407,397,181,302,265
371,427,198,319,335,154,261,222
377,436,194,304,336,180,343,271
406,459,184,285,318,171,335,265
386,340,158,251,363,169,314,241
409,346,162,247,399,183,322,247
422,376,165,241,404,184,327,271
392,368,140,224,387,157,223,197
352,352,128,206,378,149,204,193
316,363,139,206,318,147,225,184
295,381,139,204,282,139,217,181
275,375,132,207,312,144,204,142
290,403,161,226,335,160,279,213
305,395,173,246,352,164,301,218
310,438,146,199,304,132,263,203
286,416,140,176,283,119,256,200
306,419,154,183,252,132,290,245
287,358,134,177,223,108,217,197
286,363,121,148,197,114,204,207
301,306,121,137,176,115,199,216
315,307,112,128,177,124,212,218
294,317,97,111,161,104,177,173
306,358,108,94,204,108,172,177
290,370,106,92,203,98,157,158
282,365,116,146,269,113,156,147
275,383,130,160,290,112,174,153
265,369,131,164,287,110,181,148
268,342,117,157,252,102,186,128
274,358,130,177,279,105,187,130
247,359,121,151,236,90,194,136
230,330,113,152,217,87,168,138
229,303,109,166,235,85,150,140
175,307,120,174,246,93,175,141
267,288,108,152,225,103,178,155
275,278,108,173,233,111,178,155
349,320,120,231,266,117,186,160
365,331,117,236,261,121,173,154
396,438,121,263,279,120,219,174
347,431,120,271,269,105,214,171
353,436,131,277,293,134,227,182
366,446,135,246,268,133,244,204
371,455,146,249,272,132,255,208
350,347,130,223,281,131,199,201
363,385,138,213,283,141,219,202
361,392,127,189,231,105,207,190
285,360,114,166,226,100,183,151
253,382,104,142,205,98,201,152
253,382,108,131,162,98,203,143
226,350,99,137,162,89,183,131
225,336,98,118,163,95,189,133
229,314,90,134,158,96,191,149
233,254,89,136,172,100,164,144
229,295,88,145,168,103,163,144
226,283,98,149,170,110,176,143
211,314,100,154,189,100,159,139
226,320,94,131,190,113,158,131
239,363,99,137,192,107,162,126
247,336,102,144,245,116,167,143
247,345,95,162,280,112,164,143
242,317,99,166,292,117,164,144
208,300,99,171,287,99,153,139
217,289,97,168,291,109,198,160
196,297,94,152,264,105,193,139
259,335,94,122,236,117,189,154
322,338,89,115,208,118,199,167
327,359,92,109,207,121,222,161
339,342,84,92,185,112,178,138
344,330,97,103,164,112,194,139
309,324,103,141,172,112,191,127
247,321,122,196,192,112,176,114
235,328,121,196,192,110,141,107
216,317,128,202,218,121,170,129
211,318,116,196,212,114,147,127
224,272,118,182,196,100,166,139
243,270,101,112,165,89,171,142
261,264,107,123,193,102,191,147
252,307,106,133,190,95,181,134
261,311,105,136,194,93,191,140
241,320,102,124,189,92,216,126
286,330,97,166,216,98,230,151
278,327,88,162,198,92,218,149
320,321,101,152,183,104,271,174
308,316,104,157,185,103,271,167
393,329,115,190,263,130,282,241
346,347,139,177,289,150,300,232
351,344,146,170,302,148,302,233
325,350,144,173,309,141,273,241
332,348,140,169,314,139,261,241
263,348,136,128,272,137,268,193
262,327,113,104,225,118,236,183
272,314,109,120,208,120,238,195
281,268,95,114,187,113,219,169
288,278,100,124,165,112,225,175
285,238,80,121,133,86,171,155
291,270,78,130,140,83,175,161
282,272,86,129,158,76,167,145
249,300,88,128,162,73,149,151
242,293,80,114,183,76,150,146
211,314,110,131,231,77,137,138
210,291,109,137,231,75,130,137
202,319,109,132,223,76,134,141
200,282,109,134,225,81,140,121
193,276,117,156,219,89,175,115
194,280,95,146,178,89,176,119
223,298,110,152,168,90,176,144
234,252,107,145,164,92,174,157
247,269,104,150,156,88,165,157
270,286,133,145,185,101,172,184
280,260,128,151,173,95,169,184
255,235,146,152,225,100,175,161
265,266,159,168,228,102,191,163
271,269,161,163,246,113,192,174
265,277,146,148,238,104,181,167
264,289,151,146,240,107,187,166
272,321,123,122,199,98,179,179
260,313,107,99,182,93,168,160
282,305,104,95,164,78,187,156
263,319,86,95,141,67,181,131
252,304,81,82,138,63,182,147
259,259,82,81,128,63,183,128
245,281,74,80,141,61,175,133
200,307,76,79,141,68,183,140
236,276,75,77,163,72,168,152
230,296,69,78,159,68,169,130
199,318,68,74,160,70,180,131
219,318,64,74,164,76,211,159
213,290,63,79,160,73,191,149
176,282,70,80,129,67,189,151
178,301,76,82,138,71,192,155
180,285,77,84,152,72,182,159
151,265,77,81,141,70,182,131
155,288,73,86,137,68,197,125
151,310,62,84,144,64,196,109
155,286,57,80,132,62,180,109
172,283,51,77,105,55,194,115
181,272,47,79,101,49,164,108
181,292,48,69,96,44,147,112
171,265,47,61,84,47,137,109
149,277,45,58,78,45,136,104
142,269,40,57,74,40,118,85
146,298,40,53,70,38,107,85
144,264,41,44,66,37,96,80
139,276,40,44,61,35,90,74
136,264,42,42,69,33,84,69
110,267,44,36,77,36,62,60
112,265,42,34,80,43,70,66
136,278,41,35,84,46,88,87
137,268,44,37,108,57,98,91
158,280,60,63,142,77,129,99
187,273,66,73,147,84,157,119
188,270,74,90,149,85,191,118
175,257,75,91,152,85,188,103
183,258,75,92,138,78,185,106
164,234,62,78,97,57,167,99
130,234,58,72,86,45,139,72
95,254,46,49,79,33,75,52
81,266,48,44,70,32,68,53
56,274,52,44,79,34,61,40
49,288,53,42,86,41,49,40
44,296,51,38,101,43,45,38
51,252,52,39,101,44,43,36
49,230,48,38,102,43,32,27
49,210,43,36,93,42,28,24
51,200,42,33,87,36,26,29
51,191,39,32,66,29,27,43
41,194,35,30,64,29,26,44
35,181,39,30,64,30,28,50
40,204,37,27,60,30,28,50
46,231,41,36,65,35,28,50
44,240,41,37,62,35,26,41
55,253,42,39,59,33,29,46
74,275,49,52,63,40,44,62
93,271,53,58,75,50,95,71
156,258,54,58,113,70,154,106
167,275,58,66,132,75,168,110
202,299,69,77,155,83,210,122
289,287,78,113,172,101,310,156
323,316,98,126,218,120,365,168
346,336,114,174,258,154,448,187
377,333,152,255,344,189,469,198
396,328,176,295,427,210,522,223
395,337,188,309,476,212,504,230
441,344,206,313,479,216,497,252
448,362,250,336,532,221,472,251
448,373,269,387,547,243,518,270
456,386,269,446,643,240,478,260
425,426,262,446,616,236,465,244
352,417,250,476,614,242,509,239
310,404,207,449,554,221,462,217
287,432,160,375,530,184,392,186
222,416,145,303,380,194,370,168
214,373,155,336,523,233,404,166
212,354,141,292,518,218,310,127
224,344,132,285,518,211,322,125
207,273,129,296,501,195,337,140
225,263,119,265,483,180,331,160
236,299,101,190,320,129,252,156
248,321,102,178,315,132,246,167
265,296,103,191,333,145,245,172
276,304,115,157,325,152,321,178
270,318,119,142,302,145,329,158
256,318,126,148,294,133,337,155
251,303,134,155,316,129,339,145
210,314,131,151,329,135,332,148
223,328,114,150,319,131,244,135
230,331,103,154,319,130,240,143
230,292,85,149,314,141,271,152
218,290,82,181,358,147,300,152
246,291,77,195,355,142,312,143
300,292,83,183,336,156,317,174
305,292,87,175,320,164,326,174
299,344,90,167,314,162,324,173
305,356,84,139,251,153,305,174
312,373,90,106,217,148,276,173
275,355,89,130,255,134,283,137
300,389,91,156,277,117,278,143
303,353,116,161,325,136,328,147
312,408,123,146,307,148,324,162
293,411,121,154,308,152,343,168
289,447,125,193,320,157,335,174
281,406,123,224,344,167,342,185
312,403,98,222,303,148,304,202
305,351,93,255,357,140,345,206
317,364,91,265,370,134,332,222
309,318,78,228,348,123,322,219
292,319,83,199,344,125,320,216
267,318,81,199,356,134,294,207
282,431,77,166,313,142,243,213
302,667,84,141,297,137,263,224
296,761,83,159,293,144,265,226
317,778,78,139,263,134,253,248
319,788,71,140,255,139,241,236
316,745,82,128,265,134,250,259
320,530,79,124,256,131,230,271
328,408,83,103,239,125,224,288
303,416,94,108,254,124,257,265
281,434,96,110,268,107,274,267
267,412,85,119,273,115,259,229
224,416,87,121,274,117,275,205
195,389,93,140,321,128,292,199
193,337,84,148,316,132,273,194
244,338,90,148,326,151,298,205
243,322,93,139,293,139,317,205
248,347,93,155,304,148,317,185
272,371,100,164,278,144,302,170
271,392,109,158,275,142,299,173
263,425,108,167,267,117,250,157
303,457,113,256,320,120,268,176
320,438,128,299,374,127,292,183
308,455,118,292,372,123,289,166
309,454,118,304,358,110,268,157
305,427,122,300,351,116,285,156
271,389,135,243,309,114,242,129
231,431,121,191,285,101,204,119
253,438,122,180,274,98,209,130
252,464,119,176,277,100,208,147
242,475,116,185,299,108,224,148
248,490,89,171,301,104,252,150
263,460,88,162,241,98,235,152
275,434,84,167,264,108,230,165
276,403,79,179,334,132,262,160
268,363,87,170,331,135,270,168
309,347,88,176,342,146,260,178
316,336,89,193,362,159,274,183
282,355,94,201,341,154,284,171
305,357,103,223,333,157,264,159
305,362,99,245,379,157,224,141
310,430,119,249,393,161,292,182
336,467,115,229,381,148,282,179
343,471,116,216,381,147,277,178
347,470,104,169,346,128,277,183
353,460,106,132,280,124,298,183
303,393,90,132,257,113,210,132
263,347,92,136,259,108,192,133
300,339,92,149,271,112,259,140
267,321,91,140,236,104,254,137
258,314,78,156,230,94,226,140
267,334,74,155,235,93,241,139
251,356,68,161,256,95,245,126
217,378,73,156,274,99,196,121
216,389,77,159,282,101,194,123
205,390,78,131,264,95,208,116
223,419,87,131,249,94,239,120
233,390,94,173,260,107,242,126
292,362,99,192,260,109,234,151
304,351,111,229,299,120,244,156
318,427,115,236,307,122,245,166
301,405,113,227,308,121,202,154
305,413,107,191,269,103,193,154
261,404,101,165,254,93,233,127
246,429,84,103,200,77,226,121
270,378,100,88,222,79,231,117
256,364,96,81,210,73,265,130
248,365,99,84,218,76,262,124
235,390,93,90,222,81,221,127
239,366,97,94,229,87,222,122
203,351,87,143,229,89,208,110
234,361,87,180,255,94,159,119
260,367,88,181,254,94,166,120
239,318,92,198,264,91,211,136
228,315,87,201,264,92,244,146
261,337,80,175,250,103,259,176
244,362,71,149,234,100,261,173
263,345,67,149,240,108,268,179
297,370,66,140,221,110,246,179
307,367,70,143,233,114,235,182
278,320,62,146,224,109,213,164
275,273,74,163,227,111,202,160
321,281,86,197,264,116,197,159
321,283,84,195,260,118,240,182
323,297,81,197,260,114,227,180
334,306,106,205,269,115,270,185
346,288,103,193,266,112,275,187
291,284,121,241,300,127,292,181
276,301,144,239,305,129,277,156
265,294,150,233,287,126,286,147
255,316,148,224,287,122,260,138
289,322,152,230,293,134,283,152
279,320,133,155,238,116,285,163
274,324,117,173,273,114,254,165
284,321,115,191,312,125,233,163
333,337,132,270,397,147,272,180
330,337,147,294,470,146,267,211
345,358,163,329,522,180,295,237
358,316,155,323,520,184,297,230
383,332,156,322,505,181,314,233
343,338,134,266,455,165,281,221
314,378,123,269,400,164,307,187
314,368,120,229,363,132,277,156
310,403,122,221,344,133,302,157
346,421,127,209,344,152,354,198
389,415,134,211,342,162,427,211
503,386,147,153,357,205,524,276
747,417,246,144,483,299,746,534
796,413,264,150,502,308,745,559
800,429,268,148,521,301,739,553
903,447,271,145,531,311,774,604
874,445,265,163,519,283,702,587
710,408,182,148,361,202,586,434
725,431,189,140,349,194,665,506
730,399,202,140,348,194,663,512
599,407,193,125,318,168,613,479
626,413,187,106,286,181,625,481
671,495,201,114,329,192,558,469
624,466,174,116,320,186,493,369
598,500,168,121,351,205,567,367
610,494,177,133,376,214,559,372
590,529,184,135,401,213,579,371
506,465,162,128,370,177,569,313
487,484,159,122,355,165,554,300
500,444,141,123,350,145,453,323
450,430,140,117,337,133,477,293
396,447,139,108,313,120,438,261
355,472,129,102,303,118,385,248
335,454,124,103,307,121,358,253
327,465,122,108,264,118,373,218
342,487,126,145,269,113,349,204
333,435,117,157,253,105,333,213
367,386,123,159,247,103,346,228
341,403,124,156,235,104,351,243
287,400,126,145,217,112,337,237
303,364,103,113,175,108,280,222
296,376,115,164,254,116,294,219
324,384,119,169,318,130,330,260
370,425,124,205,365,141,330,261
399,416,118,211,361,132,320,256
375,430,128,218,386,134,309,253
376,441,123,183,385,147,324,258
330,462,114,202,354,145,267,232
313,405,105,171,320,136,271,208
325,424,112,175,328,136,283,208
339,412,105,165,313,138,301,207
334,385,103,235,338,138,280,206
323,384,116,231,345,135,308,176
312,378,120,236,367,141,287,175
278,378,122,236,383,140,269,169
253,378,118,232,374,139,267,195
315,400,110,164,325,125,269,210
327,392,95,166,344,119,219,213
327,390,94,158,337,112,217,218
336,372,83,154,309,103,252,224
351,390,94,157,307,97,232,199
312,370,90,141,280,92,222,175
351,396,83,170,299,104,276,201
339,414,89,207,320,118,280,196
316,431,93,209,319,123,254,186
335,423,87,206,323,130,254,204
329,422,87,215,321,127,279,234
278,424,85,186,265,139,244,223
273,442,73,162,209,128,246,227
274,410,71,161,215,125,230,219
238,390,70,173,218,123,255,212
240,392,72,170,265,153,230,185
237,336,100,224,349,167,242,172
245,388,127,309,456,188,244,165
241,401,133,346,497,194,255,188
250,393,132,358,503,193,233,180
314,468,136,358,488,173,217,167
361,468,128,326,438,152,240,172
356,388,100,238,328,119,225,170
352,399,124,244,403,154,267,162
359,396,130,249,431,163,271,164
285,306,135,265,431,166,292,176
261,359,133,268,419,155,305,210
340,455,141,266,426,170,309,220
346,454,124,215,321,140,274,235
340,479,131,230,384,149,263,234
378,475,141,227,432,160,256,244
397,475,137,219,429,162,257,242
338,404,143,220,435,156,313,276
385,456,135,211,417,148,315,264
402,445,131,146,305,126,322,267
378,455,113,166,329,151,315,257
343,452,143,186,374,175,285,268
332,432,129,178,350,165,217,225
282,418,135,173,348,165,209,219
250,397,130,179,348,164,210,231
235,378,128,131,240,125,205,219
334,410,103,149,228,122,325,263
361,417,104,165,248,124,324,261
352,366,108,232,393,156,336,260
341,402,118,244,426,164,333,256
373,400,121,247,428,175,341,263
323,327,126,258,437,174,242,165
306,332,129,257,434,176,252,176
335,359,116,218,339,155,238,174
333,325,111,216,320,154,223,154
312,381,115,245,400,163,233,147
269,421,103,250,393,140,186,142
282,412,109,313,416,152,186,142
252,464,107,311,396,146,184,136
264,488,111,311,407,158,227,150
276,481,118,337,423,154,213,158
306,456,125,328,430,159,245,167
296,450,118,265,416,145,232,158
301,381,123,317,451,148,229,159
295,363,116,309,427,125,193,171
288,313,103,250,343,108,227,217
286,340,90,218,295,94,196,210
264,358,95,223,292,96,212,211
267,362,103,167,301,93,210,214
256,381,102,166,316,95,221,195
248,392,97,166,309,83,184,152
253,383,99,167,312,86,204,169
354,377,93,153,286,77,201,235
351,385,81,100,216,75,211,235
365,349,83,102,192,76,195,234
357,358,83,111,207,80,184,225
333,346,82,105,220,81,177,224
232,378,78,100,228,114,194,165
285,381,72,92,201,105,186,166
290,377,60,88,215,109,190,171
298,381,55,81,193,109,191,178
284,354,50,106,176,121,196,195
298,377,60,128,208,107,166,183
243,372,64,141,218,115,164,184
235,380,65,136,202,111,175,190
218,394,73,165,238,120,192,183
233,419,82,163,260,116,171,150
249,411,78,148,239,100,177,149
257,404,81,145,235,98,185,143
246,423,86,163,228,97,178,136
254,385,82,143,213,91,164,157
258,431,71,131,191,81,186,172
242,395,82,132,197,87,208,178
290,444,85,122,215,90,204,191
296,484,101,116,248,115,244,190
292,494,102,124,244,114,284,199
308,480,103,137,240,111,274,188
355,484,101,137,242,111,287,192
315,476,99,134,223,105,281,173
357,531,78,119,212,91,279,191
400,551,85,129,236,96,290,173
381,552,100,116,259,120,342,174
339,584,101,116,253,126,361,171
352,573,103,120,253,131,447,210
336,481,115,117,238,135,524,225
310,484,114,77,204,130,519,224
316,479,111,71,162,126,579,251
329,437,121,79,186,138,576,252
306,415,126,80,197,138,571,233
276,435,119,88,196,130,527,202
241,395,117,94,200,128,507,190
241,347,112,93,205,130,499,173
248,370,109,84,192,117,500,192
253,382,97,87,192,109,436,190
247,408,95,95,217,109,420,196
293,429,93,87,214,111,424,199
277,434,87,96,220,90,348,182
241,441,70,107,235,94,333,154
255,449,71,127,267,112,342,144
284,456,69,127,274,113,346,137
258,474,74,133,279,113,336,129
277,480,95,137,281,115,358,177
301,462,104,132,263,103,346,187
323,451,108,108,243,90,337,189
351,432,111,94,201,79,310,204
343,401,107,91,197,78,313,205
335,476,98,77,192,81,261,158
319,498,93,72,192,81,316,140
282,508,101,75,174,89,415,154
235,523,111,80,195,97,428,134
247,537,123,73,186,101,488,154
268,466,124,83,177,109,508,158
304,433,121,97,180,120,507,201
308,419,126,113,266,140,489,205
321,438,133,116,273,136,527,233
375,458,139,124,305,158,536,259
367,505,135,123,314,162,539,283
371,561,152,119,316,167,556,263
388,555,183,125,268,152,582,264
374,496,172,123,295,168,578,258
333,481,181,132,324,197,661,270
326,431,219,128,359,237,776,294
307,361,209,129,367,247,821,318
305,386,189,115,377,259,834,319
327,382,199,127,384,271,813,315
304,349,188,122,342,239,725,278
306,396,152,122,304,203,593,240
282,424,173,120,314,190,588,256
260,397,160,112,289,172,498,243
242,384,155,98,246,136,523,233
276,400,149,96,273,140,500,236
280,379,142,125,281,125,483,217
283,390,113,131,270,134,370,164
316,412,121,137,281,153,390,171
295,435,115,141,282,162,327,167
259,471,109,136,256,161,350,177
273,459,107,105,246,162,345,181
265,441,108,93,266,150,303,164
221,417,95,114,281,128,262,156
234,381,104,116,280,117,318,175
229,338,101,120,276,108,283,156
201,349,106,123,282,107,269,151
205,343,104,122,254,96,270,154
200,345,104,91,223,105,329,159
253,412,94,76,218,99,280,154
270,432,96,61,224,107,330,176
276,462,93,55,211,105,328,187
301,437,91,62,200,102,332,183
324,449,86,67,182,83,267,179
276,413,82,69,178,85,311,160
255,388,108,72,187,95,317,147
271,364,107,70,184,92,309,128
265,410,108,89,207,103,312,131
249,444,116,96,219,113,337,126
261,443,114,96,219,111,294,123
288,453,85,95,196,92,230,122
260,424,79,104,191,96,249,129
228,402,84,88,173,91,233,123
231,342,72,76,164,82,196,122
217,327,69,79,152,81,184,125
202,333,85,82,168,92,212,135
203,338,85,79,169,87,191,129
211,347,89,77,182,85,217,136
234,389,93,82,197,90,283,158
225,393,98,79,207,96,296,162
214,390,93,80,204,84,282,138
223,422,106,91,258,97,299,143
256,472,111,103,280,101,294,139
256,457,116,102,297,106,246,122
279,471,124,104,333,111,253,141
283,497,118,101,328,112,246,147
287,505,109,86,291,100,231,151
260,436,95,62,252,95,234,165
225,419,91,70,234,89,254,170
203,405,75,65,176,75,230,154
197,352,77,61,173,73,222,151
186,319,76,62,173,80,219,141
180,312,71,62,168,75,200,131
211,310,60,48,152,67,172,115
232,369,69,62,179,80,209,126
266,403,71,69,181,88,217,127
276,386,67,68,172,80,207,133
308,431,78,72,194,83,229,136
336,434,78,70,189,83,247,147
333,393,67,55,154,70,243,139
347,406,77,59,166,77,254,153
337,414,82,74,174,83,265,158
302,391,74,95,168,79,253,159
241,391,79,99,165,79,253,150
213,379,81,101,167,81,226,140
133,333,88,101,168,68,217,118
139,325,84,93,155,66,223,111
142,290,86,77,135,75,223,108
146,304,82,75,130,75,187,107
151,315,82,88,143,74,235,125
193,293,73,94,146,75,232,133
197,283,76,99,158,78,287,141
191,302,77,97,153,71,291,130
191,277,75,99,162,72,298,135
206,236,85,90,156,78,272,127
193,245,82,81,158,78,261,122
178,267,80,71,152,76,208,114
186,252,78,66,153,74,196,138
215,307,81,61,147,71,192,143
204,322,67,55,141,69,184,139
195,368,64,52,126,65,192,151
195,348,60,52,131,64,189,158
215,388,58,53,134,65,204,144
182,365,55,57,136,68,209,136
181,418,55,68,133,74,283,139
161,402,55,81,142,76,286,134
161,408,56,80,135,74,274,116
125,374,63,82,141,79,276,122
125,367,63,80,153,77,260,123
143,341,64,72,155,66,169,127
170,324,59,56,133,64,162,125
174,342,61,55,140,67,164,136
184,347,51,54,141,64,153,131
194,348,55,55,127,73,188,134
209,312,62,57,137,78,200,136
201,323,61,57,139,75,209,142
204,311,62,63,143,76,210,142
201,315,68,65,147,78,209,148
196,319,67,64,160,77,185,141
160,341,60,62,149,71,171,127
158,318,67,64,156,76,165,115
144,303,64,67,158,75,152,112
134,305,69,91,166,85,138,109
154,292,71,93,182,96,159,109
167,254,69,97,182,109,173,110
155,243,63,97,178,110,187,110
154,245,60,94,178,112,183,117
163,217,58,82,178,110,191,116
150,247,66,91,144,101,174,119
176,253,73,90,152,99,173,127
174,265,74,95,175,105,158,127
219,256,78,113,181,108,158,116
209,277,83,107,174,103,169,117
211,252,75,97,183,99,165,112
187,237,73,92,182,91,161,106
196,222,72,87,161,84,152,101
152,257,74,81,176,94,255,145
158,294,61,86,169,89,244,140
158,287,63,94,162,94,256,148
207,312,105,98,192,120,313,164
208,312,111,96,204,130,319,166
249,362,121,79,194,129,291,147
253,315,130,71,196,133,309,146
253,313,131,65,198,129,303,145
218,296,105,70,190,125,259,125
227,300,110,80,200,118,256,128
190,259,107,87,196,115,214,123
189,257,100,83,192,120,190,124
187,280,96,79,195,123,183,120
231,286,94,87,204,106,209,149
223,282,81,79,195,103,214,147
235,233,75,74,206,94,228,142
228,230,68,82,206,82,220,145
258,242,79,83,244,92,230,151
215,280,78,70,226,86,199,123
282,296,88,77,228,92,229,130
265,312,84,75,212,92,211,122
272,318,88,72,223,94,225,121
242,300,77,82,179,86,217,107
245,287,78,92,185,93,222,108
160,294,67,86,169,86,187,100
165,296,70,84,164,96,208,117
193,304,68,86,163,109,206,113
232,301,74,77,176,108,232,160
225,286,70,66,158,105,224,155
229,299,82,74,157,107,242,167
226,282,79,76,153,100,226,155
205,290,79,75,138,85,235,168
193,298,77,72,114,79,226,142
211,301,75,74,108,73,221,155
206,273,68,91,158,65,208,146
217,291,70,100,162,64,237,155
266,294,75,99,171,76,261,161
262,293,76,103,171,78,259,151
275,305,81,109,187,87,267,150
282,316,76,97,158,96,340,152
356,300,105,105,207,108,366,154
360,291,109,134,224,107,376,148
362,286,126,156,261,131,415,164
361,329,136,155,281,131,419,164
366,344,139,159,282,134,378,156
289,362,122,166,265,132,370,147
264,364,120,141,249,132,407,142
263,383,110,116,216,126,399,130
269,336,98,114,176,128,400,117
256,351,109,105,193,125,394,127
260,350,114,102,185,120,366,140
266,364,113,115,188,113,327,153
261,350,130,125,190,95,301,152
245,350,136,130,223,97,310,160
273,302,124,126,237,121,319,168
276,352,124,115,240,134,314,176
293,342,136,127,281,144,276,167
301,336,121,144,300,150,258,158
305,325,115,146,293,150,231,152
294,341,117,147,267,128,200,135
280,278,109,151,284,120,187,104
311,262,122,181,369,150,239,138
305,242,123,162,354,144,231,138
288,230,123,162,356,143,221,138
275,230,142,180,361,145,217,136
324,267,161,174,364,151,276,188
282,261,149,139,291,124,238,161
322,278,156,148,354,164,307,213
347,307,165,143,355,175,326,219
356,309,149,135,360,173,324,221
336,281,129,144,348,163,274,184
306,279,115,129,310,159,267,181
255,281,98,118,250,121,198,122
218,261,78,112,270,107,154,108
213,236,76,96,266,109,149,102
201,234,85,99,266,105,142,91
190,252,98,113,291,94,109,71
185,241,104,158,310,94,117,76
201,266,103,167,311,98,125,87
207,265,104,181,316,97,124,92
209,257,103,180,315,102,149,98
224,239,89,182,280,100,160,105
219,235,78,151,263,98,172,94
211,219,84,156,229,93,171,81
200,266,90,145,226,97,174,91
204,325,101,148,274,121,170,136
197,339,103,153,326,129,163,137
215,367,101,164,347,135,177,153
218,361,101,156,338,136,199,159
241,340,92,152,333,133,198,153
212,287,71,149,298,119,187,114
217,272,73,139,280,135,201,112
293,249,112,161,339,168,287,163
287,257,110,182,380,174,281,159
268,251,112,188,381,176,285,166
307,269,118,185,392,178,286,172
303,294,120,189,374,160,282,171
224,302,94,162,304,122,171,111
240,303,93,140,279,116,154,113
285,292,94,139,319,128,148,111
248,292,104,190,364,141,167,99
259,297,99,208,367,148,169,121
273,280,94,278,441,147,146,118
283,316,109,300,457,145,156,113
262,341,117,318,447,133,158,112
259,349,116,341,488,151,155,118
269,324,126,334,494,155,156,111
259,352,126,286,461,168,179,118
231,340,115,269,433,178,171,124
259,366,105,251,429,180,170,120
276,381,93,173,329,150,165,116
278,416,81,161,312,149,168,125
272,404,92,165,266,138,167,124
327,388,104,193,291,130,167,129
286,343,115,224,323,137,177,142
353,304,118,293,398,160,218,167
357,280,121,299,437,167,226,163
371,280,118,290,443,168,218,160
353,291,114,268,432,161,222,167
374,312,108,249,400,157,225,164
305,308,109,166,326,137,206,135
307,291,111,209,280,120,191,132
297,280,103,215,267,119,187,141
269,269,97,214,266,119,201,126
245,254,93,210,293,122,191,147
255,274,88,219,293,109,161,153
237,268,94,195,316,119,169,143
220,253,97,197,329,163,166,133
225,270,103,212,391,169,155,139
218,260,107,210,379,165,160,104
192,281,104,209,372,174,159,105
186,338,97,190,351,171,140,111
205,358,103,204,343,122,126,107
191,344,95,205,273,116,147,95
188,364,95,197,287,117,140,104
255,342,91,182,290,112,154,114
279,281,98,185,312,111,170,129
273,276,91,158,292,111,177,131
312,276,95,132,311,117,150,148
329,316,106,138,301,114,160,150
316,364,106,138,299,111,157,151
310,439,106,124,268,111,162,139
306,438,113,127,272,107,162,139
269,460,110,118,240,97,166,126
290,424,107,151,271,96,165,123
277,383,124,160,285,103,165,108
304,324,125,159,292,98,146,105
309,333,122,163,283,100,144,117
321,319,128,173,312,99,172,118
290,335,122,193,343,160,184,116
282,341,111,198,342,156,188,128
239,322,101,201,334,157,203,131
229,312,93,191,332,162,204,129
230,293,87,187,322,162,181,126
256,272,106,166,256,105,175,138
260,280,100,155,227,115,173,130
297,298,110,166,256,119,164,124
309,302,111,188,278,116,169,113
297,323,112,191,261,115,171,116
281,343,94,170,246,109,176,110
266,323,96,181,255,98,170,102
244,309,94,178,324,102,163,122
229,297,98,166,363,107,156,135
227,312,101,171,367,107,155,135
219,352,108,167,363,109,126,127
220,374,113,152,351,102,130,135
181,371,108,193,366,123,131,124
190,381,124,190,342,122,136,109
215,355,134,190,353,128,134,111
238,315,126,184,354,127,134,119
250,346,135,184,358,130,153,171
269,356,134,145,272,124,155,168
287,398,113,134,267,144,150,171
282,403,101,130,256,144,164,184
255,381,99,132,261,152,188,179
261,337,79,128,264,156,172,140
243,322,78,114,249,138,175,147
224,266,90,155,230,111,201,150
213,261,87,149,205,108,200,135
222,267,88,166,201,102,188,144
197,258,88,183,231,98,196,133
199,305,88,181,223,96,187,130
199,337,78,161,246,103,164,127
192,393,91,206,353,133,166,126
187,414,96,215,408,138,167,119
206,421,119,248,414,145,165,114
239,395,124,260,428,159,161,113
239,364,123,250,418,159,168,119
264,331,108,212,335,135,156,134
266,300,109,203,278,124,166,136
246,300,89,194,277,148,162,139
224,306,93,210,350,155,176,143
229,338,93,223,360,154,183,141
202,348,105,233,377,153,181,122
208,364,96,218,369,153,160,118
219,372,88,176,349,128,154,115
228,365,85,176,330,114,158,129
211,351,81,167,309,106,136,122
218,300,69,151,286,113,143,122
216,308,72,148,274,115,158,131
239,321,73,148,266,112,147,153
226,327,85,142,308,116,153,134
226,344,98,151,348,129,157,139
211,391,118,236,513,166,155,137
212,389,126,256,604,176,146,133
196,376,134,266,624,185,171,114
187,386,132,267,580,178,155,119
218,386,142,284,600,191,215,142
231,336,135,228,469,161,214,143
232,327,128,215,372,153,224,136
240,312,124,215,356,147,212,140
244,323,121,213,396,158,212,139
244,291,106,177,319,133,153,106
237,298,93,164,319,126,148,99
230,309,100,170,334,137,146,103
207,325,104,165,326,129,137,92
208,330,97,129,288,123,172,87
187,331,90,134,292,117,164,86
288,328,101,147,313,124,182,182
295,374,95,151,273,132,177,185
316,403,89,158,283,134,174,204
350,392,99,167,248,124,159,218
360,413,101,168,259,129,160,228
288,416,104,166,252,128,200,197
287,359,102,149,244,101,202,195
349,350,96,167,219,100,241,213
323,330,82,158,226,106,236,204
319,287,88,151,215,98,254,199
380,276,86,144,198,102,220,176
380,296,111,156,268,117,211,184
313,273,130,200,390,162,207,146
307,261,131,227,397,173,214,155
306,291,127,229,412,182,194,167
244,331,131,248,446,181,178,157
251,304,117,246,444,175,196,150
278,307,97,181,341,145,164,162
286,318,100,148,328,132,146,162
275,295,97,150,317,121,137,143
256,263,84,113,262,123,161,153
258,280,75,103,259,133,163,147
266,257,94,107,273,135,171,134
261,287,92,97,277,134,166,112
303,280,95,83,277,143,201,159
301,289,93,83,274,137,201,155
290,302,97,86,241,170,215,158
273,297,87,112,287,163,215,158
265,289,82,121,299,166,218,160
235,334,83,122,300,164,196,147
241,312,84,121,303,165,184,150
257,287,77,121,286,119,165,152
241,303,75,97,215,120,161,144
244,289,75,98,211,110,166,145
264,257,86,114,228,102,162,136
271,282,96,112,233,104,169,143
304,343,107,105,249,119,178,157
334,549,104,115,254,116,184,200
334,621,102,106,243,122,196,202
329,664,96,95,225,124,214,202
321,690,91,96,223,124,211,194
305,688,88,98,205,114,189,181
266,552,88,106,201,107,173,148
294,483,89,114,235,123,189,145
276,455,95,128,253,153,197,140
288,408,87,131,245,155,193,153
280,380,81,136,265,166,208,166
280,350,77,127,313,178,214,155
295,329,82,123,306,184,183,159
355,274,70,103,282,158,148,154
343,298,75,98,299,156,167,144
331,318,74,122,285,150,176,134
334,314,84,116,262,185,170,138
290,321,86,122,285,175,169,148
249,315,89,123,286,177,166,141
276,338,85,123,283,178,162,145
294,333,93,90,271,172,169,156
306,400,88,83,262,124,171,151
320,538,86,67,212,131,208,146
315,647,85,90,292,147,214,143
311,654,85,102,293,145,198,146
284,677,77,107,302,146,174,124
290,684,82,107,290,148,189,148
296,650,92,98,293,126,154,144
260,560,89,75,214,102,151,144
242,556,98,62,206,106,161,134
250,585,108,100,302,122,175,140
279,606,112,120,335,122,166,126
268,530,99,135,351,126,164,118
271,543,99,158,379,128,169,125
266,519,92,180,398,132,162,121
273,472,85,163,327,108,164,119
217,420,78,148,297,101,158,107
208,430,80,142,280,116,161,103
198,404,78,131,251,117,151,93
218,440,74,116,226,105,155,95
247,411,74,138,262,126,136,89
256,385,71,144,269,134,130,107
282,381,70,138,266,124,136,112
318,382,74,129,244,123,140,127
318,346,76,176,320,143,151,123
287,353,71,168,305,142,156,130
273,345,72,171,303,139,161,127
261,411,79,182,325,137,160,139
214,410,96,186,331,151,185,146
198,482,93,136,260,135,171,150
221,521,107,129,242,122,203,161
211,527,107,123,224,116,197,149
220,480,106,120,204,120,204,148
223,479,88,128,247,117,183,127
214,427,89,117,263,118,213,146
221,375,71,121,286,121,202,130
278,365,74,126,294,124,211,130
264,346,72,121,277,118,221,132
267,363,76,104,240,103,220,134
283,330,78,101,197,100,199,139
256,351,76,91,170,95,167,136
229,353,81,105,187,93,175,152
234,381,77,115,201,90,167,152
241,448,84,124,228,99,207,165
245,456,82,122,240,92,208,144
252,429,84,135,244,94,211,151
272,438,90,154,289,117,206,154
282,422,98,164,314,146,187,153
282,367,87,161,312,148,163,153
282,390,94,162,309,152,155,155
286,394,92,152,300,149,152,154
260,385,78,120,238,143,145,138
258,387,67,92,203,111,147,122
255,357,72,97,213,106,131,124
257,337,61,107,224,108,139,140
289,360,69,139,254,127,162,157
277,409,70,140,266,119,157,156
304,413,71,135,253,115,149,180
301,417,71,130,218,113,148,168
294,443,71,126,202,108,135,155
263,439,66,97,164,88,120,143
265,443,65,91,146,76,125,149
216,440,72,90,147,81,133,122
230,425,69,84,144,75,124,124
237,374,71,82,154,86,135,127
218,339,72,80,147,86,130,127
200,371,71,82,175,96,128,119
186,448,67,90,165,90,117,114
214,482,73,101,209,92,153,121
198,494,70,103,203,84,155,110
200,516,67,100,227,97,153,104
202,443,78,101,210,100,173,113
224,427,79,98,234,104,175,113
244,431,87,99,216,121,172,154
244,423,97,125,247,140,165,161
248,424,98,125,237,136,158,167
256,427,87,121,230,130,129,156
264,370,85,119,216,131,137,163
204,331,74,128,222,148,110,122
208,326,63,129,228,138,123,120
214,324,61,122,217,135,131,119
217,322,61,121,212,141,130,123
208,390,57,126,212,143,137,128
219,411,67,106,193,118,165,133
209,437,66,71,146,114,158,131
228,453,82,71,168,128,188,126
224,459,86,85,171,120,189,120
230,391,90,79,180,117,182,125
231,360,83,78,178,106,158,111
241,315,82,76,177,107,166,115
211,244,71,80,188,105,135,109
211,202,65,83,211,104,139,111
182,162,64,90,225,112,138,97
170,125,60,90,231,129,148,103
171,105,59,94,232,127,134,98
187,104,54,103,224,116,155,101
187,150,52,96,203,117,152,111
213,205,52,90,181,122,160,129
210,276,54,95,174,113,145,125
225,318,67,94,170,111,188,136
228,339,66,97,168,113,173,136
228,395,82,104,187,126,176,144
305,376,78,107,180,118,181,163
310,345,76,104,174,111,175,160
304,340,86,114,204,114,184,168
295,329,89,107,198,126,175,165
305,246,84,101,191,119,192,152
206,284,90,109,201,122,190,113
198,288,97,130,216,127,196,116
205,264,93,124,224,132,197,110
222,259,99,120,247,118,206,112
223,460,107,124,254,110,206,117
216,516,102,115,246,104,197,114
222,536,99,89,239,100,223,120
228,573,88,90,215,93,183,122
241,583,82,92,179,105,176,125
223,518,62,96,179,112,159,123
229,545,65,97,187,118,178,133
228,621,63,105,186,120,144,131
217,711,64,107,214,119,157,113
176,733,58,114,222,110,151,107
177,748,77,118,218,125,161,111
191,692,72,119,208,121,137,102
195,627,72,124,204,124,135,103
211,507,71,131,180,125,120,115
216,462,71,132,202,159,123,117
250,477,55,145,229,181,155,137
247,558,57,157,237,186,169,143
249,545,57,153,248,181,169,137
211,558,56,141,255,181,166,124
228,578,71,165,259,186,219,131
214,514,67,161,258,153,201,106
198,455,67,146,254,146,192,93
253,503,73,146,261,183,244,158
268,528,74,145,245,182,250,160
276,569,63,112,237,157,233,170
278,592,76,86,214,162,240,188
284,562,71,96,204,159,238,189
282,535,81,125,207,120,202,160
291,466,90,158,249,170,197,164
271,395,91,157,236,161,166,149
290,307,82,153,221,153,144,131
288,285,83,147,226,156,146,129
236,239,75,122,202,168,123,106
218,251,60,82,145,117,114,106
229,236,60,81,135,115,113,118
173,238,57,85,148,114,97,103
201,278,61,93,149,112,124,104
211,272,51,84,146,79,129,108
211,476,53,77,221,87,145,107
206,528,59,75,240,90,147,94
212,581,59,75,234,90,158,102
209,580,63,73,238,107,132,116
211,583,63,75,234,109,127,116
209,439,72,90,183,108,120,127
248,399,81,89,171,103,140,151
251,355,84,94,167,112,135,154
272,386,84,118,172,105,155,162
262,384,88,126,183,104,154,160
265,420,88,114,161,95,155,145
239,403,74,111,145,96,137,141
230,473,73,105,143,85,132,132
223,593,79,71,188,87,131,141
229,611,79,56,180,100,135,144
216,594,68,65,191,101,130,144
191,600,66,65,200,103,134,122
188,520,68,61,210,109,134,125
151,316,71,90,179,100,116,91
136,275,72,103,207,98,108,90
139,251,74,106,203,105,100,92
221,277,84,111,204,106,119,128
252,350,85,113,212,117,170,145
249,515,78,90,204,115,169,140
313,595,84,92,216,119,183,165
314,667,90,93,245,121,189,165
282,705,88,98,254,123,196,156
260,702,84,97,246,105,156,138
285,643,92,106,250,112,197,156
223,613,84,91,223,103,189,127
225,561,81,89,210,98,187,125
247,505,94,86,183,101,177,145
245,463,94,91,173,103,176,145
220,406,91,88,185,116,143,163
234,334,90,93,186,121,143,171
231,278,90,93,185,127,147,175
192,248,77,94,197,128,147,143
191,232,79,94,221,131,147,143
208,222,86,91,225,121,156,159
190,227,89,84,212,112,153,151
201,231,86,81,191,96,145,154
263,293,91,73,191,92,158,192
268,302,93,75,188,124,173,193
255,290,81,76,158,118,180,155
248,283,75,76,160,119,176,155
266,309,87,87,181,134,180,173
235,260,83,95,180,137,174,148
237,326,78,90,167,105,165,151
252,531,78,92,179,102,145,174
255,590,83,99,192,99,153,174
223,611,72,99,204,90,157,149
188,650,62,92,200,84,150,138
194,631,67,94,194,94,153,137
163,483,60,89,198,94,162,109
167,427,60,97,195,105,172,109
181,392,61,89,172,125,174,116
185,322,64,97,187,124,158,112
173,305,64,96,183,118,153,114
202,321,71,105,195,120,139,113
245,292,78,111,225,133,151,120
245,266,77,137,308,127,139,128
260,295,72,145,311,129,134,124
264,342,71,153,324,136,138,123
254,322,65,148,311,143,146,117
242,338,58,135,294,133,120,113
244,358,58,107,202,121,130,113
223,344,63,86,196,122,138,115
223,292,61,69,179,120,132,119
206,279,57,64,172,107,126,130
160,266,52,62,171,99,137,132
202,309,57,63,178,95,133,119
203,298,52,67,176,95,125,116
205,306,61,73,174,96,146,111
206,303,61,78,175,97,139,100
225,333,61,78,174,98,141,87
179,286,58,77,173,100,146,90
189,298,67,78,165,95,159,104
176,314,56,70,173,95,150,97
188,320,60,65,169,94,168,110
205,311,61,64,160,104,169,126
234,341,62,70,161,116,171,154
240,333,58,75,180,118,188,146
249,316,72,85,198,125,182,149
249,365,72,90,207,128,168,137
234,361,73,94,216,127,168,130
220,349,79,93,225,126,167,108
232,358,84,108,233,142,139,110
234,364,74,110,220,139,194,118
267,342,79,105,214,138,210,131
254,329,79,102,200,130,202,128
289,361,104,96,217,126,246,152
278,350,97,71,184,99,249,153
283,354,99,62,185,109,222,147
252,337,100,69,182,108,220,144
286,361,100,72,199,118,221,163
250,311,65,72,152,108,198,141
239,334,66,71,166,111,195,141
259,338,65,73,152,91,181,139
257,407,62,73,151,96,163,142
259,403,62,75,139,93,158,122
263,409,66,74,164,102,137,120
272,422,66,80,168,106,138,118
287,411,64,82,200,116,140,123
303,337,62,82,207,113,156,109
266,317,58,77,200,101,155,120
276,324,62,76,192,90,133,114
273,297,64,70,185,89,136,132
257,306,71,56,178,83,137,146
239,327,67,49,172,78,126,154
265,382,69,48,173,81,123,141
246,378,66,53,165,92,128,143
253,403,65,57,160,91,137,135
225,407,69,57,137,93,144,119
219,386,71,51,135,96,135,116
230,330,76,52,136,98,135,122
260,341,71,49,132,90,142,133
292,301,70,47,125,105,125,136
296,312,58,45,111,98,128,136
307,327,60,59,118,104,127,140
278,333,52,59,120,105,133,145
264,318,57,69,130,108,127,150
237,343,56,76,147,95,140,149
247,318,59,78,148,91,128,150
245,319,54,71,142,81,136,150
257,352,58,70,138,76,127,139
268,336,58,64,141,71,123,119
270,323,60,51,124,64,125,115
277,367,69,50,122,70,128,117
270,385,68,49,118,85,123,118
272,381,73,57,129,95,130,131
280,390,92,57,116,95,143,143
285,381,96,63,118,110,134,151
272,385,91,64,120,107,131,150
314,384,97,69,129,94,128,142
318,370,95,73,124,86,130,148
287,381,74,75,130,88,127,140
277,458,71,74,143,74,150,133
267,419,71,79,149,76,145,127
224,385,66,75,143,78,147,126
235,398,66,66,134,78,145,109
249,395,72,57,129,74,139,113
263,289,68,59,116,94,108,113
263,292,74,64,129,117,108,120
247,324,73,71,149,128,117,121
216,296,70,74,175,131,113,126
207,327,65,75,176,139,124,119
190,363,62,71,176,130,119,111
207,386,64,65,161,109,146,99
212,385,70,63,138,102,144,105
248,391,72,59,124,107,170,109
242,390,75,61,129,96,170,101
264,375,76,69,135,94,179,112
246,353,66,66,135,95,156,112
252,337,63,63,143,97,156,116
222,324,64,65,144,91,160,117
236,298,60,64,145,91,164,117
196,277,61,55,134,80,154,110
217,335,63,54,137,84,159,114
233,365,63,60,134,82,149,110
254,364,72,58,131,80,118,101
244,391,97,61,122,83,94,97
264,400,97,60,121,84,100,112
246,392,96,58,124,104,97,116
235,373,92,49,134,110,110,109
260,398,80,51,127,118,105,119
251,373,46,46,123,125,129,137
221,414,43,44,135,135,135,131
244,388,42,49,124,120,136,125
234,385,43,48,113,118,126,125
185,379,46,47,101,106,140,128
181,356,46,50,100,99,124,140
188,313,53,59,94,94,113,135
235,357,61,61,90,100,117,139
235,382,60,61,84,92,120,138
282,389,73,64,107,103,140,164
291,386,76,66,114,117,136,144
307,380,71,64,124,113,137,159
272,348,67,59,133,104,126,155
285,344,70,61,140,102,146,157
246,323,54,56,124,91,117,120
232,332,49,54,122,69,110,112
213,315,49,49,109,76,107,80
199,356,44,47,107,73,110,96
192,368,39,48,94,73,99,106
172,420,40,57,106,79,105,111
181,448,44,63,116,102,113,116
197,453,43,61,123,97,126,126
186,407,48,63,113,94,130,128
166,371,51,65,119,98,131,124
166,321,55,58,114,98,121,113
183,278,54,46,101,71,113,116
163,277,55,50,90,68,100,109
164,278,53,45,115,79,137,115
187,350,51,66,131,81,160,113
201,342,51,84,146,76,161,115
192,355,49,86,147,78,164,115
187,348,48,86,148,86,172,117
182,342,49,89,137,78,141,102
170,278,48,73,126,72,102,99
158,284,43,59,116,72,101,100
154,273,46,57,137,94,103,100
186,282,47,63,146,89,100,100
225,293,55,67,152,98,124,120
272,284,59,75,156,106,131,132
296,282,60,81,153,112,135,157
302,277,63,91,138,94,133,160
281,292,61,86,127,91,124,158
250,268,51,85,113,80,100,136
186,357,44,77,114,64,80,119
133,516,42,65,123,58,71,75
121,669,32,51,135,55,82,85
135,807,34,50,153,52,87,84
147,871,39,45,166,53,86,85
148,875,48,56,168,56,94,96
148,814,52,58,167,48,103,99
144,717,57,56,164,49,111,88
135,562,56,57,155,48,114,84
120,467,56,61,157,71,116,90
144,384,57,86,183,84,140,81
158,316,54,93,178,85,139,100
156,291,52,98,179,84,126,87
160,267,52,99,181,91,123,105
168,268,51,100,171,81,136,112
185,262,44,78,129,64,114,111
181,271,41,72,128,64,109,95
194,248,41,68,125,72,107,98
195,256,43,75,136,72,108,85
200,241,40,70,133,64,102,70
188,260,40,74,160,74,112,83
188,256,50,102,199,95,117,81
165,240,101,392,573,201,131,87
189,273,117,457,660,233,138,92
214,271,121,460,669,234,133,96
220,280,122,461,678,233,117,88
225,296,121,459,669,229,112,87
240,289,84,261,399,145,105,93
221,240,58,114,229,79,89,86
198,232,54,124,214,88,91,82
184,210,50,117,191,95,100,80
192,196,52,108,185,86,104,80
177,201,51,107,194,80,85,61
188,211,55,104,175,80,96,59
192,214,53,95,181,82,93,65
206,215,57,110,174,76,84,68
219,225,58,112,178,78,92,83
230,226,58,125,213,87,90,85
238,238,63,160,272,128,90,100
245,251,73,170,313,129,85,102
246,251,77,168,322,148,85,101
260,251,88,175,337,157,93,122
277,260,90,177,330,158,103,129
264,401,88,150,312,137,111,125
271,514,90,156,325,146,117,127
262,596,98,187,341,133,136,135
232,629,102,216,366,128,129,119
215,659,103,215,363,127,126,111
234,599,102,215,350,119,121,105
249,517,94,201,299,100,119,95
255,435,80,183,263,111,113,102
253,377,63,145,224,112,105,89
261,333,60,154,292,113,108,91
264,334,66,157,321,123,115,92
252,325,66,156,323,131,109,91
301,325,70,152,346,128,110,115
305,335,69,148,349,126,110,118
292,330,75,149,296,146,132,120
273,378,69,163,284,148,122,124
260,530,69,164,284,147,132,138
197,576,63,146,251,134,123,113
228,608,73,148,231,128,141,109
221,633,64,149,231,154,118,111
237,583,69,143,240,149,114,122
231,460,66,143,241,145,107,113
262,395,68,156,258,151,107,109
255,342,53,153,257,156,86,108
265,325,70,163,253,104,88,104
250,350,68,160,255,113,115,113
242,349,67,162,265,111,110,105
201,354,68,150,262,114,138,109
186,359,70,152,292,113,137,113
194,391,51,154,309,127,158,120
205,397,67,190,358,137,168,102
236,390,68,202,360,148,171,116
233,384,72,211,374,148,153,122
215,429,72,207,353,148,168,127
198,424,74,182,322,130,162,127
205,410,58,134,255,114,143,124
186,407,57,108,280,111,144,113
192,394,52,103,270,105,146,99
195,341,48,105,264,99,129,96
216,296,49,97,267,104,144,117
213,340,49,106,252,95,154,121
220,355,55,148,247,90,154,135
215,351,58,157,222,83,149,133
230,356,63,159,239,90,185,144
274,366,62,174,255,100,167,125
272,359,65,171,248,101,150,120
271,371,62,137,211,95,153,103
287,384,58,142,253,112,159,118
278,381,55,170,298,144,136,110
255,360,55,196,321,143,135,146
256,363,64,202,330,144,146,156
287,334,76,202,341,154,160,161
309,329,82,190,326,161,217,159
322,332,82,173,312,147,211,169
313,348,81,143,299,143,217,137
305,333,72,136,331,169,232,127
263,342,64,141,318,160,228,133
263,361,58,145,324,143,175,128
237,347,58,134,284,127,186,112
213,352,58,120,295,134,191,112
225,328,58,117,241,95,181,128
224,298,51,105,235,91,170,118
170,289,52,97,218,90,167,117
165,309,51,95,223,86,152,110
168,310,62,126,164,59,133,110
154,307,78,146,173,84,130,86
161,315,81,159,188,89,140,96
163,306,80,155,180,92,137,101
224,285,84,162,206,96,127,109
215,292,76,140,213,100,151,108
217,292,59,114,206,87,141,109
277,329,57,135,247,104,140,128
278,363,54,147,253,113,146,128
265,384,54,144,233,114,153,121
271,380,55,142,255,134,131,118
272,396,56,177,308,139,122,117
231,387,63,173,335,145,129,86
238,364,65,182,350,146,123,81
219,382,62,177,356,145,129,85
216,456,62,176,339,126,132,83
217,525,63,142,294,120,130,98
195,547,60,120,235,116,116,92
185,564,60,98,223,109,118,85
176,543,67,126,256,115,126,88
168,476,70,136,268,121,116,86
205,412,87,148,297,149,173,115
218,358,84,141,273,131,176,119
223,334,82,144,282,139,179,126
222,330,75,149,271,138,163,118
235,313,77,163,264,144,188,128
303,266,56,155,219,112,162,113
297,268,57,185,306,126,161,114
286,242,61,179,301,113,160,110
285,221,64,154,275,114,159,115
286,209,60,128,268,102,146,121
192,224,55,127,279,108,119,105
209,227,54,90,201,88,113,111
212,217,47,94,194,86,96,108
204,223,45,97,201,79,101,105
189,237,48,101,209,79,80,88
193,228,56,95,217,72,85,91
164,228,62,101,217,95,82,75
176,266,78,122,223,106,97,97
193,260,79,131,235,118,97,104
218,242,80,159,306,154,121,104
257,246,82,170,332,171,131,122
271,243,84,201,354,161,133,126
263,224,80,216,379,171,141,114
269,233,82,224,408,184,141,110
301,243,83,209,369,162,127,137
268,236,79,207,335,147,124,118
254,240,75,192,312,150,141,129
275,245,65,170,308,140,128,141
278,247,64,165,282,110,126,144
220,296,58,159,263,95,122,117
189,328,53,152,268,90,124,117
202,332,53,124,252,77,103,104
177,330,52,101,198,60,101,82
144,325,47,74,146,54,105,72
143,307,45,97,221,73,98,75
149,293,48,110,221,80,86,77
132,290,46,106,229,86,88,78
147,296,44,107,226,87,96,88
146,288,43,108,244,94,96,85
171,265,44,88,187,81,101,95
179,233,37,68,174,71,88,97
182,235,53,84,163,67,99,105
159,216,53,92,176,63,84,96
212,234,68,108,209,79,104,128
213,238,71,107,204,82,105,123
233,246,77,109,213,85,113,128
246,247,77,104,257,95,126,148
265,266,79,99,263,105,135,160
234,273,78,120,271,106,119,136
221,253,91,191,368,118,119,134
214,282,88,222,409,131,112,135
193,316,78,222,391,127,85,113
175,294,77,221,386,124,92,98
168,292,68,207,362,112,86,102
185,309,50,158,303,129,98,113
175,282,53,113,260,124,109,109
181,249,52,113,271,121,112,100
179,254,53,121,267,120,103,105
199,250,57,121,276,122,121,113
185,236,52,102,233,86,110,101
184,253,57,119,236,91,119,139
179,260,60,122,218,95,119,140
181,268,69,143,217,100,115,142
196,267,65,163,219,106,108,138
198,264,64,162,213,105,109,137
181,263,55,146,179,88,88,87
178,282,53,139,168,84,83,84
170,285,41,109,161,68,79,71
152,278,39,90,172,79,65,70
141,294,46,95,168,84,84,73
166,276,50,107,184,91,90,88
183,257,54,119,222,100,91,91
213,257,59,129,228,113,116,104
269,271,58,153,282,204,146,107
287,286,66,184,329,207,135,124
297,307,66,179,324,208,132,115
305,315,64,171,307,206,144,115
311,328,64,176,310,208,128,104
249,340,68,183,262,122,134,101
243,326,58,153,222,118,143,88
222,336,59,153,225,117,142,88
197,364,60,154,232,124,131,84
224,369,59,183,325,138,137,102
232,382,53,150,310,125,100,93
213,374,51,141,307,121,85,82
205,364,50,160,320,136,95,97
208,325,52,184,344,138,92,96
125,301,48,169,260,142,78,75
155,258,59,185,289,154,91,94
184,281,63,191,295,161,97,97
183,268,61,172,271,145,97,81
184,251,56,146,225,135,99,81
195,235,60,140,250,120,110,86
173,243,50,114,202,101,111,86
166,231,47,107,185,95,132,87
169,225,47,116,188,98,124,93
214,232,55,143,208,114,128,99
227,254,56,127,189,103,125,106
219,248,56,126,192,102,120,97
226,244,54,134,206,103,104,94
232,254,53,146,211,98,107,85
239,257,48,130,227,86,131,97
282,279,42,124,206,82,134,94
294,275,45,144,237,88,126,99
283,278,49,157,283,130,122,113
278,268,55,150,296,140,118,121
242,284,59,163,300,144,131,110
188,266,61,168,299,141,128,104
199,266,61,160,291,144,132,109
216,258,58,141,233,111,130,100
229,261,56,144,240,106,132,98
229,240,54,131,237,100,91,98
242,219,52,117,233,110,118,113
262,231,51,100,218,107,117,104
256,240,60,141,270,119,120,104
246,238,62,133,278,121,117,98
252,230,62,129,258,120,120,101
232,240,60,130,261,110,97,93
212,246,59,127,257,102,113,100
208,240,50,79,194,77,106,100
212,244,44,70,141,69,121,104
202,251,43,95,174,75,129,108
204,272,48,123,193,78,128,101
170,279,55,150,234,88,118,97
173,285,63,176,285,96,118,104
171,299,64,183,310,97,112,109
185,302,70,195,307,95,129,111
181,282,69,202,327,100,133,107
175,260,65,194,316,91,130,103
170,274,56,180,275,86,135,104
162,275,55,178,246,85,138,105
139,277,53,161,249,80,113,109
129,296,48,142,214,74,108,112
128,297,54,134,199,81,124,117
157,267,59,136,211,79,132,125
190,259,60,153,228,76,127,121
195,230,59,161,240,88,129,113
213,216,68,165,254,92,126,117
230,232,66,170,266,89,110,124
204,245,62,166,280,94,103,100
185,242,61,162,297,101,98,95
188,247,58,160,309,102,101,91
189,241,52,170,306,108,104,84
187,229,48,178,298,112,100,86
192,217,51,177,276,113,114,93
195,211,51,163,251,106,116,105
193,215,50,159,250,105,109,114
176,236,48,166,273,101,112,117
178,240,51,154,266,97,115,110
178,258,46,154,262,89,92,107
196,255,49,152,262,87,92,99
275,278,48,137,201,71,90,120
344,279,50,94,156,62,91,159
357,277,50,91,149,58,94,200
368,261,59,101,174,70,128,219
416,298,63,105,180,75,142,260
382,296,65,104,195,85,161,254
335,281,63,105,188,82,156,242
417,283,63,100,198,82,163,228
438,304,56,74,175,75,156,215
395,319,51,70,154,68,148,170
400,315,50,75,145,54,128,169
388,318,49,85,185,61,134,164
293,342,44,85,190,62,141,132
274,342,48,85,187,60,150,132
277,316,48,86,196,64,144,124
260,324,42,90,210,69,151,136
300,341,45,80,185,70,162,142
343,363,49,99,210,71,159,159
340,352,46,104,234,76,152,189
356,361,45,101,230,77,177,197
353,373,58,103,246,80,178,191
343,402,65,112,266,89,197,195
311,366,65,116,252,86,194,199
305,364,69,117,245,84,186,200
286,384,72,132,253,84,174,196
300,397,66,133,233,84,177,195
303,347,63,140,223,84,157,187
289,375,63,122,203,83,178,184
306,378,58,119,199,82,187,160
298,365,54,108,184,84,181,167
311,343,53,101,175,94,179,171
290,333,50,82,160,88,192,175
283,292,48,85,157,91,175,197
264,389,51,88,160,92,175,201
259,369,54,87,171,111,191,194
284,375,53,92,163,97,204,226
334,377,53,101,193,93,216,220
359,388,52,118,206,90,218,198
372,360,58,127,206,93,216,185
388,367,58,133,238,80,200,182
355,346,56,134,251,80,210,133
315,360,57,128,230,80,174,157
324,375,57,106,217,78,178,145
337,290,54,91,214,76,186,149
310,265,51,80,183,64,196,148
331,367,51,63,170,70,181,141
329,364,48,65,171,76,200,140
286,388,49,86,209,78,191,137
227,431,48,91,223,87,178,130
251,451,53,95,224,86,203,137
205,373,55,94,223,83,199,147
230,370,59,89,225,77,179,121
236,336,67,118,327,100,175,136
296,292,86,133,362,118,233,166
322,270,83,133,361,116,201,178
360,294,93,156,377,132,238,208
344,293,97,184,403,154,250,208
347,273,99,172,324,140,259,208
300,303,82,163,273,118,208,185
275,307,91,188,310,126,231,165
232,287,79,175,317,117,189,111
218,287,70,154,287,112,183,100
217,399,73,147,287,125,172,100
231,548,74,147,290,126,187,139
198,595,62,111,266,121,167,144
206,621,65,105,242,111,160,144
214,626,70,95,243,88,154,166
202,571,54,95,250,71,160,160
221,436,51,93,260,81,170,138
248,428,51,100,247,83,179,146
269,427,48,102,245,93,200,157
283,551,46,101,238,93,196,141
310,608,58,84,217,94,193,140
324,602,61,77,201,88,203,164
304,562,63,70,204,92,200,154
291,563,68,76,201,85,224,145
308,467,73,76,181,93,257,166
297,446,66,86,217,95,258,170
279,556,72,102,258,111,270,175
333,636,73,114,292,109,268,184
336,694,72,142,312,115,231,178
304,708,69,169,326,117,209,163
296,686,67,166,297,111,211,174
340,601,78,170,299,115,234,171
322,597,76,161,259,114,226,161
317,498,80,138,241,118,242,188
320,484,75,101,227,110,233,186
330,460,89,111,268,124,247,183
280,459,76,95,244,107,181,169
240,347,82,116,238,106,185,183
230,347,80,112,231,93,165,162
240,298,88,115,239,93,172,166
266,282,81,113,200,80,149,162
252,236,77,130,181,72,144,145
290,205,71,124,181,72,148,146
291,180,66,121,174,69,146,147
284,139,67,122,162,70,160,153
255,394,61,114,216,72,167,147
251,469,63,105,209,74,171,152
199,508,63,100,209,79,160,130
196,575,63,100,228,82,173,128
267,605,61,100,248,95,189,155
272,505,61,106,196,97,182,156
299,449,64,99,212,97,186,157
303,415,61,92,212,93,184,159
319,364,59,100,223,92,185,184
275,349,59,101,195,78,167,179
280,335,62,102,202,74,162,178
264,344,67,100,194,71,154,177
268,341,67,98,196,69,166,182
275,305,69,100,197,78,163,157
255,306,61,102,212,86,132,119
276,373,56,102,208,85,144,113
334,683,48,101,225,88,145,116
349,748,54,104,221,103,131,118
339,777,58,108,220,99,122,126
350,789,65,122,222,99,128,128
372,766,70,137,229,98,146,145
320,518,70,141,215,104,142,141
327,438,71,138,217,89,157,151
312,377,70,132,193,88,151,140
310,330,67,123,187,82,141,142
240,305,67,114,188,96,121,123
238,296,67,104,196,94,126,125
223,275,60,104,200,93,130,112
264,368,61,107,199,90,137,123
257,372,56,100,187,91,160,146
273,382,50,98,194,90,167,159
280,378,49,104,175,85,161,158
269,391,47,104,172,92,157,154
239,315,42,115,179,116,168,147
241,310,47,112,184,116,153,125
255,293,47,110,159,127,155,153
249,384,54,107,197,140,190,158
251,579,61,124,251,148,196,153
256,619,61,109,249,130,189,151
265,652,60,106,255,133,191,148
243,719,58,95,271,122,187,106
267,842,56,92,282,112,168,112
269,742,58,74,255,98,156,128
271,727,60,83,251,106,155,148
261,745,63,99,263,100,145,150
285,739,67,104,243,92,149,153
258,540,61,102,190,88,146,143
259,497,55,106,172,91,163,155
242,485,53,98,166,84,167,133
240,429,45,87,131,83,177,130
204,318,43,81,136,90,174,125
204,300,48,87,158,82,170,157
245,316,57,80,149,78,152,153
261,307,61,88,162,85,145,155
261,299,69,91,162,99,177,170
261,328,66,104,197,100,180,170
299,354,75,111,204,118,211,168
294,339,67,108,199,117,230,151
291,318,68,110,197,139,247,156
316,321,64,116,202,136,219,142
310,325,70,138,232,151,212,136
338,380,70,146,284,146,182,132
308,578,71,154,307,148,161,141
302,627,68,155,307,123,132,137
275,624,66,147,302,117,145,134
301,619,60,124,267,91,151,142
260,578,50,110,219,94,144,115
261,388,50,109,205,102,145,100
267,331,52,100,204,108,140,101
316,369,56,98,211,109,125,134
297,387,59,87,200,106,107,131
269,401,54,82,174,94,110,133
275,439,53,98,186,85,105,137
265,444,52,109,188,80,102,136
244,419,49,109,211,85,113,103
245,417,51,114,222,92,117,105
237,418,56,115,222,89,109,102
225,391,54,96,202,90,102,112
234,390,50,79,203,86,105,113
224,481,46,86,180,84,110,113
246,465,41,78,159,80,127,110
266,483,44,73,181,83,131,113
271,469,49,64,173,94,133,100
275,462,54,65,160,94,144,124
253,360,57,72,186,95,136,123
244,348,65,76,200,120,123,141
237,289,62,79,176,120,123,143
228,284,64,87,188,111,118,145
212,243,62,86,200,113,126,127
200,194,58,69,177,116,156,139
168,161,49,67,159,95,147,116
171,139,47,64,149,89,150,117
182,147,40,54,133,89,147,111
200,200,57,54,178,130,186,110
202,255,59,60,194,125,186,94
267,440,62,64,220,127,213,172
279,494,66,66,226,131,222,175
270,522,66,63,232,145,226,178
295,559,64,61,217,136,208,196
304,554,62,55,190,131,183,205
260,451,71,58,173,134,156,173
232,437,71,61,180,135,144,175
223,420,75,69,175,121,153,173
174,361,69,77,140,92,126,154
183,354,69,77,142,91,126,148
188,338,59,67,124,84,137,121
206,296,52,67,119,85,151,113
212,278,46,70,138,89,146,115
216,258,41,64,137,84,149,117
196,348,44,62,157,90,179,116
174,438,42,70,174,87,169,110
173,499,47,68,170,84,168,106
212,651,47,61,173,73,162,104
203,775,50,59,205,80,169,92
208,795,52,59,189,75,152,85
212,788,53,51,187,74,148,82
230,790,55,59,194,76,139,96
202,687,63,63,208,81,141,100
227,574,63,67,179,73,115,105
240,491,65,71,182,79,115,114
247,439,69,81,184,81,129,118
239,379,68,83,180,86,125,115
300,365,64,82,153,89,180,135
310,332,65,90,163,113,191,148
336,329,60,96,166,113,187,150
377,333,55,91,156,111,186,151
367,316,54,84,162,116,206,149
326,296,51,80,150,119,168,139
325,291,46,75,146,99,167,136
314,306,47,69,140,95,191,129
277,268,48,68,136,100,227,136
269,272,43,65,149,110,276,136
269,266,38,65,144,100,281,131
234,265,41,66,144,98,280,120
194,358,35,67,157,99,260,125
166,554,33,68,167,92,225,124
198,649,36,72,149,62,135,116
217,674,39,72,165,60,115,113
250,677,38,62,157,60,104,110
251,647,38,58,153,64,102,114
248,501,39,51,136,61,104,107
226,370,40,45,127,65,102,107
210,350,41,47,109,64,92,102
170,345,41,48,108,61,94,98
158,316,43,43,92,56,95,86
172,294,43,42,95,59,124,94
162,280,45,41,87,51,133,96
152,231,41,40,100,70,133,100
156,234,40,42,103,73,135,105
157,236,36,49,106,74,142,105
174,270,42,54,106,79,194,107
177,292,38,57,107,80,189,101
195,323,42,54,94,70,195,131
208,317,41,53,91,65,196,136
342,310,54,50,105,73,254,167
342,291,50,50,104,62,211,165
353,394,58,48,127,66,210,167
345,573,61,53,138,78,212,153
336,590,60,52,148,81,210,146
208,597,52,59,144,76,153,120
243,601,61,62,165,86,165,129
246,540,56,63,159,87,175,151
239,336,54,64,152,70,167,138
243,322,55,64,143,77,167,142
236,308,53,58,148,75,162,137
174,356,47,53,139,66,143,123
147,496,53,53,151,67,132,94
162,516,52,49,155,67,134,108
164,647,54,71,169,60,130,105
166,714,54,74,179,61,103,94
190,816,49,72,193,65,112,93
186,800,42,74,184,61,106,96
173,842,42,85,195,61,109,88
176,788,39,79,197,58,114,103
199,732,39,81,180,54,117,107
177,588,40,83,157,47,108,109
179,498,38,80,150,48,104,105
196,383,34,73,130,50,117,105
194,300,36,71,114,51,116,91
191,301,35,65,104,47,114,93
190,355,32,62,106,49,103,92
204,355,37,62,104,49,107,100
183,359,37,62,117,50,86,91
186,343,39,53,108,50,88,112
217,342,40,54,117,60,108,114
222,273,42,56,114,63,106,114
218,263,41,55,112,65,131,112
233,260,41,48,98,64,131,117
256,283,42,50,109,65,130,107
227,258,44,49,95,57,115,96
235,255,46,47,92,59,129,93
243,327,45,48,103,56,101,85
227,447,46,50,101,58,113,86
210,465,54,47,114,63,123,98
252,520,54,49,136,66,127,142
243,566,51,57,146,63,121,146
234,545,60,83,159,72,139,154
265,471,67,94,200,84,141,164
291,450,87,249,375,147,152,156
308,408,90,285,465,186,168,139
374,380,101,300,489,200,165,140
448,436,113,297,528,204,172,135
445,519,111,298,605,235,163,129
432,536,96,252,536,247,158,131
418,550,95,233,492,241,140,119
398,552,90,213,486,237,143,121
315,500,71,216,452,239,139,119
294,391,71,214,341,226,153,109
279,373,72,159,343,182,147,101
256,359,77,160,350,165,150,106
224,314,75,181,329,155,151,98
281,309,76,183,325,153,140,101
287,319,74,191,317,123,129,106
283,378,69,175,287,116,122,117
264,527,58,145,260,116,121,112
283,580,55,147,273,125,115,113
238,585,53,142,254,116,106,113
244,587,61,124,240,116,102,112
265,546,59,123,229,129,100,113
280,408,61,152,214,125,94,122
274,343,64,141,214,122,104,121
288,313,65,140,265,154,124,133
313,364,59,155,291,171,127,144
331,404,60,162,321,171,134,152
358,410,58,134,301,184,134,139
339,407,58,117,307,198,145,150
312,453,60,127,277,177,133,141
297,447,66,108,253,164,130,125
310,411,65,104,246,167,151,124
303,392,72,110,255,154,152,123
302,385,68,112,226,130,143,118
337,348,69,105,219,141,139,125
321,329,61,110,225,147,155,130
286,324,63,107,195,131,131,112
253,320,54,100,181,143,137,124
269,341,57,94,198,150,141,135
236,341,49,87,188,134,137,131
245,326,50,90,205,144,118,128
246,345,48,80,223,159,119,125
295,349,60,100,246,158,107,116
335,342,69,99,260,154,97,94
334,343,80,116,309,163,103,94
330,341,86,143,311,152,112,102
319,333,89,159,301,156,101,105
283,323,84,149,299,146,98,101
251,340,73,152,276,149,102,102
273,383,66,138,224,148,108,119
272,386,58,105,194,142,101,113
299,408,55,82,174,120,112,122
310,414,54,84,156,134,114,118
281,407,53,81,153,125,102,125
260,381,50,82,192,135,100,99
281,394,53,81,227,145,99,110
266,357,46,82,227,143,87,100
298,376,46,81,227,131,100,129
286,362,45,79,263,153,98,118
288,332,46,76,231,134,98,121
275,324,43,75,202,133,117,124
267,309,52,77,203,143,134,126
189,284,53,73,207,149,124,98
224,312,57,74,171,130,129,118
241,346,57,71,191,133,123,124
225,316,60,72,189,125,130,122
231,339,55,66,202,119,131,122
262,389,56,66,198,107,136,132
271,372,56,67,200,103,139,119
250,369,57,95,216,140,139,130
257,385,55,94,214,140,114,121
259,401,56,101,217,134,92,121
232,344,53,103,207,128,88,117
201,411,58,114,218,130,91,123
203,468,53,93,183,93,92,104
203,503,52,91,203,87,105,101
191,511,56,84,200,96,109,99
270,538,62,120,196,102,112,103
262,501,56,123,177,113,118,93
270,442,62,123,191,123,122,95
269,385,63,126,165,121,113,101
286,353,63,133,160,110,115,102
226,330,59,117,183,116,112,101
229,297,60,101,189,116,101,106
231,273,59,98,171,107,106,107
244,336,57,96,190,109,101,103
254,327,56,92,184,113,101,105
262,295,56,77,209,112,123,112
253,296,56,85,206,107,121,107
272,325,55,88,206,101,108,103
256,268,61,87,208,152,113,103
231,264,56,99,207,159,111,103
265,263,58,96,183,161,93,92
278,257,56,94,175,156,96,90
258,231,55,95,179,175,104,91
258,268,52,122,177,137,98,96
259,261,57,114,199,135,116,117
200,260,52,111,181,135,123,121
209,273,53,109,183,136,120,125
222,262,52,108,186,113,114,125
241,220,51,74,172,104,116,122
231,233,47,60,139,151,104,93
227,271,44,58,136,150,89,89
207,271,42,54,124,153,101,87
221,268,43,52,144,171,100,100
193,258,43,52,159,181,106,102
211,270,42,57,154,138,110,109
264,276,47,63,169,143,125,121
279,269,47,94,217,171,112,122
270,306,48,107,214,157,118,121
288,328,48,108,210,152,125,125
297,333,48,108,254,157,118,135
281,302,46,108,245,145,110,122
301,298,49,112,229,108,124,120
308,270,54,112,245,125,129,117
318,245,52,118,246,119,135,119
322,248,53,118,204,109,144,111
311,249,52,118,210,119,140,119
301,257,53,102,196,116,142,143
308,259,47,99,170,93,159,153
323,266,49,115,164,92,151,153
305,243,51,119,172,121,190,161
321,277,52,127,179,130,212,168
303,321,53,136,179,132,208,157
275,335,54,149,172,136,201,141
263,372,54,134,166,157,202,140
266,385,55,145,188,139,160,128
251,356,53,140,189,127,134,123
256,326,49,126,192,144,143,122
288,309,47,102,226,196,143,127
253,283,44,99,228,179,140,119
237,294,44,80,222,178,139,116
237,295,44,74,206,176,140,102
238,313,43,74,194,170,136,112
216,318,48,72,153,107,119,108
226,318,45,71,147,105,113,114
230,295,39,97,145,151,114,120
235,298,43,114,179,156,107,123
261,305,56,118,198,159,132,121
263,297,55,119,199,154,138,126
307,318,60,120,203,165,162,169
325,311,61,104,204,145,160,174
315,316,71,100,230,145,166,188
305,276,72,107,236,144,162,183
313,275,72,110,260,172,160,183
262,225,71,124,262,164,137,138
239,260,71,120,268,160,136,125
238,268,63,114,241,173,144,119
224,272,54,108,244,191,152,127
194,266,55,123,246,169,161,136
220,277,56,115,239,174,163,144
223,261,55,124,222,159,167,145
208,249,50,122,204,139,149,130
198,253,52,116,173,102,151,120
190,252,52,102,165,112,144,110
155,234,50,100,174,104,142,107
168,213,51,93,173,109,140,119
259,247,62,97,184,120,148,126
249,237,61,107,189,111,106,118
260,266,57,106,164,102,106,120
290,272,60,109,162,99,107,124
289,273,64,137,224,119,105,113
244,241,62,143,243,128,110,109
258,245,57,139,244,132,108,111
286,222,59,136,236,131,118,112
277,246,63,132,243,137,115,109
275,250,64,100,195,126,115,116
263,250,61,97,199,105,112,117
269,251,61,89,190,101,116,120
244,241,62,109,218,117,92,119
231,239,62,115,215,141,90,122
231,251,65,115,207,138,103,120
219,243,62,103,166,138,99,116
220,244,65,110,169,150,109,120
219,259,63,100,153,143,113,116
216,240,57,92,140,116,131,111
251,250,56,88,149,117,119,119
267,270,55,89,158,130,118,117
252,259,57,90,186,121,130,120
247,251,56,99,211,114,129,115
243,268,58,118,246,117,113,117
222,253,53,123,243,115,131,108
233,246,56,130,258,113,150,110
231,274,55,124,236,106,134,98
245,287,58,110,206,108,140,112
249,268,56,88,170,110,140,99
225,270,55,87,173,105,156,98
193,278,54,90,176,98,142,94
283,275,58,101,195,118,148,148
271,259,58,113,190,118,145,142
282,277,58,129,195,110,149,146
288,283,59,128,188,107,114,141
281,274,57,118,158,105,109,147
185,238,49,109,138,82,94,89
174,239,46,93,131,72,87,87
155,209,43,64,106,66,71,82
153,193,44,47,96,64,81,87
153,197,45,47,89,53,73,75
156,242,46,63,115,62,91,72
160,248,49,76,131,77,96,69
153,278,49,95,164,81,96,70
137,269,47,97,168,79,81,64
143,254,45,97,173,75,80,63
138,218,41,87,157,71,58,59
118,193,34,74,143,53,47,49
101,143,31,47,100,46,44,42
94,137,29,39,89,42,48,33
70,139,24,35,76,41,47,29
59,152,25,34,59,31,41,25
55,169,24,32,54,24,40,28
55,173,25,35,61,24,40,36
54,174,30,38,63,27,36,38
51,194,37,40,67,29,41,37
55,193,38,44,64,27,41,37
62,190,40,46,63,27,41,37
58,194,39,43,58,25,41,30
61,188,33,39,54,21,43,28
76,166,25,37,45,17,43,29
75,162,21,27,45,18,43,31
71,161,21,26,42,19,44,28
71,155,22,25,41,19,45,27
67,169,25,26,41,19,36,27
53,173,27,26,43,21,32,28
47,162,27,25,40,21,32,31
40,175,24,22,42,21,32,31
46,178,24,29,44,22,45,35
51,165,23,36,45,22,45,40
56,172,23,35,54,22,48,38
56,171,24,37,75,22,50,36
61,159,24,39,78,23,53,35
58,166,29,38,90,25,41,31
55,174,32,34,135,25,41,23
49,169,31,37,150,25,42,27
51,176,31,37,140,31,48,30
63,177,32,37,143,34,49,34
69,172,29,33,135,34,51,39
73,180,29,35,90,36,50,44
73,173,30,33,55,37,47,42
76,175,32,32,55,33,40,41
66,172,39,31,46,31,45,38
67,169,39,32,46,29,45,36
71,150,36,27,46,27,46,33
70,166,36,27,50,26,59,34
68,155,33,33,57,31,60,37
81,148,25,33,59,27,55,41
80,178,28,36,62,28,57,42
76,208,27,35,66,29,59,43
99,215,30,41,71,30,60,58
108,227,31,48,71,26,72,62
102,231,36,55,73,27,79,60
102,219,35,55,73,28,83,67
125,223,39,62,79,33,98,66
154,211,38,85,115,36,92,53
148,212,41,91,127,42,89,48
194,238,37,89,127,43,83,47
213,245,36,91,130,44,79,37
211,235,38,95,140,47,69,42
185,232,38,88,138,50,75,42
191,229,38,104,165,55,76,45
143,209,43,126,200,60,81,46
117,192,43,129,220,61,79,44
100,169,43,126,222,61,75,39
99,176,43,119,211,54,69,44
96,174,44,99,193,45,65,47
94,180,41,80,161,39,74,48
107,191,42,77,139,39,89,66
109,272,39,80,138,36,93,68
114,490,39,75,143,43,103,66
107,570,35,76,135,43,102,62
113,622,38,69,140,51,126,66
93,648,42,83,142,57,143,49
93,628,49,85,163,60,143,54
91,498,53,95,166,61,143,58
117,433,54,96,173,63,144,64
115,370,50,116,186,63,132,62
116,330,51,113,190,59,107,65
140,338,48,120,185,55,115,61
181,327,51,143,255,58,108,66
199,295,59,153,302,74,125,86
204,293,66,212,369,83,123,85
251,326,70,245,391,100,140,95
306,308,71,291,476,116,131,100
311,308,75,299,461,120,130,96
299,317,69,295,435,126,140,90
308,322,62,253,387,126,134,94
322,275,59,285,415,123,121,94
260,289,64,254,348,112,127,88
250,295,61,237,344,133,160,93
260,321,73,269,375,131,141,92
298,297,78,283,388,127,148,89
265,314,77,229,364,125,157,84
281,320,71,210,338,139,161,89
272,307,67,214,343,132,131,85
295,270,57,190,341,136,131,87
264,269,53,178,324,134,120,90
250,255,51,174,300,137,125,95
230,231,50,180,287,126,121,99
227,242,50,167,260,108,118,100
172,255,51,155,239,91,117,90
156,253,50,135,214,91,122,85
183,278,49,115,191,84,103,75
203,317,50,141,265,99,97,67
242,324,53,150,272,99,100,65
242,304,51,138,242,97,103,59
245,315,50,143,250,95,100,64
234,294,49,147,255,100,114,86
225,268,47,111,170,82,115,89
217,248,49,120,184,81,123,99
223,256,45,126,195,85,129,104
213,247,49,134,197,106,150,113
233,303,47,134,192,103,137,97
244,302,50,181,237,111,140,100
209,326,56,196,259,118,133,99
235,337,63,202,280,126,144,109
237,357,65,211,300,129,124,100
220,332,70,229,310,128,128,107
217,319,72,213,295,123,123,104
260,436,63,201,259,131,145,101
249,613,57,216,280,133,131,99
323,695,67,204,278,123,138,102
426,723,77,184,290,128,132,104
453,743,82,160,293,152,144,108
429,686,84,137,304,165,123,101
428,543,86,93,260,161,118,96
382,448,79,83,239,154,100,105
252,388,66,113,251,147,104,99
195,369,65,124,250,153,97,105
237,341,67,135,245,138,92,113
234,345,66,143,257,138,123,122
233,318,65,144,269,139,129,111
241,363,68,117,243,199,176,126
242,350,58,122,273,190,178,128
265,341,62,137,317,184,178,123
277,329,62,134,326,188,163,119
267,330,57,130,316,212,174,124
269,308,53,130,314,160,130,110
286,335,70,164,373,145,128,99
257,339,67,161,373,167,132,97
240,426,65,156,356,172,127,94
253,681,68,161,375,148,116,95
267,722,68,167,396,147,111,98
260,744,56,120,310,153,109,100
234,764,53,95,254,140,107,100
234,741,57,116,258,132,116,95
217,547,64,126,235,122,110,96
206,474,70,146,252,132,126,95
193,428,70,151,263,125,136,89
230,411,71,160,274,110,148,89
236,375,74,157,300,120,161,94
242,347,79,151,302,132,168,92
232,340,71,132,253,124,157,89
240,331,69,146,264,119,150,96
235,354,70,142,248,129,150,117
228,344,66,126,210,114,156,120
234,349,57,126,216,113,174,136
263,368,62,121,240,122,179,139
278,393,64,118,217,131,179,137
282,364,71,119,233,125,178,124
292,368,71,139,247,128,154,126
446,427,87,136,296,164,242,261
521,621,105,137,298,169,300,303
522,624,101,117,295,166,304,305
563,650,99,114,295,174,324,317
563,654,100,122,302,196,367,327
480,619,90,132,259,179,395,229
443,456,67,133,275,173,368,178
447,461,71,140,286,174,370,186
405,623,68,137,275,177,361,175
411,626,74,140,291,154,342,161
377,610,68,157,392,160,251,157
304,587,79,182,401,160,229,148
271,596,78,182,402,168,216,134
232,465,81,187,424,164,212,119
253,455,80,170,406,159,204,112
253,456,80,147,329,154,181,114
260,456,70,117,293,149,179,114
264,426,69,114,282,146,220,115
270,331,71,114,294,155,264,117
232,339,66,119,301,172,253,120
224,347,65,130,279,158,254,112
271,413,75,142,342,178,263,128
271,421,72,146,343,181,240,131
283,428,66,140,326,170,171,133
309,426,66,128,317,154,160,120
319,458,68,118,312,154,152,127
270,397,56,144,283,125,151,108
283,375,58,159,316,110,147,122
258,403,59,165,315,110,146,122
223,395,55,172,333,128,144,118
239,364,53,178,338,123,163,114
268,380,55,157,306,140,158,131
247,383,57,158,299,165,153,118
269,384,59,151,284,154,164,124
284,392,76,149,286,156,187,138
277,435,76,140,276,172,177,137
290,459,88,126,271,168,203,142
292,445,84,114,233,148,202,141
284,443,90,141,254,165,203,138
281,448,83,142,219,154,178,135
258,423,82,146,240,147,179,132
266,430,74,140,225,151,148,123
312,462,85,207,350,188,149,130
331,448,95,212,357,186,179,148
325,503,91,209,361,190,186,140
345,486,93,203,359,198,236,180
303,446,88,207,362,196,233,175
253,428,79,130,239,166,241,173
246,413,57,104,225,172,215,164
267,325,63,118,262,174,207,167
248,335,57,123,253,158,143,128
249,361,59,120,257,152,162,129
246,387,55,126,284,154,160,129
214,416,54,124,262,138,154,118
255,436,57,115,236,136,166,117
246,438,58,124,238,138,167,115
240,435,64,135,287,141,145,104
248,406,70,139,276,134,128,100
252,402,69,147,271,139,125,101
196,393,62,150,282,141,127,113
194,372,59,138,283,146,129,114
194,337,51,125,231,150,124,119
200,345,50,122,223,156,138,121
190,360,55,108,244,164,153,120
195,373,59,110,273,164,181,119
221,421,60,118,257,164,177,123
230,438,60,120,266,168,187,125
212,446,55,102,289,160,179,125
238,431,48,117,275,149,172,130
245,406,49,110,232,142,146,136
217,364,50,111,232,143,156,133
213,395,56,117,230,139,144,126
228,413,59,161,249,147,142,128
204,386,58,147,250,143,161,124
157,405,57,153,264,145,156,120
167,399,56,156,281,145,146,116
257,410,54,156,284,133,145,124
271,421,60,161,265,125,156,118
271,434,69,220,305,142,151,114
277,417,76,257,321,149,140,109
281,445,77,289,356,145,156,123
247,409,75,301,350,148,159,122
242,372,69,279,329,147,153,125
269,391,65,238,308,136,178,151
286,429,55,227,304,124,179,144
302,427,73,182,282,131,178,155
261,428,78,162,289,131,179,149
245,477,77,170,306,123,209,161
225,464,75,194,350,206,202,152
210,434,76,156,320,211,204,170
190,442,63,156,311,210,213,161
190,444,59,160,305,208,230,172
206,395,65,184,328,239,216,166
204,399,63,171,280,169,207,152
191,394,63,194,297,168,204,130
181,373,64,196,312,172,187,132
189,369,69,201,354,180,193,134
160,378,62,171,326,141,173,123
143,380,66,153,332,142,169,139
148,382,64,119,328,141,169,142
152,381,60,121,312,133,163,131
157,406,50,98,264,119,128,123
173,407,55,110,281,124,137,121
223,391,59,123,265,117,131,128
227,388,57,139,284,108,127,124
235,438,60,139,272,118,134,137
241,422,62,155,283,117,141,146
243,417,60,143,263,121,155,153
219,425,55,133,256,124,139,132
230,456,68,119,243,125,160,151
237,423,65,103,231,107,174,143
256,420,64,83,215,109,168,147
257,437,61,79,201,103,148,144
247,435,60,148,239,101,166,143
230,420,49,156,217,100,151,129
224,413,51,157,221,113,133,126
199,396,52,160,227,135,137,111
185,401,53,161,239,141,135,103
181,404,54,100,190,146,118,113
211,408,52,83,195,153,138,131
214,452,50,91,216,174,150,135
220,452,46,78,205,179,149,137
226,424,45,76,200,176,167,150
230,467,43,102,232,184,168,147
228,456,42,110,250,198,157,127
219,394,47,114,233,173,145,119
212,480,47,117,237,162,149,110
201,482,47,121,228,152,136,96
192,436,45,100,198,137,143,90
170,434,45,91,171,121,134,90
182,416,40,74,159,125,142,96
168,318,43,76,152,107,153,107
182,317,45,76,183,127,144,113
182,296,46,75,198,141,129,115
185,310,44,79,204,129,137,117
163,342,45,81,224,145,139,117
197,374,46,76,226,160,149,141
182,382,45,74,200,152,163,136
194,389,43,86,184,142,160,135
186,381,47,82,180,183,153,137
242,385,54,80,176,172,145,146
217,339,54,81,181,161,122,109
226,351,54,79,222,190,156,125
218,355,55,71,235,204,161,131
219,370,54,78,237,169,165,128
216,431,48,86,227,169,181,125
215,434,49,96,226,175,186,130
213,399,49,115,196,138,151,128
202,411,53,110,197,127,148,118
225,417,57,100,190,127,142,118
170,376,54,101,206,166,132,111
171,391,52,117,250,185,147,115
165,408,50,98,249,184,139,107
180,429,44,97,242,205,139,112
144,426,39,101,238,224,163,120
144,396,43,100,241,198,153,122
