152,369,585,254,159,114,71,75
154,383,610,262,153,126,75,75
185,388,618,290,165,129,82,83
190,431,622,307,159,124,80,87
197,427,573,295,153,132,86,93
195,415,592,275,146,136,86,91
215,470,623,305,162,133,79,91
224,459,609,269,141,131,78,99
217,444,588,271,143,154,81,94
213,434,598,277,163,142,74,89
220,429,625,306,190,143,73,92
215,385,601,335,185,139,84,103
189,387,602,360,204,147,83,90
189,356,575,361,210,124,77,90
189,356,555,380,203,129,79,91
182,385,579,377,195,128,82,90
200,449,635,349,181,127,77,88
220,491,616,340,161,111,76,99
222,489,623,350,156,114,79,104
232,526,701,357,148,117,86,116
260,553,665,356,144,121,93,129
229,482,633,323,144,115,85,118
211,436,746,324,147,117,81,110
215,482,743,327,149,106,88,119
230,489,704,312,162,105,85,115
196,438,695,292,139,99,73,97
215,441,683,297,139,96,78,100
205,423,536,313,158,114,82,101
238,400,518,359,200,139,88,108
229,423,523,366,217,152,92,109
229,424,494,370,219,149,93,110
259,488,562,420,245,156,106,138
268,518,602,396,230,147,107,142
273,544,621,374,200,128,99,134
270,503,581,362,177,109,93,129
275,518,633,363,187,112,95,131
232,463,544,294,161,117,77,100
242,473,500,329,171,123,74,95
199,441,515,298,159,123,70,84
207,420,532,289,152,121,68,86
203,402,499,293,158,134,67,81
199,419,516,304,156,121,65,78
190,431,567,282,148,117,70,80
180,415,542,264,146,120,71,80
175,447,573,330,158,126,77,81
193,461,576,342,190,129,93,96
229,524,607,361,208,143,101,112
217,469,547,335,199,132,94,106
217,491,596,352,203,132,94,105
213,522,587,295,193,130,95,105
214,531,566,281,142,126,84,95
202,450,539,243,107,109,75,82
203,462,557,264,124,128,89,95
217,470,478,262,123,129,92,110
219,435,467,309,134,140,94,112
228,452,504,318,152,130,88,118
227,536,629,355,167,156,99,125
224,538,670,351,182,171,94,118
213,513,682,363,184,171,91,108
205,530,696,349,184,162,90,104
183,539,709,358,175,162,90,97
162,520,684,367,172,148,82,89
175,562,756,381,167,130,87,104
214,692,908,517,207,140,100,120
246,687,924,533,216,157,106,131
245,689,951,561,229,160,109,135
265,703,919,579,244,152,109,138
285,687,896,597,238,141,98,130
281,604,759,499,203,131,94,125
263,643,816,552,204,129,91,120
284,651,833,541,193,133,100,132
274,611,863,516,166,138,107,141
255,621,877,505,165,157,109,136
241,645,956,520,168,153,108,141
248,644,907,470,175,139,108,147
221,600,870,439,182,132,104,143
209,652,904,439,186,120,97,133
214,630,882,433,186,102,101,135
222,602,844,478,232,131,105,134
220,578,885,454,218,138,109,130
217,629,904,474,220,144,106,121
229,598,901,496,244,155,111,129
215,608,858,493,248,153,107,126
203,619,855,410,217,138,103,120
262,709,961,533,236,148,113,138
266,674,959,528,227,150,113,137
268,654,953,531,213,145,111,134
271,662,1028,558,205,150,120,144
302,704,1015,582,207,156,122,147
277,663,887,505,212,173,124,146
274,654,845,500,223,167,123,146
288,677,857,572,250,183,139,158
295,737,768,559,259,188,145,162
286,683,774,542,269,189,147,168
250,599,831,597,272,181,143,157
258,633,903,643,274,194,155,166
278,689,896,581,249,182,150,169
294,624,963,619,283,210,175,189
268,588,939,610,266,206,174,181
279,605,890,564,250,201,173,185
286,580,855,532,255,194,170,185
249,483,851,540,263,198,160,170
268,616,943,571,250,175,137,164
295,671,971,623,277,196,147,184
319,779,1032,647,294,212,165,198
314,794,1038,652,292,215,167,201
330,880,1090,681,295,214,181,216
301,816,1031,663,307,208,171,201
307,822,1032,684,300,189,180,207
298,745,948,648,292,159,163,198
301,746,965,632,291,161,163,199
318,747,963,670,330,221,177,214
314,718,919,655,329,235,182,214
285,665,966,607,349,248,172,199
260,634,957,589,333,247,169,189
318,727,1013,649,387,260,180,204
301,668,925,628,351,220,163,181
299,680,992,611,324,200,157,175
289,683,938,614,301,187,147,164
309,715,966,622,306,189,145,167
247,600,904,590,237,170,122,145
216,535,919,534,237,162,106,130
256,602,898,561,244,166,110,142
291,654,946,611,256,211,143,174
263,628,925,601,258,219,135,163
261,672,892,573,273,228,145,167
277,687,875,635,271,225,146,170
275,654,853,637,293,247,160,186
277,641,835,624,285,223,149,175
297,678,855,653,287,214,157,188
316,699,941,679,283,204,156,191
329,787,978,669,315,243,173,204
325,781,958,699,334,240,177,203
355,835,1047,724,340,234,185,217
381,842,1070,731,374,249,205,241
395,861,1049,755,382,250,209,248
392,772,1018,707,368,240,215,254
408,795,1008,699,348,228,217,266
394,792,894,672,355,235,209,257
358,774,960,660,326,230,188,229
340,723,912,596,314,221,183,218
344,753,914,637,331,215,180,220
319,720,963,616,340,236,166,196
320,726,1010,604,350,233,167,198
361,772,963,690,368,257,187,215
362,774,1018,697,350,256,185,216
394,748,987,657,310,242,177,211
410,766,976,729,321,227,180,213
389,663,907,687,285,216,168,197
382,700,958,611,286,180,160,198
386,709,891,648,303,191,163,189
332,692,904,682,332,193,166,179
295,641,835,575,302,172,160,167
321,704,837,606,310,174,163,176
321,663,792,663,346,196,168,179
318,622,785,629,339,226,184,196
345,672,830,651,339,230,188,210
368,706,861,661,345,248,190,213
373,669,892,759,360,247,195,215
382,608,865,723,315,237,193,217
373,629,885,756,320,208,181,212
405,609,864,729,309,210,186,215
386,580,805,714,287,191,185,206
385,581,784,595,248,185,182,208
396,708,840,628,296,213,190,214
430,738,865,642,385,222,201,224
400,713,833,687,411,221,195,217
407,727,871,724,442,237,206,234
366,685,830,720,453,251,198,216
304,532,741,657,416,218,174,185
244,452,694,628,355,239,153,163
222,537,744,539,309,230,147,153
207,546,745,467,268,210,120,128
210,574,782,474,263,209,120,130
234,567,777,508,250,214,139,153
226,597,750,454,209,172,129,145
242,605,785,469,226,185,123,141
253,605,788,454,211,186,121,140
285,644,759,463,236,191,134,161
272,634,726,385,230,196,113,140
276,602,706,391,235,194,117,142
253,572,667,370,227,178,124,145
298,567,683,412,236,181,125,151
282,504,692,386,215,163,107,124
296,497,703,410,218,165,132,144
343,645,880,461,227,168,150,179
343,608,880,467,250,198,147,181
292,588,862,479,270,200,151,178
289,629,881,487,274,237,158,185
269,634,867,486,280,234,139,171
193,476,741,438,271,235,117,134
172,450,687,467,258,225,107,119
163,424,619,442,249,223,102,112
206,385,578,489,244,186,98,114
206,387,627,512,244,180,97,116
223,447,591,521,252,171,100,116
236,470,654,492,244,173,117,127
232,453,666,471,243,177,116,122
198,464,703,417,233,175,128,127
208,460,663,373,228,176,131,128
200,408,732,425,227,190,136,132
217,435,682,414,224,172,121,125
223,468,693,422,205,164,125,132
203,480,676,427,196,151,109,120
198,479,713,453,209,152,115,126
189,479,619,410,188,129,102,119
178,442,572,395,177,125,99,113
167,417,595,396,175,119,88,104
189,436,552,387,189,131,99,116
203,487,648,411,178,137,94,110
205,492,680,404,176,136,96,109
177,461,688,488,176,134,104,109
193,497,705,663,264,156,112,117
196,454,758,662,253,144,102,106
187,431,796,694,270,142,103,109
221,496,842,689,286,165,115,130
222,503,840,635,280,162,104,126
211,493,810,510,221,144,100,120
189,494,769,576,240,145,102,119
176,468,622,514,214,130,93,109
143,418,642,555,223,103,77,88
146,427,693,572,234,106,76,89
176,479,750,526,219,116,79,97
175,477,795,435,194,114,74,93
175,492,850,437,195,114,80,95
177,454,787,392,174,127,97,105
213,522,778,442,201,137,108,123
204,440,742,436,195,132,116,136
209,444,712,496,240,165,124,139
255,521,693,563,275,184,144,165
259,542,716,562,272,180,139,164
243,502,749,566,260,181,141,161
238,536,810,593,279,189,143,156
232,531,854,566,254,165,134,152
202,493,813,496,230,162,126,135
194,509,781,545,239,158,124,129
188,532,788,534,243,154,117,122
197,505,721,498,250,153,110,119
211,492,633,501,254,159,119,129
214,497,698,523,270,159,109,128
227,531,741,524,272,165,115,141
220,499,717,457,248,157,110,135
206,501,723,497,241,155,109,130
196,506,772,506,237,156,113,130
173,457,753,504,214,133,107,120
161,466,769,470,209,128,101,111
169,461,764,508,217,144,113,126
170,484,802,522,209,147,114,126
185,541,760,506,227,154,120,137
192,541,706,482,227,159,120,138
206,504,664,453,228,172,127,144
209,501,739,455,237,183,141,148
287,528,728,456,257,188,158,183
280,493,764,471,229,181,148,171
312,638,893,537,219,182,148,176
307,619,896,544,236,199,150,174
319,693,822,553,237,179,133,170
270,693,814,520,213,176,119,146
301,731,911,548,244,189,132,169
339,658,898,555,304,223,173,219
366,673,908,643,344,250,204,253
416,683,964,676,412,287,229,283
467,772,1005,761,428,287,249,309
502,856,1019,859,491,375,315,357
516,842,996,880,480,368,314,356
523,876,1008,854,473,352,297,342
492,811,967,807,409,328,278,314
495,803,980,709,394,336,274,306
464,683,919,567,299,225,191,241
458,732,936,497,284,220,188,223
529,735,892,520,333,261,244,281
539,762,880,530,349,259,251,289
501,704,838,559,352,248,239,276
508,693,821,597,376,265,246,287
480,652,806,594,373,262,228,268
379,657,891,573,290,200,161,200
339,670,979,580,278,192,152,190
356,724,1065,627,294,205,174,200
374,785,1059,661,293,188,166,198
352,783,1035,650,283,175,166,199
426,788,997,621,283,170,156,192
450,779,994,635,301,209,219,259
442,693,912,627,350,212,203,257
452,679,953,609,342,210,213,271
480,641,942,614,360,216,219,280
459,627,947,685,404,240,248,314
461,591,926,651,393,215,202,269
489,661,929,679,390,267,239,301
467,606,879,653,376,260,220,275
464,620,860,632,355,261,218,273
486,637,961,590,303,239,190,232
499,659,949,603,305,240,196,248
480,653,996,518,218,154,147,198
506,744,1068,512,224,174,169,211
510,789,1143,583,296,222,206,236
464,750,1062,628,358,272,258,290
452,792,1083,689,395,305,270,293
463,736,1034,725,466,354,315,331
425,680,1019,765,512,393,339,355
429,656,991,799,527,407,355,374
479,706,1050,762,499,387,326,347
509,693,1015,801,525,395,346,369
499,773,1012,809,496,373,313,343
500,791,1011,783,460,338,283,319
466,790,993,729,432,301,245,283
463,864,1019,795,504,348,279,322
549,945,1081,768,456,327,263,335
576,921,1084,796,478,331,284,354
569,917,1053,755,465,328,284,352
605,950,1095,789,467,334,298,378
550,843,1132,721,396,303,269,342
433,762,1089,656,403,290,241,292
479,820,1125,721,448,326,271,328
465,777,1098,737,455,322,269,326
436,729,1072,737,452,322,256,302
442,701,915,700,437,289,248,296
434,659,948,726,436,296,251,291
313,562,878,619,365,252,191,227
367,607,906,655,375,266,217,255
368,579,837,557,338,237,198,231
377,616,893,560,339,238,204,237
385,640,788,574,332,233,230,259
382,646,803,522,299,214,226,243
338,605,743,435,279,185,195,205
321,670,790,468,295,200,206,213
335,658,741,457,281,194,191,197
341,645,770,373,254,165,156,172
337,637,787,369,269,227,150,174
399,628,852,461,305,264,185,218
409,608,805,446,291,255,174,207
381,619,783,443,290,254,171,202
390,601,764,465,307,300,197,213
379,552,720,449,272,250,201,208
334,600,738,386,235,223,196,191
313,526,725,403,248,226,197,190
361,576,775,392,269,259,213,206
333,621,803,395,249,209,185,189
344,693,786,403,248,205,178,185
395,780,766,458,269,218,173,196
384,773,773,462,259,214,171,197
353,739,726,491,281,207,171,202
354,711,788,523,335,218,180,209
351,655,788,513,333,209,169,203
262,527,774,458,314,182,142,167
289,605,786,421,315,194,142,163
267,581,791,388,311,193,127,142
262,567,754,346,281,194,121,133
251,560,736,348,277,198,120,130
279,583,785,395,274,202,123,134
273,565,788,485,295,206,140,153
339,594,831,598,326,218,180,199
335,597,788,598,308,207,172,190
377,630,839,625,319,212,196,219
355,589,718,577,303,207,192,213
368,573,696,526,289,201,187,209
305,577,693,399,208,157,149,169
281,556,695,373,202,151,146,164
237,527,689,374,209,147,122,141
234,548,706,396,226,146,125,148
220,607,815,388,238,179,114,143
237,566,815,408,258,193,121,153
254,593,849,436,255,196,129,164
245,575,904,454,263,211,134,155
298,553,882,439,250,208,135,156
291,457,840,446,225,182,143,157
302,500,863,460,234,190,152,165
303,452,786,409,222,190,145,157
309,458,704,400,219,176,153,181
266,437,719,422,247,188,172,194
258,463,710,428,280,202,181,203
231,443,661,404,264,184,168,187
220,474,693,441,287,186,169,188
296,514,776,436,276,186,156,170
317,557,817,418,272,200,149,164
308,553,819,406,241,179,123,137
314,571,877,473,258,185,125,141
345,588,904,483,251,194,141,154
279,555,824,464,249,196,135,146
267,539,844,477,238,175,118,136
310,552,878,568,287,214,175,194
336,535,863,559,294,223,178,205
366,609,860,559,297,217,179,210
402,609,833,543,312,216,186,219
414,592,842,555,339,220,195,227
431,563,738,473,302,181,160,203
434,562,744,406,296,170,171,198
394,475,704,361,294,172,164,183
363,481,743,375,286,178,160,180
344,467,693,339,264,195,154,161
289,474,695,297,262,200,148,141
265,458,579,276,257,218,143,136
262,445,606,300,246,209,129,128
296,441,615,285,247,196,128,125
334,496,592,265,240,189,121,134
335,506,618,252,227,182,111,123
320,491,697,260,208,168,89,111
328,483,676,230,192,160,99,123
294,521,731,280,208,187,110,122
249,510,814,301,200,174,119,121
284,574,833,351,227,181,129,135
298,569,797,402,229,187,138,153
323,620,890,446,270,219,149,170
390,613,809,441,275,230,159,187
413,688,770,450,297,245,174,212
401,638,754,460,304,276,190,218
415,693,793,487,338,275,207,233
457,677,807,498,328,255,201,230
427,698,865,517,329,253,207,238
410,590,821,515,325,246,194,217
430,607,865,501,328,225,182,218
457,580,813,454,284,210,159,196
395,534,735,467,292,220,164,191
406,517,761,485,288,207,149,182
406,518,811,514,306,237,194,220
363,452,732,493,296,223,197,210
312,464,748,472,291,217,193,207
299,467,701,392,265,208,188,198
258,400,638,304,235,212,194,184
233,383,553,211,207,203,163,130
255,410,552,196,218,249,162,126
272,355,493,166,221,251,159,145
274,323,445,165,213,250,158,169
254,329,353,148,210,254,135,175
295,335,360,137,177,236,130,190
321,315,342,125,157,208,127,197
346,363,392,164,159,218,128,190
375,409,419,177,183,257,138,183
381,429,491,206,198,245,142,178
381,522,551,234,203,243,137,178
389,649,761,365,216,239,144,197
363,653,826,424,221,247,159,196
408,833,931,502,282,257,207,251
456,874,1050,614,291,267,250,310
503,878,1069,688,370,328,310,369
509,881,1006,672,364,320,314,371
517,897,1010,667,378,326,319,380
459,756,937,621,339,303,286,342
496,827,918,637,367,317,300,346
451,858,940,623,326,255,246,289
425,798,897,612,327,258,250,282
421,808,891,615,351,278,254,278
453,842,958,690,379,274,266,289
373,784,907,642,374,288,213,228
364,739,872,598,354,283,202,215
357,741,930,614,362,280,196,222
386,764,955,643,347,250,194,230
377,725,905,601,356,262,189,232
369,690,904,591,328,216,191,229
350,679,930,579,337,255,193,223
388,637,858,580,344,270,211,239
383,616,898,577,361,270,207,239
397,687,941,617,341,274,215,248
453,702,941,644,436,342,284,321
458,722,926,649,429,315,284,328
440,758,966,635,417,297,260,307
400,713,887,600,407,296,254,291
385,695,868,554,401,271,241,280
386,735,912,571,334,185,178,227
474,833,1039,713,385,232,221,281
472,879,1084,742,423,266,244,293
480,946,1082,739,406,266,241,303
488,912,1104,774,445,318,281,325
435,893,1115,749,431,332,277,303
354,849,1057,658,407,348,269,263
349,837,1028,642,388,344,263,256
349,786,1040,622,381,340,260,244
323,788,1007,609,369,302,229,239
307,760,940,561,399,330,231,243
291,705,910,583,383,299,215,246
258,640,840,548,359,280,201,236
262,657,918,631,390,292,219,246
325,723,1031,745,398,317,254,280
356,723,997,748,352,267,253,278
365,750,974,711,351,249,241,269
446,844,1017,779,382,260,259,309
499,930,1056,830,414,283,273,338
506,925,925,691,369,282,264,325
512,943,918,675,363,307,278,325
508,916,929,678,362,314,282,323
437,836,948,607,327,308,260,280
385,735,795,488,263,282,235,244
309,691,978,538,275,274,206,198
275,687,1041,565,300,261,184,195
283,691,1057,610,324,296,200,218
294,711,1038,618,341,324,228,237
311,705,1033,666,385,347,255,270
368,748,934,685,398,347,274,302
394,693,895,681,407,349,277,315
377,672,863,617,374,317,262,301
414,729,884,675,400,305,269,321
424,711,869,614,384,298,267,317
378,649,768,532,355,275,236,281
370,681,738,528,331,262,224,264
408,682,796,550,356,260,224,267
472,654,811,554,396,274,237,291
498,723,934,604,424,294,250,294
511,755,1042,659,438,301,258,305
504,771,1048,643,427,288,252,299
506,810,1044,665,428,291,258,311
420,760,987,573,355,309,223,255
361,701,963,566,327,335,245,251
360,669,879,556,337,340,250,248
379,687,877,596,373,367,275,271
362,665,891,622,395,403,286,266
358,690,905,632,387,370,283,270
352,736,876,591,351,305,221,229
325,722,843,543,330,308,220,215
301,682,853,532,292,285,192,192
302,660,789,500,267,239,177,183
331,622,745,498,268,229,180,194
312,614,828,532,269,226,181,193
318,598,840,523,248,198,160,190
313,578,810,472,239,184,160,189
285,540,795,407,198,150,139,166
234,533,826,390,189,147,125,141
289,549,848,433,223,158,142,170
310,622,906,464,239,155,148,178
310,619,911,488,257,156,151,181
364,730,969,568,312,207,193,227
401,759,1007,587,328,221,203,243
413,713,902,574,327,232,223,263
432,716,974,610,344,264,261,302
431,726,975,603,348,283,267,302
375,671,927,547,298,248,235,267
342,662,865,529,287,236,225,252
294,647,931,455,270,231,195,213
249,605,854,386,267,206,138,147
254,620,940,443,275,194,136,153
299,631,991,534,298,203,161,187
301,618,1054,590,317,208,170,193
340,666,1052,620,325,210,192,220
321,619,1028,618,297,189,192,217
306,608,1019,587,271,168,178,202
291,554,967,515,298,223,178,190
288,530,927,445,268,217,169,184
245,484,928,393,246,212,141,155
267,561,980,446,278,242,148,165
271,558,892,452,285,254,154,168
257,565,860,440,240,198,134,156
252,583,867,448,236,193,136,157
303,612,841,516,283,215,163,194
295,551,722,452,250,181,155,185
301,582,746,427,244,172,154,186
292,575,754,402,243,185,153,182
290,563,691,402,249,183,148,176
209,468,585,337,213,147,113,121
203,473,605,345,221,161,117,124
231,467,619,370,218,153,117,130
228,452,628,364,206,136,115,129
220,430,622,355,208,144,115,127
236,473,654,313,192,145,111,126
259,491,713,346,212,149,120,141
221,429,701,310,226,165,119,135
210,417,695,298,223,175,118,131
249,511,766,354,231,182,141,164
229,472,761,353,229,175,144,160
196,478,723,324,200,165,126,140
208,506,709,379,259,185,151,157
238,572,720,408,269,181,165,176
208,517,675,400,283,183,152,158
221,516,661,468,294,192,155,163
225,482,643,453,298,188,154,161
244,462,660,467,296,205,151,170
251,475,656,502,317,215,148,170
243,442,618,464,291,203,142,162
246,451,592,391,276,197,142,160
241,450,618,402,274,196,145,161
214,443,622,345,211,142,123,135
179,363,677,280,163,120,114,114
180,401,737,337,192,157,124,124
158,398,792,386,199,162,123,128
160,418,774,393,207,174,129,133
174,399,770,398,215,180,133,134
191,417,716,428,256,211,157,163
199,430,737,444,243,191,158,166
203,440,706,463,247,187,161,169
196,419,693,451,241,190,163,167
185,434,703,441,228,180,151,158
161,406,722,399,180,138,118,121
200,430,753,390,211,156,136,143
197,410,767,308,191,157,130,129
196,408,765,308,184,137,117,123
184,384,735,293,185,143,120,123
181,398,710,301,206,154,139,139
137,363,691,239,165,122,107,96
132,354,630,239,158,113,96,89
134,362,630,256,170,108,96,89
148,404,656,270,179,114,102,95
173,434,666,258,171,110,89,90
231,454,607,314,214,143,106,114
248,465,673,387,231,149,130,145
251,458,704,431,246,161,141,155
299,512,717,452,254,165,141,157
293,493,697,451,246,157,138,156
239,463,679,403,205,129,125,139
227,482,715,374,199,130,100,110
225,486,678,322,169,115,86,98
159,423,677,302,157,105,86,99
177,404,705,311,142,98,80,89
213,471,761,407,168,107,108,120
219,517,759,430,180,108,123,135
213,525,801,454,193,113,124,135
227,594,862,499,205,112,122,137
213,619,814,490,208,119,120,134
177,570,759,421,193,111,99,111
174,506,660,357,164,99,81,92
197,513,681,362,172,107,89,106
185,402,544,279,141,101,85,99
187,353,560,285,146,98,87,104
196,336,553,298,151,102,90,110
186,373,593,316,159,110,92,110
195,416,575,278,141,103,88,112
195,447,638,305,149,110,96,115
196,513,725,314,143,106,93,113
194,569,764,316,157,112,89,109
210,597,828,341,171,129,93,115
186,571,858,348,178,139,102,115
170,554,903,330,177,133,95,111
164,493,844,316,192,146,106,113
178,470,888,312,176,140,105,117
162,411,839,261,159,123,101,111
174,484,867,352,180,126,105,119
178,494,798,359,182,127,110,123
197,505,807,366,171,122,104,125
206,486,743,368,172,124,107,126
203,464,752,386,167,122,104,124
191,385,674,300,133,105,86,104
196,397,757,297,137,118,87,106
213,417,742,299,130,104,83,97
200,406,735,283,129,108,77,88
210,431,709,271,138,107,82,94
214,454,744,259,140,118,96,101
215,493,732,289,135,103,91,98
205,476,772,274,130,103,89,100
206,457,751,278,136,99,100,104
206,444,746,278,134,97,94,100
213,422,739,286,136,90,79,95
226,389,668,236,136,91,76,91
231,411,691,233,143,107,74,84
230,427,698,228,136,108,63,85
240,442,719,244,148,115,78,95
226,427,655,251,166,112,76,88
247,386,637,246,174,127,78,87
237,365,546,252,177,118,81,99
238,350,526,245,173,115,77,96
242,318,494,247,178,129,80,98
264,357,512,249,165,131,84,112
243,402,533,289,159,127,95,125
219,373,527,274,150,125,94,115
222,417,558,286,148,122,96,117
197,421,528,261,122,95,82,106
186,375,573,252,115,93,76,88
225,398,593,285,144,105,95,119
265,494,718,332,161,112,110,138
259,465,712,336,174,120,117,141
266,460,701,342,178,123,117,139
259,471,642,340,188,133,118,140
222,414,628,282,161,120,95,106
176,298,492,239,157,120,88,93
182,297,482,236,153,130,81,86
173,295,489,219,148,127,81,88
175,348,531,196,134,126,86,98
160,348,566,210,134,121,82,90
203,366,649,242,145,122,82,93
200,360,655,219,133,104,77,92
220,401,666,231,146,108,88,104
290,357,677,252,157,97,85,101
310,366,669,250,170,107,97,118
291,353,578,215,152,95,85,110
290,396,612,291,170,97,88,112
290,367,660,341,191,106,86,108
239,383,625,338,204,109,91,112
226,411,642,341,207,109,85,99
217,417,648,338,220,119,86,100
233,383,617,286,215,118,84,96
227,411,574,218,190,112,78,88
205,393,593,216,165,105,67,74
229,406,554,224,161,103,71,79
260,420,560,244,157,108,78,82
263,462,573,261,146,108,82,89
259,488,634,266,143,106,81,90
257,490,610,256,149,115,88,99
260,456,584,240,137,120,82,93
223,438,561,218,117,108,71,87
206,420,621,272,166,134,92,101
204,365,550,279,181,135,96,109
222,356,511,274,180,130,96,109
177,333,502,270,176,118,93,106
176,311,520,271,176,120,98,110
184,278,405,219,147,94,83,101
185,269,392,208,135,93,80,96
201,290,435,230,150,130,87,102
200,285,416,236,164,148,87,100
259,360,425,260,170,146,90,109
281,375,452,240,153,140,82,103
310,450,504,282,192,152,96,125
290,439,561,271,173,122,91,121
302,478,621,272,179,106,91,123
296,550,748,329,205,134,99,131
266,587,821,346,213,136,100,129
240,555,866,338,200,128,100,126
308,583,847,350,203,128,97,122
307,602,906,368,202,133,105,127
282,492,807,303,172,110,94,110
290,444,803,317,180,115,105,121
291,432,788,308,163,109,91,101
218,391,774,286,160,105,87,96
220,365,720,297,160,96,87,101
216,422,855,320,159,88,86,103
241,532,845,309,151,84,91,108
279,528,840,311,161,83,93,112
286,553,921,342,164,92,103,124
282,581,1019,386,181,113,111,124
301,604,950,401,199,125,123,141
291,527,915,417,207,130,117,138
266,633,909,418,211,133,120,146
259,627,895,425,225,131,123,148
254,583,731,358,198,117,112,141
235,586,740,340,189,116,107,138
239,605,783,358,210,121,114,149
239,523,815,401,220,130,129,159
242,540,784,393,217,131,125,155
235,549,855,431,248,137,130,158
231,515,792,422,253,142,128,154
247,474,739,396,229,133,124,148
228,459,656,378,210,122,114,138
226,428,627,378,204,138,112,136
231,426,590,337,166,133,114,134
270,455,665,378,181,135,126,145
258,477,822,402,201,161,139,154
258,522,852,361,192,161,130,146
265,586,909,365,190,158,141,157
261,601,918,361,191,155,135,157
249,611,946,351,188,171,144,162
232,613,845,373,184,150,131,149
311,650,898,480,248,202,193,218
324,632,885,520,273,216,197,223
367,689,951,602,300,232,210,236
400,744,944,636,309,225,214,243
402,757,932,612,305,234,210,239
352,706,931,585,282,204,169,190
331,677,892,557,268,184,154,175
343,658,824,501,264,193,164,191
306,690,865,518,280,201,146,174
309,683,851,514,277,191,152,181
303,683,812,476,268,185,140,172
314,709,794,458,264,192,150,174
270,708,839,483,264,185,146,157
284,591,765,393,215,162,140,148
273,564,765,382,203,158,131,137
278,547,762,357,193,163,136,138
287,529,798,386,204,175,134,150
269,443,721,293,170,150,103,125
211,402,691,272,162,141,95,114
236,430,757,258,168,150,96,115
232,464,842,276,157,131,88,109
248,526,846,298,151,112,83,103
302,596,868,409,201,147,125,158
316,611,872,438,236,183,140,169
307,646,794,445,247,186,139,170
312,662,719,454,271,203,156,183
278,591,654,423,270,196,158,175
225,593,600,345,245,180,137,141
204,573,563,305,213,145,123,127
187,513,614,291,199,136,124,127
215,479,502,253,158,113,100,105
215,507,598,244,130,116,90,96
206,432,583,208,111,99,80,85
252,511,611,286,148,114,99,116
341,606,607,306,147,117,107,137
324,611,652,304,152,117,106,140
323,577,650,293,148,106,100,138
328,582,671,331,179,125,102,138
325,582,706,311,160,109,87,125
284,552,792,377,180,121,105,138
275,511,768,376,187,137,115,141
271,510,713,370,203,144,117,142
263,503,724,346,178,129,115,142
252,478,677,310,174,134,115,139
239,398,542,216,157,128,91,109
236,395,543,203,142,120,79,97
266,426,534,250,154,131,104,128
266,424,558,264,166,136,107,130
334,492,665,349,205,159,132,157
302,511,697,380,207,157,135,155
307,537,777,395,213,149,136,160
290,556,803,379,201,136,121,141
287,587,759,378,190,131,121,142
201,506,656,303,173,127,106,114
204,493,617,294,179,127,103,116
248,605,585,347,197,138,119,141
261,599,542,343,198,140,118,142
266,581,582,340,211,145,119,138
241,561,633,341,192,123,105,127
252,559,667,309,191,136,107,122
212,401,626,244,169,123,89,96
186,350,631,267,158,118,84,85
236,408,705,334,213,163,118,143
241,397,648,327,212,163,123,146
262,363,589,326,215,161,122,156
249,364,592,342,221,164,123,151
267,421,591,324,226,170,130,160
231,440,544,291,175,134,105,117
249,450,556,298,178,134,98,119
209,478,566,290,160,115,94,106
220,487,675,307,172,120,94,111
205,479,699,315,171,111,86,102
234,398,631,266,159,104,75,96
217,409,678,319,163,113,81,97
217,407,677,336,172,118,85,100
225,452,625,322,172,113,83,101
225,435,569,314,179,120,86,105
203,456,627,347,185,118,97,113
233,452,582,302,177,113,98,113
250,466,673,320,173,105,96,121
253,432,675,330,171,114,104,128
277,531,797,352,170,109,107,138
272,502,742,325,165,109,98,132
254,525,814,347,168,106,104,141
260,561,783,326,168,116,113,142
284,558,746,293,151,108,104,135
256,449,636,250,132,105,99,121
247,462,634,243,121,95,99,120
263,448,599,269,149,117,103,127
255,390,553,285,153,119,103,122
207,351,519,293,168,122,103,117
233,343,540,294,172,129,106,122
235,340,558,298,177,136,110,125
220,367,586,259,152,120,106,115
208,367,576,217,154,115,97,107
226,403,641,213,156,126,97,106
247,505,726,253,169,133,101,115
261,557,727,301,185,134,101,124
246,556,704,303,194,136,102,121
249,570,686,316,200,139,101,124
267,578,689,365,212,144,120,155
235,516,729,370,200,129,112,146
252,502,787,373,198,146,136,167
259,506,805,373,194,146,137,171
251,464,857,378,180,139,137,170
289,502,853,338,167,131,126,158
342,589,807,468,214,166,166,206
325,553,738,440,198,146,148,187
320,516,688,436,192,143,139,177
319,528,651,445,198,151,149,183
285,552,665,450,181,139,144,176
220,475,590,293,128,98,101,117
213,472,676,320,149,100,98,113
206,466,653,319,145,93,98,111
209,481,642,295,134,84,83,99
210,418,577,277,140,98,83,93
213,366,573,315,187,130,87,100
215,378,581,303,184,137,87,95
242,376,568,297,191,142,88,100
260,426,717,346,213,154,105,125
238,405,742,372,218,151,111,127
227,439,834,335,184,132,111,126
226,472,814,322,173,124,107,129
220,487,875,332,178,127,111,135
247,576,904,390,193,123,116,150
233,574,918,380,190,119,110,147
249,574,899,387,179,106,102,143
273,600,862,394,186,122,115,155
282,619,851,448,222,143,136,174
254,529,728,391,222,171,148,172
285,561,720,404,240,184,159,191
273,548,629,397,248,189,161,191
276,501,662,383,243,181,157,185
261,505,726,304,204,161,134,160
251,455,733,260,164,112,100,131
221,456,754,235,132,85,76,97
239,479,844,276,134,91,80,103
234,459,822,295,138,85,83,107
268,534,818,320,150,113,99,128
260,525,783,326,152,127,111,130
330,522,740,339,179,158,138,164
336,532,649,315,188,166,145,168
334,560,690,343,227,183,150,172
297,456,596,337,222,171,140,159
330,515,641,356,240,180,141,167
297,536,633,334,225,172,129,155
270,508,704,339,212,159,117,146
266,520,764,352,181,163,119,143
276,528,777,344,171,159,119,141
252,546,822,387,169,145,116,138
231,534,922,406,183,135,109,124
242,562,897,409,181,136,118,138
228,534,849,381,173,115,117,133
247,553,873,406,193,129,137,155
291,501,874,408,196,132,140,164
292,444,777,381,183,122,136,159
288,384,755,365,180,117,125,145
284,400,717,342,170,110,120,147
288,431,717,376,198,135,125,157
246,425,655,325,177,132,117,143
220,445,678,354,179,140,124,144
211,473,672,361,187,142,126,148
302,520,664,428,208,150,130,164
288,458,639,368,170,131,107,133
275,489,685,379,168,127,101,128
283,478,636,359,161,123,100,130
298,518,781,363,158,126,104,135
220,524,924,315,149,121,91,106
224,524,896,301,142,107,85,100
288,602,930,374,187,126,103,137
293,614,954,383,186,121,100,137
288,582,886,382,189,126,94,129
276,558,818,394,180,124,92,129
269,608,901,437,183,124,96,138
255,587,890,357,145,114,84,117
246,615,984,343,150,120,82,112
250,647,995,378,158,131,96,125
270,706,956,370,168,128,99,134
282,701,945,338,172,138,106,140
241,655,890,352,183,139,110,139
243,641,793,379,195,142,111,142
257,632,748,355,207,134,108,139
272,577,853,409,213,150,125,155
250,534,838,416,212,146,124,150
241,552,893,412,203,146,120,140
245,593,884,387,187,141,124,144
223,575,870,366,164,130,117,135
198,543,780,285,144,114,105,116
204,579,812,302,150,107,102,118
261,632,804,320,162,111,103,135
277,631,818,323,175,119,110,145
303,626,788,333,179,120,117,154
307,622,741,326,178,122,113,151
302,617,691,288,174,128,116,149
258,548,700,253,154,114,110,131
233,485,730,248,142,105,99,113
194,499,890,279,132,103,91,98
175,495,900,283,135,111,93,99
218,477,863,285,125,107,89,99
218,444,789,283,123,110,87,102
220,445,753,315,133,113,89,109
254,420,567,282,140,116,92,119
248,436,533,273,144,104,82,112
229,429,592,273,144,100,79,107
258,441,730,337,167,119,116,146
256,450,721,331,161,114,112,139
233,490,708,322,152,108,107,128
240,454,776,327,139,104,104,125
237,455,721,327,139,104,104,127
219,476,596,253,125,90,74,97
218,463,572,199,109,86,74,96
229,431,651,322,165,108,102,125
239,423,604,369,196,133,127,144
238,436,700,403,208,137,130,150
216,370,692,407,201,129,122,138
211,356,689,421,207,133,124,138
183,342,682,354,170,124,106,114
175,346,659,293,144,104,83,95
172,354,636,252,130,107,76,82
185,391,664,250,131,111,82,92
208,395,690,299,184,133,102,120
208,381,632,283,180,127,101,122
203,429,642,284,177,124,96,118
208,376,620,300,188,129,102,121
214,400,625,340,211,138,106,124
232,494,689,357,207,134,126,132
250,479,706,363,216,137,127,134
260,472,765,386,228,144,135,143
256,494,741,372,225,138,137,148
255,467,694,364,217,135,141,154
236,392,598,298,179,122,109,132
253,436,579,366,193,129,141,169
250,468,522,351,181,131,144,171
239,446,566,346,169,129,140,165
261,489,621,337,152,124,136,166
253,475,623,331,148,121,135,161
213,429,622,238,110,103,95,115
229,434,674,354,148,104,98,126
247,492,612,354,158,106,100,133
221,485,650,368,161,101,96,123
243,483,670,381,164,107,95,124
289,562,753,476,221,147,134,166
289,524,743,489,248,171,152,181
304,508,789,535,261,181,167,196
308,460,721,518,261,182,166,194
333,507,751,551,289,192,181,210
303,501,740,515,269,188,178,202
351,520,708,452,236,169,167,185
343,479,662,418,229,163,152,164
346,528,762,475,275,187,171,182
315,487,798,449,258,181,164,171
322,444,749,429,265,182,152,156
241,431,750,416,268,183,138,143
224,463,796,415,271,192,143,146
206,419,713,359,233,174,128,136
192,409,642,344,219,166,118,129
169,445,722,320,195,141,107,119
177,456,725,317,184,125,101,116
182,465,745,301,164,99,95,121
188,442,723,284,151,88,74,101
190,443,701,271,158,102,73,97
191,379,629,280,175,110,76,98
186,368,591,259,168,124,83,103
175,331,508,241,165,126,80,87
166,346,503,222,173,128,82,88
143,325,516,215,173,119,83,87
153,353,591,258,194,117,91,93
179,435,703,295,236,152,108,108
186,452,734,304,252,167,109,113
187,449,759,339,253,174,117,122
191,459,800,348,267,177,123,121
187,445,827,365,296,223,127,119
166,384,768,352,295,219,131,109
252,409,728,351,316,261,141,105
264,431,729,333,333,274,147,105
265,429,737,350,328,290,149,114
274,467,677,296,314,277,147,109
298,452,720,293,280,264,132,105
226,420,770,313,270,228,137,106
232,413,776,322,244,231,139,98
292,454,748,306,245,212,136,106
282,434,765,368,220,183,133,103
266,397,685,362,285,208,137,103
275,447,725,431,304,217,136,121
275,485,696,433,307,222,136,129
229,483,671,434,359,244,145,121
237,446,646,391,354,260,141,123
271,471,687,395,321,246,141,124
279,405,607,347,297,252,163,139
281,383,677,420,305,244,162,142
299,457,722,458,248,234,186,171
293,462,686,471,251,230,189,173
300,470,768,535,256,279,216,188
292,479,742,507,276,273,189,164
282,477,777,450,283,265,178,155
274,411,752,441,275,265,157,142
296,449,776,422,293,272,154,140
290,566,802,511,306,225,142,179
282,564,826,551,287,205,143,179
277,559,763,548,267,200,142,177
287,658,868,604,348,239,162,189
265,637,863,613,327,218,161,189
234,542,794,531,341,243,138,142
234,551,765,487,332,247,141,139
232,536,800,498,329,246,146,140
223,408,738,468,287,209,132,138
243,433,763,474,296,216,155,151
238,450,789,464,272,178,156,148
239,446,793,479,294,168,163,150
255,533,830,540,336,192,178,175
289,578,914,569,323,198,191,181
279,577,900,547,309,195,181,177
266,535,830,511,292,189,175,175
273,533,870,506,282,201,177,193
256,455,794,412,249,181,158,172
199,406,685,325,243,175,121,142
198,423,704,356,248,187,119,136
196,454,795,360,239,185,130,139
264,512,868,508,302,228,170,186
269,512,880,586,324,238,176,190
256,476,858,558,307,221,178,193
246,492,849,547,308,220,172,189
251,478,786,541,320,223,173,191
200,432,748,401,249,169,122,123
234,515,855,340,223,161,129,131
235,519,826,336,219,161,120,122
234,470,811,361,283,179,120,128
249,507,814,402,282,184,113,128
230,522,790,408,296,198,121,134
196,428,657,357,295,197,113,121
190,427,673,367,292,199,130,128
212,514,723,414,239,170,130,125
218,475,718,413,255,168,143,143
212,452,695,397,246,162,152,146
226,530,795,478,241,155,159,155
315,574,789,511,264,163,162,183
325,526,768,492,312,206,190,210
334,581,794,471,291,199,182,204
341,661,844,541,312,197,175,207
337,599,726,494,326,212,165,203
314,577,721,501,409,292,179,214
293,582,745,472,364,263,156,192
291,529,720,521,371,273,172,210
283,419,633,451,354,268,167,204
297,489,669,444,340,259,175,209
244,492,700,427,236,197,157,172
256,451,632,449,259,206,151,169
230,459,670,392,260,202,124,132
239,473,687,409,257,205,123,126
290,440,685,477,301,235,137,156
295,473,698,504,316,229,130,157
295,467,703,516,361,257,132,156
307,477,709,546,379,260,143,174
343,493,715,594,403,273,170,210
302,521,773,581,396,261,157,190
311,507,836,634,410,274,170,199
366,543,858,703,472,346,199,241
436,534,892,747,514,376,209,264
477,663,962,786,528,389,205,266
475,666,914,810,543,390,214,269
472,653,850,754,517,372,220,273
472,659,816,683,443,293,207,262
406,710,883,663,404,316,211,234
342,641,834,628,428,323,223,238
412,702,929,681,436,371,257,280
439,725,949,680,457,405,312,328
447,760,968,711,465,422,328,349
441,704,868,667,447,391,317,348
449,745,962,661,439,380,310,335
405,712,911,597,408,336,293,313
447,731,946,689,416,307,232,282
401,684,952,691,402,282,211,245
412,705,1001,680,406,263,217,247
400,650,927,656,371,250,218,250
418,721,1083,718,406,242,218,272
379,814,1127,689,411,233,224,262
372,819,1154,676,406,223,214,256
402,859,1153,799,431,269,237,285
388,850,1199,797,412,270,228,271
339,798,1117,752,365,268,216,234
278,656,1032,703,332,278,229,224
313,727,1033,701,328,303,262,259
285,692,980,620,294,261,240,227
274,650,878,618,306,252,238,229
269,622,795,594,329,280,225,215
310,634,867,641,331,272,240,265
292,636,871,654,357,274,210,235
334,705,984,673,382,293,233,273
396,774,1086,821,450,324,249,304
414,787,1148,828,465,314,262,317
397,788,1122,823,456,297,226,273
416,789,1080,901,487,283,238,284
375,732,1015,878,472,275,229,266
316,661,895,759,403,242,211,237
304,628,793,767,395,232,211,238
344,667,782,784,429,278,242,275
310,584,794,658,354,258,229,258
303,550,740,662,332,255,223,241
312,608,845,656,340,257,226,241
353,668,921,599,313,252,223,247
319,610,879,531,270,212,187,201
304,585,877,529,264,207,174,191
308,607,889,471,269,192,153,181
300,536,859,434,261,184,159,189
229,417,820,450,234,157,145,155
263,472,826,480,242,180,187,195
307,486,823,565,294,220,210,206
302,454,799,568,292,222,211,206
306,485,740,628,386,248,214,203
361,552,728,651,431,273,231,236
376,557,783,653,461,274,236,256
354,583,873,643,522,296,229,261
350,590,908,627,523,291,227,261
342,572,900,554,452,259,209,249
344,579,937,623,480,275,227,261
277,505,862,572,443,259,176,206
261,460,735,495,357,230,164,191
289,531,810,558,374,243,181,213
299,582,808,548,367,248,184,217
268,611,762,500,311,237,178,209
279,632,794,528,313,236,176,204
272,640,828,568,302,223,175,203
257,619,746,540,281,218,169,193
246,598,744,568,288,214,177,198
221,550,739,523,287,213,155,170
231,576,852,572,303,218,173,188
237,581,885,536,287,208,187,200
272,555,905,624,341,222,215,226
306,613,1053,780,420,253,230,248
327,616,1065,804,414,242,230,255
318,597,975,755,397,232,219,245
318,600,939,772,402,228,211,234
272,560,885,702,361,218,177,197
225,471,721,498,258,185,150,165
208,410,688,426,242,183,139,162
230,482,788,501,277,199,146,174
228,474,802,504,268,196,142,177
239,488,808,565,296,233,148,181
254,544,871,651,317,235,149,184
249,549,824,681,350,240,138,158
219,461,730,630,328,225,132,149
243,516,743,642,364,252,154,162
251,594,872,629,349,218,160,170
253,549,823,637,382,231,160,170
259,571,895,617,351,231,163,170
257,612,950,669,374,242,163,168
246,573,944,649,353,233,146,167
240,505,789,588,347,228,132,160
258,586,849,552,325,236,144,177
246,589,836,590,342,227,160,197
249,580,836,623,335,221,164,198
257,601,832,618,321,196,158,190
253,590,891,654,332,218,169,187
227,511,845,685,356,237,185,194
221,481,826,652,335,234,178,184
217,449,793,577,323,241,170,176
248,493,825,607,340,259,180,191
271,501,807,599,349,261,194,215
323,512,818,592,346,265,227,259
354,550,845,614,371,283,250,282
397,557,895,689,401,302,281,322
368,474,829,646,386,294,277,315
360,486,898,660,373,288,271,311
389,553,900,681,380,283,265,315
380,573,992,709,372,279,259,309
350,582,921,657,351,260,232,279
411,655,1067,722,392,293,257,308
415,688,1042,787,416,290,259,309
370,677,1077,745,378,289,247,280
347,643,943,694,357,270,232,266
372,643,973,695,383,330,261,291
321,600,847,686,380,340,260,279
302,615,846,566,338,328,242,261
259,612,772,522,315,298,211,225
253,614,802,515,309,293,206,216
257,634,841,545,311,259,200,218
256,708,956,585,318,223,175,200
265,677,949,589,321,225,180,200
270,637,965,589,335,225,173,200
277,642,998,604,347,239,179,204
222,602,916,559,289,184,129,143
210,508,762,520,245,163,116,130
244,584,796,611,298,215,136,160
239,561,770,629,295,215,139,156
268,585,800,673,306,215,149,171
304,620,811,707,317,221,153,177
296,635,894,715,327,230,155,177
272,552,824,651,285,190,135,153
330,651,918,680,316,232,187,215
342,596,848,667,336,264,218,256
325,569,854,617,334,277,224,263
330,521,772,574,321,275,223,264
323,527,817,637,361,292,228,268
288,419,685,613,352,279,198,228
246,442,735,576,321,242,148,164
230,437,739,577,318,226,134,147
230,482,747,548,313,226,142,165
232,490,696,456,279,210,143,163
247,468,682,453,267,196,158,183
280,462,646,576,315,219,173,213
281,481,630,563,304,219,176,216
299,433,612,564,296,211,170,202
300,431,620,564,271,194,160,195
264,425,620,520,247,175,135,170
236,381,615,417,201,153,138,159
225,333,578,427,204,148,132,151
193,366,601,465,219,146,138,158
254,431,684,533,277,180,177,202
292,485,710,595,309,216,201,231
298,559,731,560,299,220,185,212
298,559,761,555,305,227,186,212
293,566,778,542,297,235,179,201
242,489,689,462,241,214,145,158
250,463,744,418,233,218,147,153
251,436,715,429,215,214,150,165
255,450,725,467,217,214,150,166
263,426,719,447,219,211,153,174
255,412,712,439,214,205,146,168
233,406,705,456,209,183,129,154
210,378,685,453,240,189,118,136
218,411,714,430,244,184,122,140
213,390,658,412,241,171,120,141
209,362,655,414,244,178,125,146
170,382,565,372,219,161,95,115
190,395,561,331,172,128,98,122
192,350,500,311,164,120,103,127
194,364,581,300,147,113,98,113
193,381,560,298,147,98,88,104
202,330,573,321,130,91,87,106
188,308,607,336,136,94,86,100
169,306,623,324,124,87,71,83
150,325,703,365,138,96,68,82
157,370,734,367,153,115,85,98
142,394,785,372,170,119,88,95
121,382,807,369,167,121,88,94
168,453,920,505,245,162,124,133
183,446,878,556,273,183,137,151
206,421,888,600,293,189,138,159
251,477,906,635,310,203,155,186
319,571,938,699,380,262,198,237
323,579,927,654,357,255,190,234
333,646,920,608,350,252,189,235
321,652,923,595,344,255,190,230
304,625,888,548,341,254,184,222
245,593,881,504,278,196,137,169
216,541,767,451,252,178,121,147
201,544,789,440,245,171,129,150
195,551,780,405,231,155,122,145
167,526,734,367,198,134,108,125
179,478,686,289,177,126,108,122
182,497,715,290,168,115,105,116
169,434,663,306,189,121,85,93
167,410,621,281,169,108,76,84
250,429,629,296,181,114,81,91
266,453,590,337,193,124,88,101
264,421,506,353,218,145,96,109
261,403,446,321,185,123,98,105
268,385,434,337,205,137,113,132
213,367,542,371,228,153,123,144
221,324,546,350,219,154,119,138
231,322,607,333,202,149,128,147
235,278,599,327,191,148,121,143
228,297,669,308,173,143,106,119
226,299,604,248,141,121,97,113
212,315,657,296,197,143,117,139
211,336,644,325,218,148,109,132
207,341,636,331,227,153,111,133
234,427,652,374,238,158,119,146
253,490,735,514,263,179,154,180
245,489,672,488,227,157,149,174
261,543,704,498,229,166,149,176
309,580,749,514,232,172,162,195
296,533,732,517,229,165,162,191
270,509,618,409,206,159,130,153
264,499,629,413,213,172,135,157
293,497,591,408,231,199,171,198
254,474,584,404,237,205,165,189
275,474,511,377,237,204,159,186
290,457,567,364,233,196,158,188
315,523,583,389,238,192,153,188
271,463,546,361,190,141,106,138
264,445,585,361,191,132,103,136
231,447,659,355,190,140,105,132
247,571,724,411,195,150,136,157
207,511,718,389,182,148,139,148
203,508,733,378,193,152,143,146
202,522,721,373,174,138,137,139
241,569,723,420,210,157,154,165
218,472,678,372,217,158,127,143
248,515,692,380,216,153,119,146
258,537,794,401,219,158,120,159
260,541,820,402,226,168,123,161
282,596,816,412,225,159,125,172
277,560,782,410,219,155,123,168
274,542,777,417,246,176,122,160
274,560,706,400,242,170,122,153
288,599,680,401,245,169,144,177
267,542,650,402,250,163,132,157
260,544,644,387,246,163,129,154
237,515,596,354,213,134,127,151
308,530,610,465,273,184,187,220
297,467,628,463,273,184,170,204
277,439,736,491,269,199,177,203
310,443,793,530,292,209,189,220
302,487,834,552,306,218,193,224
222,416,848,469,253,176,133,155
256,496,910,505,255,185,153,177
258,501,850,459,228,161,144,177
237,519,810,415,198,155,136,160
237,482,817,411,196,159,137,165
244,506,776,405,194,161,136,165
206,443,628,334,175,148,108,133
210,390,621,320,190,158,103,128
204,377,695,422,216,158,96,127
206,370,667,392,209,152,85,115
189,377,649,386,203,148,82,105
207,444,724,424,219,159,93,116
211,489,767,471,217,155,93,116
221,469,762,419,195,142,93,109
225,480,813,485,211,158,102,120
268,481,893,565,275,195,129,164
259,496,870,560,271,191,133,172
255,470,889,547,282,213,148,183
282,528,924,610,324,246,166,211
281,549,900,594,322,239,161,208
260,553,904,547,291,218,146,186
246,496,883,525,282,209,138,173
231,497,789,484,257,189,119,152
169,438,730,375,195,140,94,114
172,426,712,373,190,141,111,121
165,418,638,361,176,134,114,123
178,428,636,379,185,136,114,127
190,506,715,382,193,133,121,132
207,540,732,380,201,140,133,144
227,592,788,482,231,146,139,158
227,597,784,493,239,169,143,149
246,590,832,516,243,181,150,163
281,552,869,600,295,210,171,191
284,512,801,614,296,233,165,189
266,438,760,510,277,241,158,174
251,419,773,475,262,222,144,168
288,461,864,546,295,235,177,213
256,472,801,481,259,224,153,190
250,534,837,460,248,194,150,184
277,596,881,538,262,184,160,205
301,618,884,569,263,185,177,225
262,649,801,499,223,157,148,182
301,678,849,483,201,133,168,208
307,678,853,528,216,140,174,220
299,661,844,519,226,145,174,220
282,632,842,539,254,182,165,208
289,571,809,544,282,202,172,221
264,506,769,576,299,211,172,209
262,500,806,605,323,227,170,203
269,524,892,608,322,235,173,201
278,557,878,566,306,209,167,194
250,547,867,570,281,192,152,168
281,606,906,587,311,210,147,175
284,572,837,509,277,200,143,173
318,572,788,493,264,188,134,172
336,581,790,514,263,197,146,181
352,597,873,534,284,213,157,194
330,533,784,494,246,197,154,190
369,662,942,596,299,231,180,221
332,641,878,573,309,237,176,216
319,645,880,555,302,231,170,214
297,609,773,497,281,224,158,200
301,668,853,498,282,218,150,189
237,545,694,395,230,175,111,141
216,503,684,359,180,145,90,112
197,436,693,369,194,157,91,111
215,497,797,415,204,149,88,111
221,464,718,380,181,136,87,111
224,462,749,388,210,153,96,117
219,454,705,442,218,154,102,122
214,468,663,442,214,144,100,120
198,422,526,415,200,142,107,128
178,379,514,435,204,138,102,124
170,347,503,410,166,126,98,115
176,352,591,352,172,132,102,117
223,386,598,391,199,155,119,134
232,374,718,436,223,179,131,150
202,330,761,422,228,181,126,141
218,404,820,466,246,184,132,156
211,424,833,504,244,182,129,152
191,482,928,528,240,179,120,147
230,536,884,503,230,163,109,151
245,556,877,535,238,176,127,163
247,602,927,616,262,189,139,167
262,594,901,596,270,197,146,181
246,558,845,552,252,179,143,171
239,560,876,543,250,181,139,153
253,573,906,570,258,179,132,154
244,486,751,429,214,150,113,139
237,473,755,434,213,146,112,126
251,498,780,511,244,161,129,147
238,479,758,545,235,146,135,148
245,539,800,580,253,163,157,165
273,646,969,653,291,195,163,176
267,669,938,638,302,217,160,177
272,685,934,633,295,219,157,175
259,686,896,627,332,241,161,178
274,654,852,600,352,256,162,185
262,568,686,541,338,245,163,187
309,604,763,619,352,242,188,222
353,588,826,636,359,258,215,250
352,571,901,659,345,252,212,247
353,575,913,674,339,237,211,246
357,586,930,675,333,234,213,245
334,573,916,644,303,220,196,220
285,516,829,613,301,207,173,196
285,573,774,554,278,200,169,196
235,552,751,475,215,173,143,166
217,529,714,473,203,172,141,159
197,510,732,480,203,165,134,152
212,596,843,495,210,177,153,162
221,543,844,508,215,171,155,166
233,512,800,510,219,173,161,178
283,535,861,553,253,187,185,214
299,510,836,545,276,195,193,224
274,413,720,477,240,161,160,196
285,403,679,463,242,159,164,198
280,391,703,450,240,160,164,193
235,357,675,447,239,163,148,171
225,445,695,424,218,160,130,153
286,593,748,483,249,187,159,186
274,660,853,510,255,189,158,185
289,711,905,542,276,203,168,199
304,726,924,568,269,195,165,196
323,782,965,650,299,210,206,233
274,699,914,605,272,181,182,205
260,624,818,585,261,179,178,198
253,623,801,575,247,169,173,191
229,632,759,482,212,153,153,167
208,517,639,330,164,138,110,121
216,513,754,419,185,147,117,126
226,540,756,433,193,142,117,124
226,500,712,415,190,134,107,114
214,456,726,430,192,127,112,120
188,431,753,457,220,126,101,112
169,485,722,394,208,116,93,105
301,589,800,489,288,207,204,237
335,629,824,490,298,222,213,255
342,646,835,497,306,229,218,260
347,635,800,472,281,221,219,262
359,624,782,494,280,224,224,273
249,515,749,376,185,141,128,171
216,498,741,443,205,145,134,160
202,482,757,479,207,139,126,149
195,523,804,495,232,143,122,144
190,483,804,493,242,150,128,142
202,501,837,557,252,168,147,156
203,473,809,520,255,176,144,168
226,466,797,511,262,183,159,183
237,454,752,504,245,179,160,185
219,464,771,477,225,174,157,171
218,445,707,454,230,161,148,169
195,413,678,417,191,124,128,140
195,458,627,374,167,114,104,124
188,433,642,370,163,112,108,127
188,404,596,384,165,115,106,133
189,404,633,345,161,123,100,121
192,446,661,347,167,131,103,123
174,395,722,354,165,125,106,126
176,406,754,367,172,132,110,133
195,449,730,436,211,140,117,144
193,445,758,473,216,141,113,143
202,431,775,491,220,144,107,139
219,470,736,509,236,167,128,150
215,464,691,505,224,154,127,147
210,432,684,433,203,152,117,132
234,435,627,431,203,164,136,146
228,422,611,411,190,159,142,151
230,408,692,515,230,171,165,173
256,398,745,547,296,215,185,205
276,394,734,557,300,214,190,213
286,488,795,556,308,210,189,224
290,500,783,566,313,216,188,224
318,543,787,585,330,223,186,226
295,568,780,550,290,192,163,192
278,630,791,546,292,192,164,192
241,541,685,511,282,184,151,166
239,538,693,510,283,180,148,162
176,517,644,411,235,148,105,118
192,508,590,398,214,141,103,124
182,418,552,373,190,128,83,105
187,459,669,389,181,120,91,115
192,485,746,398,178,112,96,123
194,436,706,346,165,103,93,119
179,399,692,359,165,98,90,112
178,386,700,376,178,98,91,113
191,471,721,405,196,126,100,118
180,447,658,387,192,132,96,110
187,449,647,369,176,136,95,113
219,497,650,362,175,138,98,118
247,493,659,382,175,144,110,131
265,514,605,331,155,131,103,126
301,531,583,312,146,123,100,123
301,601,663,439,213,148,114,135
296,586,727,532,268,175,138,161
281,602,722,501,262,173,136,160
255,504,655,496,257,169,132,154
210,470,622,506,258,168,149,154
205,398,573,422,218,145,150,148
192,409,545,319,175,115,136,126
214,462,623,374,196,121,138,132
271,545,731,511,269,165,176,181
273,566,773,517,283,178,173,188
274,561,816,571,289,185,169,190
264,533,784,568,273,179,161,179
256,509,761,561,272,180,169,181
215,428,681,451,217,141,138,144
218,454,690,470,206,127,124,139
215,454,604,406,199,115,123,139
213,460,623,382,198,116,124,140
188,440,570,348,176,109,100,122
184,426,565,332,167,108,96,122
185,370,622,313,172,125,107,130
183,345,633,292,158,122,95,118
210,363,716,364,183,139,122,145
222,420,766,373,187,140,128,149
214,448,814,441,217,156,126,145
207,444,768,428,214,151,120,132
239,485,811,450,225,158,127,140
230,513,737,402,208,147,107,123
265,450,676,411,209,147,113,130
268,403,645,383,187,140,115,136
266,438,689,436,188,128,120,143
260,487,698,429,199,140,134,155
288,469,702,451,197,135,128,151
253,468,752,457,209,137,121,145
251,496,785,438,204,127,119,139
246,515,758,383,206,132,112,133
246,454,707,364,185,108,88,118
208,444,822,368,189,136,87,113
204,466,771,337,182,132,86,108
187,490,781,344,173,137,75,95
209,466,772,363,184,142,109,120
200,471,776,367,201,148,113,124
218,452,788,385,207,129,120,134
229,529,883,485,232,141,137,158
232,499,810,461,225,131,136,157
239,521,823,466,218,130,122,151
244,535,873,491,212,140,124,150
219,527,724,459,214,138,118,140
204,418,629,357,175,127,95,110
212,447,704,376,178,127,96,113
188,404,658,340,171,121,82,90
161,345,678,330,165,113,75,86
180,403,722,343,151,110,85,99
179,432,803,397,163,112,92,102
164,383,816,415,179,124,96,102
174,392,886,506,199,131,105,111
218,526,905,558,230,147,120,130
212,494,891,540,230,173,114,120
220,559,901,565,243,173,109,122
224,568,969,591,244,177,109,121
218,567,952,530,227,174,110,121
183,487,907,459,192,162,93,94
176,512,927,467,191,137,90,99
223,515,941,521,249,182,143,158
229,501,828,468,250,188,142,159
233,526,793,452,245,182,140,162
253,520,768,448,243,180,141,167
259,512,772,461,247,178,150,173
208,405,641,305,159,126,100,113
204,444,658,306,133,94,94,107
231,430,660,323,136,96,90,114
222,399,702,386,149,108,90,111
214,364,654,364,147,123,71,98
247,448,728,419,185,144,99,133
251,400,734,425,190,149,104,142
216,358,726,425,220,159,110,136
210,373,676,378,208,149,108,134
212,381,687,387,211,136,110,134
177,319,685,366,203,130,87,105
177,350,667,367,213,130,90,104
183,379,791,423,214,130,85,97
180,383,786,447,223,127,83,99
175,384,856,456,223,129,85,97
175,371,807,447,219,123,95,105
184,359,825,454,215,133,97,112
238,393,734,459,233,156,137,167
235,361,713,419,226,161,139,166
246,381,656,402,221,159,139,173
261,423,731,461,242,168,149,183
280,526,805,456,245,172,152,180
228,507,799,394,206,141,122,134
235,560,881,430,223,145,128,141
243,579,887,466,252,155,134,151
223,589,895,415,226,143,120,134
203,500,799,413,220,133,114,129
212,476,781,395,207,132,104,120
198,425,725,407,215,144,105,119
180,403,765,459,228,150,111,116
180,380,647,429,218,145,104,110
162,413,610,405,210,140,97,105
147,409,689,445,223,150,97,104
142,428,669,405,196,134,93,98
160,456,711,350,173,126,78,86
195,498,757,385,192,134,97,105
204,489,824,422,202,138,123,126
208,507,759,397,200,129,129,133
234,563,866,451,210,136,154,150
219,533,826,415,187,122,153,147
199,451,790,379,183,123,143,134
225,489,809,404,205,153,139,137
218,466,843,412,201,153,133,131
187,366,719,338,196,145,91,101
180,346,630,311,185,146,85,95
172,361,673,337,176,139,92,102
116,290,637,268,143,106,61,69
123,318,565,240,132,100,62,70
145,344,589,259,120,102,74,83
167,358,645,310,133,100,86,95
172,379,706,349,157,153,96,102
171,388,645,340,148,151,99,102
173,388,686,362,153,158,101,102
188,392,738,460,206,171,124,132
175,410,736,448,204,171,123,132
165,390,641,403,185,127,108,123
162,364,692,418,187,127,110,125
163,396,694,428,197,124,117,133
118,363,610,324,150,100,98,104
111,338,573,301,141,95,91,95
109,325,603,314,146,99,91,93
118,321,541,293,141,92,88,92
121,277,554,274,131,82,84,91
122,269,568,276,133,90,70,76
163,277,628,328,150,105,73,85
186,360,642,339,156,108,79,94
190,380,714,364,170,114,86,98
200,373,685,347,174,115,84,96
207,411,662,329,167,112,83,99
195,398,598,279,160,103,81,100
202,364,619,258,149,87,76,96
208,413,660,251,157,111,79,98
201,399,673,265,169,132,76,90
196,376,683,275,167,130,76,92
186,391,717,319,169,128,79,89
156,355,712,314,163,128,84,89
143,266,642,341,172,113,86,96
137,279,617,338,162,99,89,104
132,271,632,358,162,96,89,100
132,282,640,343,171,109,85,95
201,342,638,450,245,159,151,162
195,349,595,414,225,150,146,155
188,333,564,413,220,146,145,153
189,331,556,398,219,144,145,154
186,329,602,432,222,146,157,164
107,258,547,329,142,90,89,93
100,262,599,339,138,97,84,86
105,290,630,330,128,94,82,84
113,328,671,369,164,116,85,88
104,286,598,341,150,121,67,73
100,288,608,321,150,122,69,74
104,306,599,332,160,125,70,76
131,318,605,335,164,130,74,78
141,347,583,300,127,109,70,75
146,395,644,290,121,86,69,78
146,423,641,288,112,81,66,76
164,509,702,291,112,74,66,82
154,525,723,338,126,70,64,77
156,490,747,391,175,99,85,95
156,471,763,439,197,113,92,99
169,476,809,467,221,127,98,107
164,415,809,468,228,135,100,108
155,396,844,475,235,138,104,111
140,380,821,433,214,135,89,99
138,408,811,374,199,128,85,97
123,398,805,362,184,127,81,89
141,404,775,375,195,140,108,116
134,386,754,337,177,135,99,110
137,407,722,333,168,122,96,108
134,373,711,360,185,134,97,108
154,424,716,398,201,141,108,121
130,407,700,367,181,119,77,90
132,414,645,357,184,131,81,94
148,469,744,471,248,149,102,114
159,494,699,465,239,146,99,112
144,426,627,420,220,135,87,98
135,398,583,419,221,138,91,98
148,402,615,434,225,131,93,104
146,380,549,338,152,116,74,85
138,335,528,303,157,126,79,84
134,337,598,321,156,124,82,88
199,446,705,406,194,147,103,120
190,481,723,393,186,145,104,118
187,450,704,389,193,143,108,123
188,482,740,398,178,126,101,121
200,504,716,388,185,127,99,121
166,474,698,338,154,100,82,99
182,457,646,364,182,116,81,102
173,479,663,347,176,116,74,92
186,468,712,428,225,144,102,119
182,520,750,459,230,147,110,126
165,486,662,433,224,148,108,121
151,477,706,411,208,144,106,116
160,507,705,440,218,146,112,120
141,500,684,373,178,127,90,95
138,457,672,356,170,121,80,82
132,432,756,371,178,117,76,79
138,455,784,410,195,123,77,83
129,439,793,391,194,129,73,77
134,453,762,374,182,118,70,73
123,480,816,369,183,121,72,74
139,541,858,413,184,135,85,87
129,511,860,370,167,121,86,85
134,502,826,346,156,113,85,88
141,505,922,404,179,124,89,96
156,499,909,423,186,139,95,107
145,445,863,393,179,128,91,101
146,499,902,405,175,128,86,98
171,491,933,485,211,140,102,118
167,513,878,481,216,137,104,116
162,469,802,449,209,120,101,111
169,488,799,452,219,126,105,116
195,509,731,518,262,147,129,148
178,509,706,486,244,135,122,139
212,517,669,499,263,158,138,163
219,514,695,527,281,171,149,175
227,568,787,627,329,199,166,189
235,603,826,624,313,191,163,191
240,607,969,702,341,210,168,195
215,628,975,668,318,199,151,174
217,659,1023,676,308,193,142,163
230,598,968,615,273,166,134,166
233,559,1015,657,308,197,153,182
222,539,910,535,269,177,142,172
216,503,909,532,268,181,149,174
202,480,852,516,266,177,150,174
198,504,868,507,248,177,148,168
158,437,722,370,178,136,113,122
165,417,664,381,169,132,110,121
164,395,701,394,160,120,104,119
174,428,754,386,163,126,104,121
140,405,680,319,142,114,81,94
152,442,804,402,169,124,87,104
167,650,948,440,189,137,112,124
177,700,961,459,197,142,117,131
163,677,948,445,184,137,112,122
167,666,962,484,212,150,122,131
168,681,884,413,187,143,119,123
161,531,752,385,181,142,106,110
145,440,671,360,178,135,100,101
152,466,720,388,206,145,106,110
209,567,820,506,274,188,154,167
220,536,834,558,296,187,157,177
229,539,824,556,297,200,163,182
237,558,833,548,296,210,168,187
235,518,737,520,282,207,167,184
195,476,670,416,197,163,123,135
174,459,658,375,188,169,118,120
151,407,670,389,187,147,103,109
144,374,639,403,198,144,100,106
150,424,695,417,198,138,96,104
138,348,669,412,203,134,86,96
159,439,721,430,195,130,92,107
156,432,717,390,182,131,87,100
161,453,801,445,213,136,87,103
160,431,777,444,221,136,84,103
159,459,737,396,209,135,79,96
132,345,683,371,200,134,80,87
131,368,681,382,201,137,82,85
142,404,665,352,176,124,90,95
152,435,663,356,184,144,98,101
169,466,684,405,208,156,116,123
191,499,679,433,229,195,126,135
226,563,779,504,259,205,151,167
278,602,803,554,293,232,180,209
285,629,899,594,293,223,182,211
280,627,914,601,283,215,177,206
279,650,1002,636,277,192,179,210
254,581,917,592,252,177,160,190
178,495,880,513,188,127,116,128
180,462,794,483,185,128,118,130
167,400,808,465,173,122,111,123
152,336,698,386,154,110,95,104
144,372,791,372,146,113,96,100
167,476,848,427,168,126,106,114
166,497,907,466,174,127,113,120
165,498,849,450,183,130,111,118
157,495,829,423,173,114,102,109
174,537,830,471,202,121,114,125
178,485,818,487,219,130,116,130
155,432,771,440,207,128,101,115
160,425,755,432,202,128,102,115
169,445,789,450,219,146,115,123
169,420,763,430,210,146,108,119
152,404,767,392,198,145,110,118
147,405,739,361,195,144,110,114
142,407,769,354,200,162,113,116
136,405,758,333,184,154,103,111
108,370,699,279,164,150,100,97
97,366,711,251,137,139,81,75
105,357,726,266,135,139,79,77
115,383,723,257,119,117,73,71
132,398,722,305,129,116,78,80
144,433,777,384,145,107,74,81
166,560,808,426,165,112,93,101
168,616,859,459,163,108,92,99
170,659,881,495,180,113,91,104
152,632,865,471,172,107,84,94
175,631,887,456,194,123,99,118
156,516,806,433,197,121,88,106
150,449,723,400,201,118,91,106
138,347,684,368,193,118,91,102
143,355,681,368,195,121,94,104
115,318,662,345,163,105,73,71
174,394,747,474,252,149,120,125
174,383,736,466,250,148,116,125
195,484,814,521,271,156,131,140
198,504,814,530,275,153,135,147
196,489,782,528,277,153,137,149
152,425,703,420,204,116,99,110
204,475,763,550,284,165,147,165
193,379,709,494,263,156,134,155
232,402,799,564,303,179,156,186
247,467,821,579,314,185,165,196
248,489,842,578,306,180,166,198
210,486,834,467,238,143,129,158
239,549,900,508,250,187,145,161
202,519,839,434,192,168,117,119
184,510,861,411,201,240,145,116
184,530,809,375,187,242,141,106
194,526,832,375,181,244,141,108
165,486,842,409,214,232,151,129
172,493,818,386,219,264,164,136
219,486,804,437,225,214,144,148
230,446,788,454,229,211,145,153
224,400,707,476,250,225,151,154
227,449,639,448,220,203,132,141
247,541,774,492,231,159,132,159
209,501,688,443,205,134,120,143
211,568,778,468,242,148,125,152
244,631,826,480,263,163,135,172
242,618,858,518,282,172,131,171
225,564,838,499,273,171,118,153
228,579,844,489,271,177,119,153
246,537,819,485,275,193,130,160
218,467,776,469,241,162,112,138
213,453,783,388,220,162,113,135
215,452,695,392,226,172,122,145
216,450,752,430,238,174,122,146
194,449,727,439,210,150,124,143
194,537,828,463,228,171,123,140
196,530,794,467,241,205,134,145
216,529,829,510,261,209,133,148
241,647,927,525,271,220,142,159
234,638,907,496,268,221,131,152
237,590,863,480,249,200,132,155
245,613,869,504,247,173,129,159
234,654,978,512,231,164,135,159
210,554,881,514,259,172,139,158
222,563,888,554,285,173,145,163
273,656,967,605,299,180,154,188
327,704,975,660,319,181,167,210
327,644,862,668,358,191,172,223
374,771,969,746,373,203,187,241
402,824,1053,781,388,224,215,269
442,833,1046,808,443,263,256,310
440,863,1097,840,437,263,263,317
473,897,1134,863,481,305,299,348
479,816,1079,817,481,292,298,351
493,805,1075,808,479,284,282,334
478,771,1006,779,444,255,258,304
447,702,994,699,430,249,238,277
428,684,917,628,351,191,194,233
467,717,946,645,348,217,205,231
427,659,883,600,343,236,212,236
399,685,973,621,333,235,208,230
475,730,970,679,414,269,260,295
501,767,1105,726,438,289,271,304
472,729,1071,723,455,287,276,311
563,846,1131,818,551,327,325,372
595,867,1128,838,584,343,342,387
562,845,1129,798,536,326,314,349
555,798,1053,780,515,311,304,342
511,762,1013,744,481,289,282,320
504,682,978,660,357,213,209,235
483,683,951,621,324,211,185,209
460,633,920,630,331,217,189,210
458,718,968,650,350,228,198,221
485,762,1050,663,341,231,202,225
469,778,1047,724,366,265,239,264
473,742,1091,770,392,293,251,273
479,795,1061,759,395,294,254,282
525,862,1068,795,413,287,256,286
571,918,1071,840,490,319,294,322
526,912,1103,776,479,302,280,297
524,875,1067,694,433,251,255,275
512,834,1086,685,426,233,237,256
439,718,1044,603,384,225,218,228
353,629,1042,508,268,171,154,164
315,580,933,474,235,164,131,147
274,578,848,449,238,164,129,135
310,600,838,491,266,182,148,150
342,581,799,521,297,206,184,193
338,542,706,493,294,200,182,189
379,540,739,493,305,200,186,193
373,517,820,497,334,229,201,206
336,469,822,425,302,211,184,193
296,440,830,374,282,196,159,153
353,513,845,465,312,215,179,183
350,570,957,615,400,248,218,227
341,560,879,629,392,239,222,234
370,602,895,695,426,260,248,256
392,656,937,699,434,252,242,262
417,733,977,703,436,250,244,269
386,678,883,570,345,209,202,225
398,687,901,535,309,195,186,218
379,666,918,454,252,163,152,197
348,640,917,428,223,160,141,180
249,517,825,309,199,154,111,133
256,508,807,305,193,145,111,140
232,552,866,348,204,127,105,124
217,517,756,316,203,126,97,114
273,552,705,336,209,129,99,119
275,547,761,439,222,123,115,132
290,547,772,458,230,131,121,138
349,562,728,491,260,153,144,175
362,602,760,521,270,180,163,176
320,538,767,502,275,188,164,171
365,573,796,494,283,202,166,177
375,660,831,493,286,207,156,167
325,596,778,437,247,196,130,131
349,639,795,434,249,181,108,131
354,646,773,437,235,175,110,135
309,590,689,353,193,147,88,117
274,514,749,368,209,153,97,127
329,610,870,448,254,169,138,150
303,553,886,429,241,172,148,157
326,613,928,428,248,172,149,164
325,607,931,430,246,175,151,166
342,631,833,401,226,161,147,161
294,573,713,305,189,150,128,148
278,578,720,325,217,159,124,140
243,536,664,327,202,150,116,130
267,627,719,323,201,144,110,128
250,577,759,348,199,148,119,135
256,573,765,341,194,149,108,122
257,550,700,303,156,119,103,130
273,519,680,312,161,126,119,155
272,402,679,366,215,168,148,179
287,399,606,343,232,168,142,175
276,451,603,364,239,168,143,177
280,498,690,404,251,180,144,174
271,521,747,400,253,180,134,150
284,563,724,428,225,155,126,135
282,616,811,514,231,157,143,154
277,559,790,501,217,150,140,149
263,520,712,476,216,144,140,143
275,490,682,462,211,139,140,144
248,491,692,440,221,139,140,151
211,434,609,321,185,125,116,120
266,447,705,334,191,123,119,131
292,483,782,364,207,131,124,143
282,546,848,410,224,136,135,147
276,562,826,433,226,141,125,135
280,557,805,429,234,148,131,140
249,570,903,504,266,175,147,146
251,632,909,522,263,174,150,145
273,641,857,527,263,176,153,162
284,638,883,520,277,189,164,175
294,644,958,539,290,197,173,186
298,632,859,477,257,173,162,177
287,578,845,444,250,171,156,172
271,538,875,410,244,170,141,151
269,523,842,356,205,144,119,129
292,540,770,332,183,128,104,120
273,565,795,311,189,124,100,123
261,564,799,320,183,113,88,110
279,543,786,333,185,109,98,120
259,504,801,317,180,110,98,113
230,469,823,323,187,113,91,105
242,451,810,348,201,132,104,118
234,385,770,329,192,127,103,119
198,435,776,324,193,128,98,112
202,499,843,330,190,125,94,111
219,509,817,320,176,122,96,111
225,524,837,282,144,100,73,89
237,538,914,298,141,105,81,96
242,509,896,340,169,122,97,108
246,449,819,368,214,143,118,129
266,518,892,436,238,151,126,137
237,456,852,456,245,155,128,134
254,473,859,495,270,160,130,141
270,536,947,518,271,164,134,148
297,591,989,560,282,177,158,179
279,574,992,519,277,180,161,187
283,572,979,505,289,195,171,201
296,593,897,468,278,200,172,196
292,568,810,452,264,185,161,190
266,519,772,379,227,159,125,150
240,486,760,373,209,153,112,132
237,520,755,398,191,155,98,116
369,698,900,540,265,188,158,211
458,784,942,656,338,234,226,280
457,834,1072,699,344,237,227,281
465,869,1070,716,361,258,238,294
486,906,1138,768,401,266,258,309
385,812,1104,685,354,238,226,262
278,688,1064,576,278,198,163,189
288,656,999,554,268,200,165,198
298,637,990,612,281,199,167,197
281,601,971,637,288,231,173,200
283,535,956,670,298,250,180,205
261,643,1113,652,287,249,175,199
259,634,1128,659,297,269,176,205
256,672,1120,598,265,275,169,200
252,680,1112,566,239,241,148,189
262,760,1113,582,237,233,158,197
290,719,974,620,264,242,177,215
309,760,908,614,268,265,177,197
301,684,868,642,304,247,181,195
308,746,904,702,330,255,192,202
339,722,965,761,379,266,210,225
316,758,1045,755,377,269,206,221
313,747,1117,786,395,261,218,245
326,778,1154,777,399,267,224,254
349,741,1170,737,400,285,223,257
329,677,1123,656,368,274,204,238
337,586,1053,621,355,262,194,229
375,574,966,633,357,232,199,245
356,544,937,606,333,229,188,227
362,472,822,570,309,214,192,243
327,452,715,510,275,199,174,221
345,456,642,518,280,204,174,229
296,427,637,402,232,192,145,187
313,446,661,403,229,176,145,190
308,508,698,424,293,203,174,221
327,517,748,445,305,204,179,233
317,513,793,440,307,203,184,231
333,593,812,524,329,218,194,244
374,662,856,638,385,248,225,281
349,613,832,628,347,223,203,246
335,600,788,625,357,238,200,237
356,639,760,636,363,238,202,235
335,548,767,596,355,226,189,216
291,513,711,513,300,201,152,177
279,537,697,440,249,170,118,143
283,602,754,431,218,153,115,139
248,593,842,449,213,147,111,156
260,604,824,425,192,145,115,164
246,538,821,409,195,156,117,162
246,548,832,449,207,169,129,169
258,514,825,494,230,185,150,186
264,466,694,462,234,187,164,184
254,416,646,452,237,191,167,186
233,404,590,405,205,161,156,173
241,397,614,430,226,166,164,185
242,403,661,374,203,140,147,171
210,412,716,367,187,133,121,146
185,400,700,348,191,127,111,132
201,453,712,350,191,127,108,133
201,518,759,296,158,110,72,104
233,566,716,302,158,112,64,98
238,560,643,266,147,108,58,98
315,701,699,314,153,113,89,137
356,703,712,308,172,126,101,152
405,675,719,449,239,182,155,192
396,639,759,478,254,189,161,201
410,675,826,504,269,206,171,218
399,557,856,534,270,220,172,209
396,597,888,573,274,217,177,215
336,533,833,446,214,164,135,177
323,517,789,447,218,159,141,177
314,510,827,472,218,141,136,165
254,494,740,410,204,125,121,149
215,476,729,380,212,154,126,144
223,479,703,400,233,170,138,152
205,469,692,348,216,167,127,137
227,477,633,299,218,180,132,139
244,536,689,301,211,168,127,140
236,502,671,308,191,140,116,131
221,517,698,270,158,122,102,117
233,527,705,279,159,119,104,124
226,539,716,286,135,92,89,112
217,521,698,310,159,98,97,112
208,487,729,292,151,87,86,100
228,527,771,349,167,98,93,105
242,508,729,363,162,101,88,100
225,487,656,332,153,108,92,105
252,528,637,329,159,111,95,113
257,535,589,315,162,117,97,119
239,479,488,261,147,116,92,114
229,467,544,239,157,130,99,115
226,413,532,245,164,125,95,110
193,336,554,250,144,120,90,106
187,345,519,256,142,118,85,97
188,398,565,269,146,111,79,95
186,445,615,289,149,104,77,99
190,451,642,292,143,102,75,98
201,415,620,278,157,106,69,93
194,406,619,275,164,114,77,96
193,347,577,258,157,112,75,92
182,289,509,237,143,96,67,84
186,399,537,268,160,110,96,108
176,420,520,287,147,109,105,115
198,464,595,306,168,124,107,119
275,512,657,408,216,159,145,163
338,569,675,424,236,177,168,193
334,528,677,423,231,169,158,181
338,532,758,430,243,174,164,184
334,503,725,415,222,158,163,183
284,491,659,305,176,126,133,150
216,463,665,332,166,111,110,121
209,426,648,322,161,112,107,124
213,440,607,293,142,112,95,118
213,451,599,288,138,108,89,120
214,412,591,295,137,101,84,119
192,346,498,225,107,89,74,106
195,346,487,219,113,91,72,102
183,325,452,213,125,85,65,95
176,311,447,231,144,86,70,86
200,301,430,223,143,89,76,84
215,343,457,229,143,93,75,84
220,412,458,206,132,90,72,84
215,408,467,194,116,88,73,87
204,403,533,177,103,86,68,81
185,406,557,176,101,82,64,75
181,390,555,179,112,88,74,79
166,326,586,190,120,91,77,76
176,286,551,183,118,92,75,78
201,277,494,166,107,89,72,80
237,374,569,218,129,101,82,97
233,379,594,247,148,99,81,99
234,370,623,271,163,106,78,99
269,432,637,271,173,114,79,99
279,515,669,315,193,128,95,119
235,457,604,284,181,119,85,109
231,496,628,269,174,129,96,124
281,546,597,250,171,130,99,122
256,555,643,269,167,127,100,120
240,480,621,234,155,125,93,107
251,509,676,270,183,135,103,114
267,488,671,258,174,131,90,98
225,513,685,246,165,122,87,103
215,461,651,239,159,113,81,102
211,461,605,231,155,104,75,93
233,445,568,193,129,108,69,88
216,417,505,184,125,96,65,81
206,333,463,193,122,102,73,76
199,339,502,203,118,100,74,72
202,334,524,194,116,104,81,80
177,339,528,204,124,94,74,78
172,325,563,205,120,92,74,81
162,304,551,196,117,88,71,83
161,332,484,167,122,95,76,83
141,321,470,167,117,88,65,76
137,330,458,162,99,79,63,71
142,347,476,196,124,93,71,71
173,432,567,247,149,95,71,74
242,414,637,279,158,102,79,96
264,436,648,287,168,114,90,96
260,410,626,293,176,129,98,101
260,433,632,283,160,123,95,107
306,358,563,267,143,123,92,105
262,377,494,243,137,112,79,83
242,354,478,227,118,100,68,88
232,343,504,219,109,97,64,82
302,346,473,204,109,92,64,79
263,355,442,165,95,93,64,77
279,382,509,175,98,91,63,83
283,379,537,231,129,98,72,83
299,380,505,222,137,83,72,89
245,351,484,226,138,89,70,84
287,466,623,301,172,103,93,105
273,436,595,298,175,106,97,108
305,490,586,306,182,123,101,118
299,506,599,311,175,124,101,114
331,512,592,309,176,134,104,118
285,405,477,239,144,128,86,99
284,386,472,233,142,129,83,94
279,414,534,209,122,111,74,88
292,472,618,258,147,120,80,97
259,507,626,277,159,110,81,98
244,493,592,268,157,98,75,94
249,532,591,295,159,100,81,99
236,501,593,294,166,108,94,110
222,441,538,265,179,128,113,131
213,441,662,296,181,128,117,132
249,554,703,336,195,132,125,146
247,578,785,351,191,159,128,149
235,563,798,361,189,197,131,144
253,555,792,368,168,190,113,130
257,565,818,362,169,201,117,130
227,462,832,386,168,210,120,123
220,389,787,384,184,193,113,116
207,353,738,363,175,167,104,105
198,391,748,423,189,173,119,117
190,314,600,400,178,162,108,114
182,299,573,356,164,148,96,107
191,286,520,342,168,152,99,105
208,294,509,338,162,131,93,108
199,266,504,223,134,112,64,74
248,256,493,225,128,106,63,75
256,259,454,221,136,110,73,84
261,288,457,181,104,91,66,89
305,373,503,216,134,101,87,106
313,387,442,258,161,104,98,115
282,449,511,265,171,117,106,117
306,497,605,311,187,131,113,128
322,491,599,316,188,132,115,128
274,427,583,331,186,127,100,112
290,430,618,308,158,122,88,107
277,388,576,292,155,109,77,100
275,337,485,242,137,86,60,79
268,329,521,252,141,92,58,74
277,350,495,248,156,125,72,84
247,333,475,263,170,121,75,85
249,317,504,275,167,121,73,84
239,318,528,288,174,125,74,87
249,433,576,317,194,129,78,99
253,420,568,274,166,89,61,91
256,408,549,246,168,111,63,87
268,409,532,265,199,134,90,110
305,419,607,251,192,138,89,115
310,345,516,234,180,134,100,123
321,367,507,240,182,142,100,125
317,377,576,248,170,127,98,127
344,389,591,223,129,104,78,114
304,404,561,238,130,99,83,111
315,415,581,235,142,117,84,112
304,406,580,230,141,108,86,110
314,406,572,226,138,108,85,108
304,486,702,270,157,111,88,112
307,499,701,300,157,111,87,115
269,475,684,280,138,85,68,95
263,506,761,299,154,98,74,96
248,499,831,329,158,101,77,95
228,479,762,309,144,102,75,95
247,450,707,259,133,97,73,89
241,431,692,253,125,94,71,86
244,367,610,244,118,84,64,83
255,381,454,208,131,94,69,87
239,292,357,180,129,90,67,77
201,265,335,206,137,98,74,87
188,276,359,197,137,102,75,89
242,390,381,231,150,110,95,114
235,410,421,232,138,97,88,107
233,398,400,224,135,108,86,107
236,400,383,200,129,114,81,97
243,413,414,232,150,126,82,103
215,405,449,220,135,116,70,82
231,398,502,240,145,120,74,87
227,402,506,249,144,116,80,87
240,427,578,287,163,106,81,91
284,478,620,321,159,99,98,110
304,451,601,308,156,105,93,107
295,474,580,338,154,113,112,127
300,501,620,344,157,111,110,129
294,500,610,339,146,118,112,131
266,437,593,302,137,126,102,114
218,429,645,332,136,139,103,118
208,400,662,301,128,132,86,109
217,373,654,301,122,138,91,111
231,362,658,276,118,151,88,109
240,392,688,293,140,151,93,121
224,379,650,276,151,142,88,111
219,409,711,275,160,149,88,98
213,450,739,275,164,140,83,95
201,492,755,287,162,118,83,95
209,497,720,299,160,118,87,104
245,511,772,306,160,117,95,124
250,511,724,356,176,116,97,129
244,499,733,362,178,113,96,129
305,536,807,437,201,129,115,152
326,550,866,450,214,140,123,152
324,582,901,485,224,157,122,153
377,582,911,467,214,154,126,159
384,607,977,496,238,185,141,172
350,580,941,481,243,230,145,168
325,606,979,490,250,252,158,171
309,549,916,462,263,270,171,168
279,638,1027,514,296,287,185,186
373,648,1033,560,312,277,193,204
390,720,1124,602,321,247,190,207
399,738,1079,611,314,229,177,210
404,776,1128,611,295,191,164,203
399,744,1035,618,296,193,163,197
352,820,1021,598,274,224,174,197
320,747,923,547,247,210,171,187
285,683,868,506,226,194,161,169
297,673,832,529,232,198,167,187
265,598,832,473,204,177,157,174
220,519,812,420,183,126,117,138
210,515,798,390,186,149,115,128
211,531,833,394,187,164,120,130
228,594,858,465,224,178,148,151
234,603,871,460,220,174,148,151
214,526,795,450,229,175,150,149
215,515,770,451,245,174,153,156
311,616,873,526,265,168,171,190
292,590,883,442,234,161,144,165
297,584,844,434,243,167,142,165
302,574,834,432,237,188,143,167
308,602,922,468,233,182,140,169
244,513,890,379,216,173,121,137
256,454,819,365,228,180,126,134
246,458,787,372,216,220,138,132
247,506,860,388,228,214,141,136
238,475,801,322,211,213,134,124
204,436,711,324,212,214,131,114
196,453,754,326,201,205,134,121
218,474,761,305,181,151,116,130
227,463,734,316,186,135,115,137
229,436,666,316,183,120,119,138
252,476,653,327,182,134,131,153
300,525,717,472,288,204,190,223
318,536,707,485,295,211,196,223
335,546,675,479,288,212,199,223
365,578,695,530,317,232,213,242
422,607,697,557,333,236,214,249
443,647,722,556,341,238,215,243
468,671,784,585,353,237,216,248
501,704,790,582,359,253,230,247
515,702,761,528,332,234,216,227
503,727,814,504,312,219,206,217
456,671,840,414,250,181,151,151
405,612,785,343,249,230,144,127
351,596,818,331,255,230,108,114
387,630,870,367,282,249,121,136
329,533,841,358,285,250,118,129
314,511,734,297,245,230,101,111
329,584,775,323,242,191,106,130
349,576,786,348,216,169,114,140
279,554,846,347,190,153,105,129
314,606,900,332,217,201,121,130
339,625,881,339,241,217,138,145
357,564,912,360,229,223,140,136
336,505,879,338,235,221,133,127
312,469,811,321,229,216,131,119
319,514,800,356,213,178,120,124
360,499,828,344,190,163,106,122
358,533,813,300,172,128,91,116
354,560,770,298,167,122,96,120
418,634,812,350,190,130,100,134
413,623,819,350,211,142,107,151
369,632,794,382,205,131,106,150
346,622,784,401,233,157,112,151
371,671,855,450,239,156,117,159
328,607,803,430,228,156,124,165
306,562,792,440,208,139,119,149
302,541,826,437,221,148,122,150
324,528,785,435,208,134,118,152
381,603,793,422,209,135,128,176
366,638,824,413,218,136,122,165
360,606,738,369,201,134,119,157
355,597,693,367,197,138,122,158
351,617,784,389,189,132,127,161
323,638,798,426,196,136,129,146
310,581,784,427,192,136,134,145
318,602,792,434,200,187,140,149
327,627,800,416,186,185,138,151
311,605,743,413,213,197,147,156
246,449,667,339,204,193,134,142
283,558,657,333,203,189,136,154
269,605,689,328,196,138,131,156
254,612,694,322,198,124,123,147
247,619,709,291,172,118,110,133
286,598,684,280,162,117,108,135
269,533,654,265,158,117,91,115
280,522,705,284,164,120,92,113
277,473,689,282,169,144,109,119
277,497,643,282,173,145,105,120
249,494,666,288,172,143,100,110
268,531,708,311,174,143,109,114
262,565,704,381,187,146,118,118
262,561,724,392,189,125,107,115
325,623,814,425,203,134,124,134
317,684,901,484,229,147,130,145
285,627,894,461,216,142,122,139
284,559,818,381,205,142,117,136
311,605,814,426,241,176,138,163
285,558,779,407,227,172,131,158
285,487,703,354,205,164,127,155
277,488,692,359,204,172,135,155
284,492,740,366,195,162,128,150
256,495,706,287,138,125,100,118
219,436,685,273,136,114,88,102
280,535,720,353,183,135,112,127
304,554,711,357,189,126,101,130
302,618,825,421,203,135,111,140
294,579,860,422,202,134,107,133
301,625,887,432,198,128,106,138
245,556,816,368,153,110,92,121
215,538,808,367,149,112,92,115
194,434,677,290,132,110,78,100
210,433,671,310,138,114,87,108
186,433,657,292,136,120,89,102
167,392,638,270,138,119,77,84
208,389,603,253,137,113,74,87
222,388,594,251,150,113,85,93
226,413,587,251,164,114,91,100
222,331,464,215,150,100,84,95
242,335,489,199,158,123,89,96
210,352,556,251,189,159,112,107
207,385,523,244,181,163,110,104
185,345,448,215,157,156,100,91
178,336,462,223,164,159,99,90
187,372,470,221,150,141,94,89
185,364,395,163,107,111,74,76
205,423,501,198,98,101,66,76
248,542,668,266,117,107,78,96
257,563,719,275,126,123,86,106
234,544,703,280,128,124,87,105
230,532,762,316,157,137,97,118
218,485,720,304,170,151,110,131
256,475,638,287,181,158,124,149
284,490,593,277,174,150,125,151
309,547,683,314,213,185,149,169
314,585,705,316,194,169,140,159
302,587,799,325,183,157,135,151
249,550,750,291,161,146,117,123
216,535,823,325,185,148,119,123
187,500,821,300,142,99,94,108
204,494,787,281,145,95,96,119
225,542,734,273,146,91,86,115
199,470,779,277,149,86,81,111
192,463,723,235,120,86,74,106
201,499,746,320,197,118,85,112
198,473,714,310,192,116,81,100
191,428,737,338,206,121,89,108
190,437,698,338,204,131,90,107
187,436,653,337,201,130,92,103
180,417,617,277,135,104,79,88
175,454,621,278,145,105,88,95
151,407,514,227,119,100,80,78
157,404,586,229,117,90,80,82
171,403,601,233,119,82,74,88
192,410,591,241,128,83,77,101
171,364,640,247,126,86,76,103
181,412,712,270,150,104,83,109
197,463,754,278,171,114,88,116
207,444,783,302,182,118,92,118
178,397,792,281,177,120,87,107
184,421,780,286,176,123,85,105
192,426,744,302,172,126,96,109
190,396,695,344,174,127,106,113
171,416,685,332,165,121,107,109
167,407,734,377,173,130,111,107
175,432,778,403,189,128,112,115
195,463,827,443,220,127,113,123
209,537,863,447,234,127,108,123
251,588,989,513,269,143,121,144
264,591,910,478,260,133,120,146
280,583,929,490,266,137,125,146
287,534,915,489,257,136,132,151
298,481,942,510,264,149,150,164
287,534,928,534,261,155,158,169
303,660,1014,576,274,156,161,173
298,691,992,623,307,177,167,183
287,744,1031,623,308,179,163,179
276,733,1046,624,305,182,151,170
259,654,957,561,285,172,132,151
227,543,887,522,271,167,125,141
219,491,827,446,229,149,120,132
200,413,788,410,215,147,110,123
194,466,703,356,200,141,107,121
201,452,748,360,196,148,111,124
232,457,752,397,213,160,125,137
235,474,823,464,236,167,129,145
235,478,771,452,219,154,123,136
240,444,756,440,202,142,125,137
252,580,797,470,209,140,135,135
291,664,848,585,253,150,163,172
364,667,870,553,225,136,157,171
428,720,942,570,230,149,168,198
420,699,975,591,238,147,163,192
422,667,985,613,277,165,167,205
414,650,1022,558,267,178,157,198
396,679,973,567,290,193,172,205
335,624,893,564,309,189,165,184
344,651,871,611,333,204,178,201
332,591,807,592,312,191,172,191
335,549,784,609,309,187,177,192
286,536,929,628,319,215,179,190
340,610,1091,684,334,234,200,219
459,782,1247,787,446,297,265,294
469,826,1259,803,443,294,268,315
453,839,1296,804,506,353,296,335
471,841,1216,810,512,348,307,352
503,839,1114,808,524,353,314,362
429,771,959,691,434,305,259,304
423,741,918,662,453,331,265,297
419,729,799,614,395,266,221,264
407,683,771,551,369,244,194,235
339,665,816,510,356,247,179,209
289,571,832,506,352,244,180,203
321,596,841,496,327,210,165,190
348,592,869,459,285,193,152,177
375,661,877,519,318,224,163,192
399,700,880,570,375,242,182,220
422,708,892,554,363,231,174,214
417,700,918,578,362,228,167,207
384,682,898,592,364,229,171,209
349,649,895,543,331,195,158,193
370,630,853,514,259,148,146,186
369,620,849,557,274,158,159,203
342,639,822,570,296,180,178,216
337,627,772,543,282,172,173,212
400,650,745,535,283,178,174,212
334,610,677,464,250,171,157,174
330,612,587,427,226,162,152,170
330,585,625,466,231,176,155,163
341,590,653,481,248,185,155,161
289,574,714,553,308,233,162,163
362,611,842,592,346,249,159,174
387,606,843,591,377,264,161,168
385,573,788,512,356,257,145,150
383,575,807,523,383,272,156,160
347,551,738,442,329,231,146,148
281,558,683,401,316,216,139,128
218,509,655,338,296,219,133,118
255,515,641,312,280,198,121,116
259,566,654,270,234,172,104,98
272,581,701,310,238,168,116,122
281,502,636,287,189,157,113,119
277,506,636,277,180,179,110,108
230,534,676,311,189,190,116,109
242,499,652,345,197,200,129,126
257,483,620,342,211,212,123,111
269,547,721,380,219,210,122,124
271,544,732,383,192,156,109,121
269,509,704,383,186,137,100,118
253,502,704,356,185,118,87,105
228,479,770,351,178,102,78,98
194,388,658,316,175,107,70,74
228,415,704,337,191,131,102,129
279,465,678,315,190,131,108,139
295,465,680,319,178,135,112,147
296,458,592,299,157,127,110,148
291,519,669,318,168,123,114,157
298,576,635,369,190,120,113,150
286,556,637,378,198,124,117,150
274,577,631,368,203,139,116,144
302,582,626,357,209,145,121,155
388,555,535,339,206,151,121,153
361,468,569,321,217,174,112,131
347,428,577,305,219,179,105,125
347,423,544,303,225,167,104,124
327,417,562,344,239,186,103,111
216,420,580,351,243,182,99,109
207,440,494,278,196,143,79,96
218,515,623,353,206,142,85,111
205,497,648,394,211,152,87,109
198,507,642,381,189,121,88,112
278,608,732,474,223,173,133,165
294,618,716,479,230,179,140,169
273,580,613,437,210,177,140,161
272,560,606,405,195,169,139,164
296,613,607,393,199,177,140,166
220,488,447,254,142,126,99,111
201,451,477,246,135,137,101,104
229,484,533,354,176,148,116,124
273,535,569,349,185,150,113,119
269,478,655,394,231,152,113,120
277,495,668,397,233,152,113,123
281,497,659,406,236,137,113,134
274,479,654,346,215,130,105,126
242,405,708,411,238,150,126,142
242,424,651,382,212,158,129,143
243,389,657,378,216,156,130,140
264,396,653,368,213,152,121,135
251,365,631,365,218,150,120,130
332,542,560,363,223,146,117,144
312,510,544,352,194,125,109,137
318,516,527,349,202,142,109,137
314,551,549,384,216,152,122,148
343,601,544,406,216,158,137,176
263,467,519,352,177,140,122,152
265,471,475,352,186,144,119,153
271,480,532,356,176,131,119,155
276,540,640,357,162,122,112,150
256,540,687,314,141,96,76,104
248,523,721,300,137,98,75,104
256,545,729,285,136,98,79,103
229,537,728,297,138,101,81,100
246,475,641,254,139,104,77,91
232,414,593,236,151,110,80,86
240,466,593,249,160,122,86,88
253,462,614,269,154,120,87,97
279,536,653,323,209,133,114,126
243,542,656,326,215,142,115,123
249,525,697,323,203,137,113,122
254,489,632,305,194,129,107,117
286,594,625,295,196,144,116,126
254,525,556,221,141,128,87,93
268,502,550,202,123,116,86,100
259,508,515,195,126,118,86,101
260,526,531,199,131,122,85,97
218,418,501,182,132,99,63,73
231,446,600,213,121,93,57,71
213,419,580,208,119,94,54,65
301,486,609,256,133,114,79,92
303,484,625,271,131,110,86,102
299,452,635,282,129,106,89,102
291,421,540,251,129,111,88,102
309,440,564,256,130,107,85,100
221,346,453,203,140,116,72,76
198,322,525,214,157,117,66,68
181,305,538,209,165,124,66,69
203,324,534,224,167,126,70,72
233,429,533,248,175,128,84,87
243,437,576,268,172,120,78,88
248,404,451,235,150,123,76,82
279,460,507,273,161,125,85,99
285,454,516,279,185,140,94,102
236,338,470,254,181,152,89,90
226,332,436,241,171,141,91,96
270,375,488,254,173,136,92,102
256,357,397,210,156,135,87,95
232,339,379,186,122,140,80,89
267,383,456,235,154,151,93,117
281,432,513,250,154,153,94,129
243,413,506,241,158,152,89,126
221,377,503,238,156,150,85,117
221,381,510,250,159,130,95,130
223,410,531,218,125,100,82,116
206,384,518,227,126,97,81,103
206,393,498,230,118,93,84,103
224,434,492,225,118,91,86,109
255,517,515,221,111,85,78,111
251,614,592,244,128,88,79,110
253,614,562,212,132,95,80,109
274,636,601,216,131,93,77,106
271,627,688,256,133,96,82,109
277,583,692,262,137,97,78,96
253,447,619,235,144,99,78,90
248,447,622,239,135,85,73,89
223,396,576,224,135,88,75,89
215,375,560,226,140,83,72,86
176,346,538,208,135,77,67,78
167,292,456,201,109,71,57,74
167,295,427,191,108,68,55,73
177,360,549,218,116,69,66,86
183,345,470,179,120,71,61,79
171,346,440,170,129,79,64,81
198,396,472,190,139,86,76,85
192,366,476,191,137,86,81,87
169,309,352,167,132,84,72,80
167,368,388,157,129,87,72,82
191,385,387,197,143,99,85,94
166,401,396,195,139,90,76,88
168,402,403,198,141,92,73,87
177,405,374,196,142,94,76,90
196,391,312,189,137,115,82,93
215,444,355,167,117,109,76,97
224,394,336,163,107,111,79,102
229,421,319,167,105,112,80,102
225,448,383,163,113,114,78,93
202,423,398,166,115,99,73,87
170,388,377,147,105,88,65,75
178,433,418,159,112,88,65,78
165,412,439,161,125,94,66,78
177,440,444,169,123,92,68,85
175,443,457,169,115,82,62,87
157,401,439,167,119,85,64,85
136,350,378,160,120,83,59,74
173,337,364,158,107,70,55,77
177,285,397,159,105,68,56,80
189,317,369,163,112,83,60,80
192,310,367,164,108,83,55,73
206,326,375,145,98,83,54,75
196,371,393,188,124,118,65,90
182,353,360,201,138,120,63,85
180,334,392,219,144,120,66,88
179,344,466,229,146,117,68,94
239,495,545,278,158,121,78,110
255,503,567,264,152,99,78,101
256,534,601,258,142,103,83,104
256,540,594,253,157,110,81,101
270,557,545,245,158,112,79,97
220,471,582,210,153,114,74,79
217,437,541,184,135,105,67,72
223,392,467,168,137,111,66,68
221,357,467,157,105,96,62,72
228,333,468,156,104,98,63,79
247,324,431,155,125,108,70,83
222,366,489,164,127,110,75,89
210,363,500,179,113,96,69,88
230,481,564,198,115,92,72,92
301,509,601,215,120,93,82,109
295,520,610,338,185,119,122,150
301,505,571,350,208,124,124,151
311,529,567,365,227,129,125,154
300,446,533,358,226,127,124,151
218,417,501,349,230,130,119,137
212,383,479,233,170,90,77,95
212,384,517,233,149,87,74,99
214,359,519,200,122,83,74,99
209,366,485,186,119,86,75,96
200,383,495,183,111,78,77,98
197,363,450,197,116,88,81,102
214,334,409,169,108,85,74,88
210,366,479,187,109,86,79,93
207,342,486,194,109,83,79,96
213,314,494,207,123,99,82,101
210,324,564,208,119,89,72,90
203,356,624,227,132,95,77,95
211,322,574,214,131,91,73,91
224,339,624,220,140,94,74,91
220,388,611,227,132,79,67,85
200,366,537,201,125,80,65,80
207,392,476,191,117,77,64,87
184,397,467,181,121,81,59,81
165,401,395,188,121,85,58,77
188,370,387,170,111,86,63,79
203,361,335,163,110,84,63,78
180,302,367,148,105,79,58,63
232,348,404,162,100,79,60,79
248,327,395,142,91,74,61,86
256,367,447,169,110,74,69,98
244,376,457,172,124,89,75,106
266,380,410,195,141,97,84,114
259,386,388,214,159,106,88,116
270,502,436,240,170,112,93,123
244,477,380,219,166,111,82,109
254,479,377,225,161,101,79,104
239,515,493,244,148,94,72,99
217,498,532,237,133,85,64,92
189,391,571,243,117,81,59,83
224,392,621,284,126,93,76,100
238,412,638,290,132,99,76,102
242,465,594,269,132,102,82,112
249,482,542,257,127,106,85,111
246,489,512,227,129,107,85,108
222,483,529,176,112,95,79,105
192,471,554,146,95,89,78,101
267,419,536,132,90,88,74,96
257,405,566,134,96,94,74,103
266,374,507,137,93,98,74,105
258,357,411,125,87,97,62,92
288,378,422,157,92,102,62,97
211,350,428,162,94,97,56,93
234,369,424,175,108,113,80,98
236,393,496,219,115,108,84,104
277,453,537,288,135,113,90,116
278,497,656,317,148,120,100,117
298,546,699,386,173,127,117,143
279,510,700,400,165,102,107,136
274,530,732,407,171,107,107,132
239,505,735,365,164,104,102,124
207,439,646,335,157,91,93,120
176,369,652,258,136,88,75,84
171,401,698,234,130,82,65,75
178,408,672,198,120,75,65,78
177,405,689,205,121,72,65,76
175,426,686,204,121,74,73,82
195,487,735,271,130,89,77,91
230,487,673,262,138,102,83,101
218,441,629,244,131,101,76,90
217,415,580,240,131,107,80,93
221,414,570,245,141,112,81,91
333,439,495,194,131,100,84,114
314,462,529,236,136,91,82,109
315,461,546,236,145,91,84,112
324,511,591,248,142,88,84,118
343,530,572,260,144,94,89,128
269,480,507,236,141,102,91,107
270,467,525,226,140,113,93,111
274,487,554,234,138,115,94,114
267,494,676,299,154,119,100,114
252,505,832,388,154,109,89,112
202,526,851,392,161,117,81,108
229,574,893,415,166,114,81,108
257,643,912,421,165,120,83,113
251,608,871,378,163,133,76,110
245,584,718,276,153,134,77,100
249,526,706,270,144,121,81,104
233,426,607,222,136,119,78,97
203,318,567,227,135,108,77,90
206,371,481,221,122,88,75,84
219,433,570,263,154,102,88,99
205,439,556,265,157,99,84,97
238,528,579,255,150,94,82,103
253,551,591,279,167,119,95,111
249,505,589,281,165,118,99,113
259,460,599,276,155,112,95,108
278,458,606,281,151,114,96,109
245,384,592,280,152,120,106,111
259,402,614,284,149,113,101,115
257,401,585,278,156,114,96,112
233,384,496,263,135,107,92,110
270,436,540,278,147,106,90,114
268,462,645,301,156,99,85,113
257,485,678,327,162,93,95,124
276,530,757,361,170,105,114,140
285,523,755,347,164,104,115,138
260,511,778,367,169,106,119,141
246,489,742,357,165,104,115,134
237,468,661,297,142,98,102,121
216,435,607,249,122,85,81,102
255,543,725,277,141,98,85,114
241,554,753,306,155,108,100,123
258,563,718,291,145,105,96,121
294,643,848,367,179,122,112,142
318,655,854,378,185,126,116,155
307,608,904,409,195,132,128,165
318,638,868,384,200,135,119,159
315,652,930,393,221,148,124,163
297,586,865,430,237,150,123,155
306,715,952,488,253,150,133,155
310,737,869,482,255,152,123,146
303,724,898,460,236,146,118,141
303,722,978,498,227,146,120,139
289,701,999,417,185,134,106,120
266,574,916,332,154,128,88,103
237,542,913,278,117,113,77,81
271,545,919,324,181,153,114,121
269,508,819,283,178,145,109,123
356,550,800,406,256,176,168,203
363,599,877,469,266,182,177,213
392,678,877,501,293,200,192,233
368,647,853,501,270,171,174,216
369,660,834,495,265,169,177,219
335,714,835,449,220,154,133,169
364,666,775,414,223,154,130,164
334,575,749,380,194,126,107,138
325,560,780,438,199,131,113,145
354,603,780,450,205,133,119,155
312,533,749,413,180,112,111,141
282,556,692,392,174,109,101,131
271,542,693,414,198,123,107,133
281,552,709,315,189,120,104,125
275,616,756,320,208,131,111,126
308,569,738,292,201,129,109,123
284,525,792,293,191,123,106,118
301,580,846,372,210,132,116,135
287,624,793,378,199,124,110,128
271,538,767,398,203,129,104,127
232,539,781,401,210,135,105,124
250,572,749,409,217,138,111,127
224,501,693,319,179,124,98,109
238,438,635,295,172,122,96,111
269,400,564,246,162,120,97,108
286,404,574,253,151,113,100,120
274,385,571,251,150,109,97,122
294,474,622,305,168,121,118,141
309,498,718,344,186,131,129,149
273,510,843,343,170,112,117,137
266,608,940,411,210,127,120,143
292,626,958,431,234,140,130,157
276,564,880,383,216,122,106,135
253,563,861,396,227,138,115,142
265,566,721,397,239,148,119,144
263,481,640,406,235,148,120,135
272,539,681,444,237,152,128,144
303,550,698,464,244,158,133,151
302,527,623,427,223,138,115,137
280,521,748,428,215,131,115,137
264,503,696,365,186,117,104,129
249,409,608,273,162,110,77,99
237,412,632,274,164,111,87,104
247,441,688,283,163,110,91,105
266,476,605,297,171,116,97,115
314,600,751,359,213,138,109,134
328,636,795,400,212,129,114,140
330,688,868,421,211,125,115,145
320,682,913,419,209,130,114,144
309,660,994,415,195,122,109,140
301,570,949,396,160,105,107,134
270,517,945,366,146,104,103,128
258,516,956,323,133,99,90,114
268,565,920,331,141,96,90,119
313,584,864,353,166,107,115,138
286,546,783,290,151,96,109,132
282,564,807,311,157,96,109,133
265,479,688,313,166,104,109,129
263,414,681,358,170,108,114,135
203,350,659,324,151,101,86,107
184,339,650,331,170,131,88,100
193,381,668,311,164,133,88,99
219,489,713,363,187,142,104,111
250,547,772,380,213,155,117,131
255,554,805,406,219,161,124,136
262,645,862,489,247,165,148,169
269,637,827,487,248,163,149,171
267,608,807,471,232,153,142,169
239,567,835,505,260,159,144,167
254,567,777,500,271,162,148,179
255,534,787,432,235,146,124,156
280,550,798,467,238,157,133,167
274,510,781,434,232,156,128,162
264,504,763,344,163,133,108,143
271,586,801,359,153,131,100,133
278,563,761,350,151,119,98,126
268,519,745,301,142,101,82,104
292,519,802,334,152,111,83,110
291,537,744,356,171,118,88,113
305,498,717,345,165,122,94,120
321,496,747,341,164,126,98,125
299,489,734,354,171,129,100,126
285,521,688,348,177,139,121,138
305,557,780,373,176,142,137,158
289,541,870,355,166,132,129,148
249,511,891,369,180,140,129,142
250,537,919,365,174,136,128,143
224,504,940,350,166,124,113,126
202,444,885,305,163,125,93,103
195,441,835,342,167,119,94,108
199,441,759,321,161,118,88,108
207,421,752,347,176,136,93,111
242,432,744,402,219,154,115,133
265,473,791,436,234,163,129,147
281,503,759,406,233,172,132,145
280,479,749,408,224,165,132,144
283,528,773,443,235,166,147,159
275,565,761,395,189,141,127,137
278,579,655,368,180,137,124,135
284,590,680,395,199,147,137,152
294,613,745,440,229,159,149,165
294,620,759,421,225,154,137,155
300,633,787,450,244,167,147,170
288,630,864,463,247,162,140,157
274,595,899,501,262,162,144,169
259,610,893,483,245,163,131,158
264,565,817,434,229,158,124,152
264,527,803,437,222,152,127,153
281,507,842,485,237,165,155,184
272,517,742,439,225,153,146,166
277,490,699,416,221,143,149,170
277,487,757,419,219,142,152,176
256,459,740,412,209,129,141,164
214,405,589,312,168,102,104,123
197,364,612,281,138,94,83,102
224,412,699,310,142,99,79,99
201,398,726,365,168,100,83,104
188,387,696,326,157,100,74,95
185,378,669,311,160,105,67,92
252,509,750,398,208,130,108,134
231,481,654,395,212,121,112,139
283,486,561,359,208,128,113,144
287,481,613,362,213,133,115,146
302,484,614,360,205,125,115,147
248,319,487,294,164,102,86,119
255,299,529,277,150,100,81,108
251,330,533,293,148,104,80,96
257,401,492,320,148,104,87,108
239,409,511,334,157,108,87,111
236,415,493,298,139,104,85,104
230,410,424,282,135,103,82,107
201,403,428,251,129,92,80,100
195,370,415,226,132,89,73,89
207,367,454,255,148,99,86,96
204,364,469,269,155,101,89,100
192,359,513,287,160,102,91,97
185,353,575,356,187,113,105,120
218,334,613,395,203,122,119,136
213,330,601,371,191,110,110,130
213,320,594,366,184,108,116,127
233,344,624,403,196,113,124,135
223,364,558,362,169,99,107,117
222,349,507,308,141,88,93,100
231,383,530,315,139,91,91,101
236,435,595,340,156,102,80,102
224,418,568,270,155,112,69,93
235,382,609,253,176,129,80,94
219,436,658,264,179,129,82,98
227,427,735,308,195,134,90,100
245,399,681,270,185,127,87,96
241,402,669,280,185,115,85,95
228,420,641,288,173,101,84,96
226,368,609,285,174,100,88,95
207,334,452,220,153,92,80,92
203,310,483,217,149,89,79,92
211,345,489,225,147,97,84,97
214,355,537,199,132,89,76,86
208,350,542,192,129,86,63,77
204,349,552,182,153,113,68,73
189,399,566,181,152,115,69,72
206,417,635,181,135,104,62,62
214,401,587,181,128,102,61,63
203,399,577,200,133,106,68,64
205,417,572,207,110,74,69,70
229,396,536,217,130,83,80,87
206,365,491,231,140,91,77,84
194,336,491,233,135,90,77,84
243,410,550,217,145,96,74,96
244,401,583,224,142,95,73,103
235,394,572,222,126,90,69,100
252,368,529,196,121,87,75,109
253,413,573,245,155,101,82,114
218,372,518,245,144,97,81,107
258,432,557,247,145,95,79,106
258,437,547,253,169,112,81,99
236,462,589,263,170,111,76,91
241,544,616,238,154,102,79,105
275,539,622,237,161,109,84,109
233,486,587,230,163,115,84,104
221,478,614,238,152,104,85,102
251,506,701,298,181,119,95,112
244,382,629,286,176,121,91,96
202,372,624,289,165,110,85,87
201,374,600,294,162,102,84,87
189,346,592,286,156,97,75,83
142,270,436,196,111,74,62,67
216,307,484,199,103,64,57,67
209,314,562,224,122,68,59,72
213,328,560,214,130,76,60,68
225,373,624,224,121,78,62,74
251,387,645,231,129,83,62,81
202,374,667,219,152,103,68,83
206,360,599,183,137,102,66,82
253,397,638,193,125,100,71,100
248,367,584,186,144,106,70,99
251,476,669,200,145,108,79,101
242,463,620,246,133,91,74,100
256,453,599,237,135,94,72,94
246,461,686,274,161,106,77,93
265,499,715,289,172,106,81,93
246,380,624,305,179,116,87,98
235,378,635,311,190,123,89,96
219,419,678,336,199,133,95,103
204,375,585,320,192,125,90,96
225,334,614,333,191,126,90,102
220,338,680,343,178,110,78,90
224,345,693,317,187,121,85,93
219,304,660,293,178,113,81,87
200,307,634,276,167,108,76,79
186,414,589,238,173,113,82,80
210,465,607,224,187,128,87,95
218,481,671,269,185,122,97,107
243,501,741,291,192,127,102,118
255,541,778,321,210,134,107,123
244,460,745,317,182,118,99,116
231,471,707,348,203,128,115,127
226,492,632,351,201,123,111,123
211,517,625,347,189,111,107,117
193,488,564,320,170,110,104,116
170,494,663,332,177,112,105,116
202,433,654,286,144,86,84,96
209,381,644,262,130,86,72,96
206,361,644,258,135,87,70,95
205,334,709,299,136,81,68,90
229,336,663,305,143,86,72,90
204,395,634,317,161,102,80,94
190,398,624,291,151,98,74,79
180,363,561,282,148,100,76,74
223,362,475,239,148,99,79,78
209,352,445,227,147,104,78,77
208,279,421,193,127,95,71,68
237,304,511,211,132,106,78,76
263,299,541,226,142,118,85,86
244,408,654,299,157,120,94,99
242,403,631,286,145,116,91,96
242,427,702,327,151,110,91,100
248,432,656,325,161,114,93,105
237,462,635,327,173,109,90,102
244,391,567,271,162,112,81,90
246,428,621,291,170,113,88,101
240,407,572,258,164,111,84,101
213,410,619,273,157,102,81,100
216,452,655,297,136,95,84,103
192,446,659,312,140,92,87,107
200,427,658,357,179,121,106,115
232,449,639,369,189,127,109,116
239,451,619,361,182,122,105,111
223,375,623,338,184,124,100,105
228,367,611,315,181,121,94,96
237,398,626,244,134,90,64,76
238,435,661,196,118,84,57,69
225,398,598,164,118,86,58,74
224,416,567,149,113,83,61,71
216,397,551,178,122,89,63,80
203,378,487,175,120,91,61,79
185,348,462,188,113,89,63,77
192,403,539,233,138,111,76,76
190,386,528,236,139,112,74,74
215,432,550,209,131,126,84,75
211,462,591,228,151,129,87,82
207,456,607,257,178,134,92,88
202,410,573,222,161,115,80,82
214,420,547,219,170,119,81,89
208,423,568,233,166,102,72,92
223,389,589,253,165,100,73,90
202,369,574,238,140,92,69,84
202,382,566,254,142,92,75,89
206,402,570,251,129,86,72,83
237,406,550,267,135,88,75,84
216,397,510,236,121,82,71,78
221,384,488,238,128,87,77,86
222,377,527,235,126,83,71,85
201,366,531,233,126,86,70,83
198,498,669,299,146,92,82,95
199,514,688,309,170,92,86,98
198,521,711,310,165,91,82,94
221,546,690,308,168,96,81,95
239,559,761,332,174,105,87,105
207,449,746,361,183,122,98,108
206,477,761,358,156,116,95,110
211,491,749,367,163,120,95,112
188,514,808,410,176,121,102,120
175,492,790,399,174,112,101,114
154,444,657,315,137,76,75,92
160,427,603,311,147,97,77,89
147,410,568,281,134,87,71,80
146,400,533,256,145,98,70,70
164,393,502,259,143,101,71,76
177,453,518,268,154,109,80,86
183,424,493,267,149,98,80,93
237,455,566,296,150,100,91,105
236,407,519,251,113,81,85,102
225,463,467,250,123,84,82,94
216,416,452,226,116,77,75,88
203,432,494,225,111,76,70,80
217,473,494,253,142,99,86,92
215,488,525,256,149,106,86,90
212,442,525,237,134,98,86,91
234,507,610,344,162,102,96,109
236,490,582,359,168,101,101,113
200,442,571,331,155,87,84,94
231,487,607,340,154,84,86,101
232,496,634,352,157,89,86,103
227,457,721,304,161,106,83,93
224,452,760,303,159,110,80,88
226,462,747,296,159,113,82,93
235,525,812,363,172,124,95,110
238,515,829,368,182,125,96,109
220,491,691,325,149,107,87,98
230,504,715,348,154,106,96,107
264,509,741,361,152,101,92,111
256,384,607,316,146,88,78,92
255,377,592,327,141,83,73,88
260,384,668,329,140,84,77,92
267,391,611,296,134,80,67,95
220,339,555,271,127,72,61,84
203,359,620,236,115,72,61,81
212,363,694,285,128,81,71,91
211,385,649,291,141,88,67,89
201,345,682,286,140,89,66,75
203,362,687,287,132,88,67,77
198,360,649,316,152,103,81,86
206,423,632,318,144,110,86,92
202,390,598,305,130,104,89,90
189,396,548,297,125,103,85,90
174,393,578,334,135,103,84,86
169,456,605,339,142,96,75,76
251,451,575,320,140,91,76,92
265,479,619,355,150,96,80,96
278,497,635,356,147,93,83,102
276,499,615,329,152,100,88,107
274,439,660,337,140,94,90,110
191,420,642,329,140,85,77,91
212,449,666,350,169,97,86,111
228,440,659,352,171,96,82,105
236,420,654,344,168,90,79,104
248,430,650,376,178,106,91,115
267,427,621,343,170,105,91,111
250,416,567,308,141,99,81,93
223,438,671,323,148,100,82,93
222,436,661,331,150,110,99,108
201,404,568,267,131,101,92,100
226,471,626,338,162,114,122,146
259,439,629,322,155,108,120,146
279,442,604,331,160,117,126,151
278,451,612,320,151,108,111,139
291,512,703,321,147,105,104,136
266,457,638,269,134,99,75,93
235,462,763,287,133,95,74,92
209,440,696,257,122,84,61,84
205,481,705,284,124,81,65,81
192,436,620,268,121,76,64,75
186,404,611,254,105,66,56,67
174,398,468,256,110,70,59,66
177,388,445,253,123,74,62,65
171,323,453,240,138,86,69,65
166,324,450,239,134,80,68,66
145,315,477,233,136,85,65,62
150,293,436,199,129,88,63,61
161,299,448,199,112,81,61,63
160,317,467,221,114,88,53,64
188,314,447,207,117,95,58,70
206,322,434,194,109,93,55,71
226,373,535,255,136,102,71,91
246,519,702,296,150,107,78,103
265,590,729,293,141,93,87,107
267,599,735,323,165,118,117,123
250,603,759,337,163,131,189,138
231,590,758,312,157,125,187,126
238,517,629,289,154,127,192,125
221,447,585,269,150,127,192,124
204,414,581,244,126,105,178,108
216,394,553,241,147,99,108,102
260,444,498,251,154,111,118,119
243,397,472,246,153,107,110,114
240,377,415,239,153,109,105,112
258,418,438,250,149,109,101,110
277,447,458,270,157,117,113,113
242,376,423,252,147,117,96,92
229,349,414,240,148,125,96,90
226,353,414,238,153,127,93,87
215,339,431,289,167,127,94,99
182,321,402,277,150,108,75,84
186,332,423,286,144,94,76,87
185,346,512,313,151,93,70,87
187,331,551,320,151,95,78,97
227,398,620,280,155,101,87,104
232,389,700,281,151,99,84,103
246,379,704,275,148,97,86,104
243,367,653,241,133,83,86,102
254,397,672,247,132,83,85,102
201,304,639,238,126,91,70,84
205,314,543,219,123,92,73,81
185,312,505,200,118,92,66,74
197,342,545,213,123,92,67,83
189,319,498,202,124,89,57,74
186,327,479,193,107,66,56,69
168,299,467,187,108,63,47,67
261,376,532,231,127,74,57,95
259,349,500,230,126,74,65,89
284,352,514,224,114,75,68,89
312,352,524,269,120,82,71,96
341,420,537,274,130,105,82,103
274,400,561,272,135,103,83,88
284,397,564,263,134,106,78,88
266,405,615,294,146,105,82,88
270,436,684,292,157,115,91,103
247,401,699,337,159,106,97,114
240,338,632,316,153,109,101,115
260,374,691,384,193,135,116,133
299,383,616,359,184,135,110,134
268,397,533,332,172,124,99,119
269,394,500,286,163,118,89,108
263,395,510,285,154,119,83,99
243,400,489,265,131,96,75,93
221,403,493,272,136,100,78,94
228,350,435,253,130,101,77,93
220,344,546,288,138,104,84,99
220,369,628,301,140,98,81,102
215,328,580,238,102,89,64,87
172,291,588,240,103,93,64,80
165,311,627,276,123,92,71,91
149,306,556,238,114,86,56,74
201,322,524,260,118,88,63,90
199,322,519,277,131,90,66,90
202,359,547,277,137,82,68,95
209,335,495,242,123,78,61,85
262,355,505,255,128,85,67,100
238,340,459,215,123,78,65,88
236,356,518,213,109,76,60,83
235,329,510,204,96,78,57,79
249,411,593,252,139,95,73,94
303,481,621,305,175,119,95,119
307,486,674,327,193,130,100,129
304,466,656,325,197,134,104,130
321,508,699,383,225,143,122,151
319,476,702,413,223,144,130,161
237,395,673,402,214,126,118,149
269,383,614,393,209,124,115,143
268,404,585,390,210,124,113,144
267,394,617,348,181,112,98,128
258,381,569,301,193,126,92,119
242,377,578,276,189,134,93,103
195,403,677,351,203,138,106,115
212,401,695,344,210,137,107,115
195,377,613,332,210,138,103,107
198,351,604,332,183,128,97,101
197,348,646,315,161,115,90,101
200,294,520,215,134,105,72,82
184,288,502,216,127,101,74,82
200,322,550,244,134,101,77,90
183,335,536,246,134,82,71,86
194,348,540,275,141,83,74,93
192,351,555,273,128,76,69,90
192,349,633,302,136,80,73,95
186,305,595,348,165,89,75,89
201,306,633,336,158,89,75,96
197,278,567,309,151,87,75,91
204,288,566,317,166,93,83,99
228,303,471,285,160,99,80,99
218,284,524,198,118,85,78,99
204,259,501,174,114,82,72,86
206,338,522,171,124,99,73,84
219,360,536,183,113,94,69,77
188,363,568,199,103,86,65,68
225,375,530,194,118,100,69,77
243,446,554,229,120,104,79,95
292,414,566,247,114,96,81,109
267,397,557,225,110,103,79,109
267,380,524,215,118,107,81,112
238,386,666,258,119,103,83,113
247,412,658,250,121,104,81,111
213,420,640,248,139,103,82,110
235,427,718,298,155,109,88,113
242,446,742,310,161,110,89,114
234,427,610,272,163,121,96,110
270,369,576,255,165,122,93,108
243,335,564,246,148,117,85,93
236,322,424,178,141,111,88,99
229,325,414,179,147,112,88,96
289,413,408,217,149,95,81,116
239,406,429,244,158,97,87,120
241,401,429,250,158,97,85,123
237,399,435,257,153,90,74,113
238,390,387,237,137,83,75,117
218,450,431,237,119,83,69,101
210,420,423,223,107,85,57,82
206,428,400,206,112,89,58,77
214,452,456,202,113,95,64,81
240,475,593,244,118,104,66,85
195,362,621,248,140,105,73,91
188,363,753,262,132,94,73,92
214,406,847,316,142,101,83,97
210,416,906,326,148,108,89,109
185,413,839,306,150,103,86,106
177,391,799,279,131,97,74,92
219,394,665,250,135,103,76,96
204,406,619,212,124,102,72,102
224,382,571,272,126,97,78,99
226,359,576,270,116,93,77,95
227,367,637,293,142,102,82,97
208,410,696,320,153,115,89,97
201,347,682,310,154,109,88,91
166,366,683,265,149,117,89,91
161,379,670,267,156,124,91,92
178,405,644,248,131,117,90,95
192,382,658,235,119,99,84,97
196,403,637,233,118,99,78,97
208,378,591,240,113,90,65,87
207,354,617,248,110,83,62,85
196,315,572,243,108,83,60,77
245,368,571,269,122,98,74,97
258,362,613,293,129,103,84,103
274,428,627,308,138,100,87,112
285,433,629,315,141,97,89,119
295,480,681,366,161,103,102,132
234,436,649,353,151,88,94,114
239,441,653,365,149,79,88,111
209,382,738,390,158,71,82,100
210,431,721,379,156,74,78,89
205,469,769,358,154,87,73,82
223,470,776,381,177,95,77,94
211,461,784,363,178,100,77,92
230,487,724,344,182,111,85,99
223,521,783,352,178,110,87,105
225,516,829,339,176,97,84,102
206,522,813,347,161,92,81,94
210,535,753,332,151,85,78,97
185,511,731,293,124,67,67,85
194,482,703,305,141,74,77,94
193,418,596,315,152,103,84,101
198,438,611,281,149,105,86,103
186,443,681,291,156,110,89,100
224,487,731,296,157,120,96,109
216,469,714,283,151,118,91,104
219,460,693,254,126,89,78,93
213,420,682,240,120,85,68,85
231,449,636,219,116,91,72,91
208,457,579,201,122,83,64,82
199,424,583,176,116,80,56,72
210,457,670,334,168,114,93,103
234,457,718,357,172,123,105,112
236,464,797,411,194,127,106,116
237,402,765,422,196,127,109,117
238,416,754,427,191,124,108,120
246,390,708,325,163,105,90,107
246,450,746,339,190,113,104,128
240,465,736,312,173,113,111,136
232,493,796,328,197,139,124,145
258,533,863,359,233,153,134,163
248,618,880,378,246,152,136,169
228,599,819,339,220,142,117,150
210,543,757,321,218,138,111,141
233,552,758,337,206,118,100,136
225,539,689,335,191,115,109,137
239,520,759,384,205,122,118,143
244,504,743,387,212,122,119,145
252,569,795,386,212,123,117,143
237,576,782,372,200,122,115,142
214,548,797,350,177,108,94,118
190,545,754,342,142,96,80,104
200,655,794,341,131,95,84,109
203,669,764,350,137,90,90,116
251,733,781,395,168,109,126,156
252,750,754,386,173,115,128,156
279,783,704,381,188,123,139,166
266,716,672,382,193,124,141,164
265,695,680,417,199,122,141,166
206,591,613,348,176,100,108,124
198,552,665,348,168,91,108,125
146,440,615,290,136,79,86,98
148,414,651,284,135,96,85,99
134,421,633,219,119,95,75,84
188,520,702,284,147,108,89,105
194,538,715,314,164,120,94,109
203,586,808,334,180,129,98,113
225,612,771,333,176,114,92,113
242,599,775,327,178,116,93,115
216,529,770,304,154,115,87,107
219,529,739,279,139,111,83,105
229,481,668,264,126,100,84,106
217,456,718,277,144,108,91,111
191,404,676,276,143,111,95,111
218,515,686,262,137,99,95,112
227,556,740,294,151,95,99,116
207,557,810,349,164,97,101,118
223,555,753,351,149,83,93,106
238,593,784,392,161,92,100,113
216,491,766,425,175,95,100,111
217,446,688,411,187,116,107,116
205,411,593,364,168,112,98,103
186,437,584,354,170,118,103,114
165,427,655,321,166,112,96,104
188,427,793,379,181,131,114,123
169,406,837,380,170,119,101,110
183,454,820,385,180,125,107,116
206,440,810,389,179,123,111,122
216,451,757,398,178,127,113,130
206,471,580,354,190,127,104,127
205,490,546,355,195,128,109,130
244,482,588,338,188,127,110,135
235,556,744,353,195,141,113,133
249,537,765,343,206,148,113,139
231,513,768,279,169,141,100,117
249,553,831,359,175,149,112,134
211,543,824,380,185,149,112,134
211,474,706,364,179,138,104,127
183,459,769,374,180,144,101,112
198,508,760,366,181,134,98,116
182,462,692,284,158,114,79,96
182,472,712,274,151,111,74,86
164,449,712,295,160,130,86,93
154,416,561,249,130,108,81,86
143,373,562,253,127,103,82,86
176,459,638,330,163,115,95,102
177,450,625,327,156,117,96,99
199,508,689,336,151,92,85,94
206,532,704,347,151,90,84,96
256,628,785,385,163,104,98,114
250,601,701,347,158,106,91,108
246,601,686,340,162,106,88,107
239,604,625,303,156,109,88,108
252,660,698,347,177,119,101,124
253,645,690,333,174,116,106,133
237,617,683,292,150,106,100,126
233,618,687,304,154,111,104,126
222,585,741,333,177,122,108,126
237,647,803,315,174,120,102,122
173,566,700,279,165,109,81,89
169,561,704,291,169,113,79,88
172,535,673,281,170,116,81,93
186,544,591,242,144,107,71,86
149,381,441,208,125,100,66,74
152,375,551,234,125,103,69,79
152,374,544,259,118,101,73,84
179,427,565,242,101,89,67,78
166,443,575,258,104,86,77,91
170,488,662,296,127,109,103,115
169,486,604,280,121,110,103,112
167,482,617,245,123,113,102,111
134,456,632,252,127,112,104,113
120,382,618,242,127,120,100,102
140,356,471,190,107,114,82,80
144,366,497,203,116,124,86,86
165,383,485,232,123,124,98,99
185,417,541,288,153,135,107,111
203,473,578,310,171,164,116,124
176,425,577,304,179,166,109,115
170,404,528,290,175,162,102,114
159,415,546,288,177,167,97,106
154,461,488,254,151,171,95,106
130,421,474,223,141,152,83,90
134,435,521,252,158,186,97,98
140,453,549,261,214,236,107,102
138,465,622,253,240,270,108,103
116,363,625,224,240,277,111,88
110,332,607,235,278,294,120,90
107,327,636,234,306,322,134,86
105,317,627,228,274,290,128,77
102,255,652,247,256,263,125,77
96,244,636,255,256,257,127,78
96,241,651,252,211,232,117,73
94,260,704,254,163,177,105,77
91,281,696,257,160,169,105,79
75,273,581,227,162,166,102,72
73,266,566,234,180,186,101,79
67,260,536,233,194,187,106,79
72,240,446,215,180,177,97,73
69,195,492,224,189,215,117,73
68,223,660,264,187,214,118,72
67,234,695,278,177,193,107,59
79,280,726,289,172,197,107,65
81,295,741,292,178,187,103,68
150,441,918,358,177,152,98,97
161,455,892,354,183,147,116,105
168,516,920,338,179,140,116,107
178,525,988,370,193,141,123,112
188,538,987,407,214,143,120,114
170,462,852,393,230,218,145,114
167,468,874,436,256,309,175,117
179,525,979,464,268,316,180,121
195,537,909,461,269,334,184,127
232,584,939,486,257,349,203,154
243,593,918,486,270,313,192,160
258,601,851,457,259,297,155,156
285,604,748,573,286,322,181,184
290,608,845,570,279,304,174,179
256,555,770,516,271,290,153,155
278,640,837,528,265,324,152,146
284,654,782,544,281,335,198,166
249,567,727,444,248,309,174,133
232,527,657,422,244,305,174,136
239,556,726,468,259,336,187,147
181,421,605,411,235,296,173,133
186,434,666,403,189,216,161,146
188,438,678,389,201,212,156,145
181,465,678,406,206,220,155,141
180,450,671,384,208,222,169,143
179,453,719,400,211,226,170,145
168,481,828,453,248,235,139,121
190,482,886,448,247,250,160,142
195,492,893,458,254,247,158,145
249,531,921,557,313,217,158,180
252,552,922,562,310,209,161,180
248,550,872,574,336,232,158,177
260,568,837,626,361,223,154,184
269,545,786,647,360,213,161,190
233,517,731,599,311,197,140,159
258,521,739,623,332,202,151,174
272,585,819,584,286,174,156,180
273,652,818,637,303,180,170,179
278,698,942,680,329,192,169,177
318,772,961,692,364,215,182,198
329,852,999,732,372,246,184,205
365,823,938,765,454,337,204,232
344,754,910,675,445,376,190,217
338,721,810,646,456,409,190,214
304,652,859,728,443,393,169,190
288,567,953,729,432,374,162,180
247,522,950,749,393,302,144,154
259,561,980,786,382,252,140,158
288,627,1006,843,409,249,164,185
295,612,971,794,425,289,175,199
298,676,956,773,438,297,187,202
281,657,965,724,400,278,187,197
285,639,967,703,391,271,185,202
275,596,980,636,339,257,181,200
262,627,1102,640,296,216,180,194
250,518,1004,644,281,211,174,192
285,572,1043,753,325,229,176,208
297,639,1035,752,321,232,182,213
275,644,1008,720,299,197,161,190
309,606,847,710,322,183,167,208
315,666,914,692,334,191,165,209
272,596,839,543,298,206,148,181
289,623,917,606,324,208,155,196
291,605,952,615,320,195,157,198
277,659,986,578,314,212,153,188
280,603,935,534,286,209,154,189
284,606,922,572,276,181,155,192
237,522,879,502,242,170,132,158
242,508,819,586,268,186,146,171
218,450,775,601,261,185,145,158
193,448,745,606,253,170,140,147
199,426,745,623,273,189,157,164
212,440,735,596,268,191,166,173
208,462,780,488,240,172,166,171
187,432,782,404,207,159,154,158
184,429,814,413,212,161,144,151
205,502,872,461,226,176,151,154
195,483,813,462,222,164,141,147
180,446,764,490,233,169,126,129
186,431,735,531,260,171,128,136
191,410,687,535,277,196,132,138
159,357,663,441,235,156,100,110
173,332,695,457,255,175,99,110
190,410,796,517,278,175,100,117
197,431,779,497,268,169,103,119
200,475,795,500,251,144,101,119
203,516,768,472,240,139,103,124
181,540,762,470,222,122,99,115
179,567,794,410,190,128,101,119
191,613,853,448,202,133,101,119
188,591,858,448,201,132,119,137
200,568,890,603,286,155,136,152
210,555,901,600,292,152,145,161
198,485,849,578,284,155,142,152
222,459,849,624,316,185,157,177
221,441,823,628,326,188,143,167
282,497,829,645,352,227,180,205
280,467,786,634,345,228,177,203
289,511,748,650,355,226,184,211
258,478,737,574,312,197,169,189
267,541,793,568,300,193,173,194
180,454,690,401,192,125,114,129
180,473,724,421,201,129,110,126
177,433,724,426,188,134,98,118
234,465,845,534,242,167,133,166
243,465,898,561,258,174,131,166
269,514,935,587,265,185,152,184
276,584,965,671,295,195,160,191
275,577,964,649,291,191,160,192
228,544,849,556,246,170,133,154
210,505,787,539,233,159,131,149
275,574,901,645,327,202,157,190
285,540,885,549,299,190,156,194
279,521,879,559,302,192,158,191
295,575,895,587,317,195,159,194
289,567,880,571,325,205,156,190
194,453,739,409,224,160,108,124
159,386,727,435,235,172,101,112
156,391,696,422,231,173,96,109
117,305,670,369,206,167,108,98
151,357,707,427,221,173,139,132
182,372,727,442,237,179,149,153
204,444,780,498,244,202,165,164
266,511,813,523,276,239,193,201
275,518,808,552,291,247,198,212
276,533,856,626,300,242,186,203
262,561,854,612,287,235,175,189
299,642,868,690,341,284,188,206
311,712,1022,821,409,309,191,213
360,839,1113,872,428,357,225,240
367,827,1039,809,466,487,286,259
410,938,1158,908,519,516,317,288
414,944,1240,892,498,501,320,290
453,930,1156,810,501,513,352,330
480,878,1151,823,548,553,366,352
506,879,1164,867,585,487,348,368
536,839,1064,835,584,479,363,397
519,777,939,800,595,469,357,387
468,721,906,781,568,435,320,345
400,685,863,693,518,338,276,301
355,697,866,622,431,276,237,258
274,603,838,522,383,239,177,190
257,542,786,458,370,305,183,188
235,566,731,439,335,304,172,167
347,650,852,600,385,324,221,229
363,685,935,680,399,320,228,246
372,658,949,697,408,324,237,260
389,695,1005,708,399,265,222,260
425,708,1093,722,397,273,230,284
347,620,1011,638,346,279,188,241
332,548,938,573,325,288,187,236
321,601,917,577,300,295,180,221
309,567,883,582,268,268,172,212
277,538,814,641,280,264,163,184
293,529,766,653,282,260,165,185
309,581,863,695,309,262,169,188
309,621,931,703,332,253,153,175
329,626,931,726,366,260,169,196
326,638,936,645,346,237,162,191
327,687,970,636,371,303,177,185
318,707,889,597,354,295,163,174
300,612,817,558,330,304,168,177
359,695,860,649,370,352,227,239
344,657,875,671,365,346,228,241
364,683,949,754,342,280,212,249
351,619,941,739,351,292,208,243
357,718,1002,790,350,280,208,244
310,684,992,725,341,251,171,205
322,714,1001,718,360,267,169,206
276,617,887,609,362,261,171,195
289,666,917,645,384,269,186,209
320,620,872,658,404,267,208,223
347,650,876,730,429,258,209,247
346,620,852,730,434,285,234,260
377,728,891,714,415,277,244,276
444,798,1000,830,509,356,273,322
444,832,1036,862,519,360,260,322
436,819,1045,852,528,363,255,301
473,837,1047,854,532,356,255,315
461,746,999,884,546,352,257,302
410,698,904,829,471,277,227,251
433,736,965,804,509,299,233,258
423,742,956,735,448,285,232,240
436,786,966,756,456,265,230,244
441,779,980,728,470,276,235,254
450,764,988,738,479,286,243,262
441,728,955,773,457,290,261,265
455,728,1010,826,483,313,271,283
395,729,1039,844,459,315,267,270
371,726,1036,842,429,304,246,254
461,720,1076,832,398,337,302,319
461,778,1078,863,404,336,301,323
412,741,1014,830,369,315,283,303
444,745,1030,845,401,344,281,302
475,824,1128,928,449,364,289,316
365,792,1037,866,425,300,224,242
348,717,1015,802,422,306,213,236
429,780,1030,815,461,320,238,281
402,703,940,742,440,285,226,266
437,732,840,711,412,276,228,266
449,722,878,775,457,302,243,279
427,655,768,703,413,263,222,253
378,550,660,621,354,231,184,198
401,571,708,681,416,253,208,225
328,421,697,604,399,242,204,212
311,448,648,531,355,211,168,186
321,514,749,591,353,220,179,194
307,552,854,647,345,224,189,203
364,648,901,670,290,202,186,199
378,677,919,659,278,213,176,188
402,670,957,677,294,222,183,191
399,654,917,656,315,222,183,194
410,699,875,628,347,240,175,194
382,634,829,605,355,254,176,194
400,596,814,659,382,254,182,205
421,661,848,713,414,304,220,241
417,665,872,703,401,300,219,236
408,640,901,703,381,286,219,235
366,643,944,670,347,265,209,220
321,641,884,613,316,261,199,208
254,592,809,530,257,181,143,156
240,547,765,502,234,171,130,146
201,508,732,464,231,180,127,129
183,453,625,397,220,172,101,107
229,451,653,410,228,179,106,111
215,366,622,377,221,173,114,113
222,416,627,370,221,163,115,115
212,358,587,339,200,138,104,107
223,342,561,342,226,150,102,112
197,342,601,337,228,126,98,116
222,387,660,326,197,136,91,110
247,379,660,362,202,137,95,121
279,511,708,453,226,161,132,151
305,581,758,529,221,155,145,163
346,615,765,548,224,158,156,174
335,596,711,532,223,158,155,176
319,610,782,615,248,171,160,174
302,529,754,570,244,163,142,159
294,640,815,615,254,180,133,154
249,634,852,598,238,180,122,137
261,648,860,605,241,175,125,139
273,626,808,526,228,173,127,145
288,676,828,544,229,168,126,149
255,529,788,413,201,144,115,127
252,492,735,419,211,148,115,133
250,475,721,399,208,146,108,127
224,452,764,371,203,133,94,115
201,365,713,322,190,121,81,96
190,317,694,309,180,115,77,95
180,320,679,314,189,104,76,85
151,446,692,352,218,120,82,90
149,434,592,324,202,117,70,76
135,425,618,349,210,129,75,77
178,431,661,456,251,167,107,102
210,481,715,468,254,170,115,114
230,382,775,517,270,178,126,124
243,433,789,537,276,184,130,134
258,466,832,580,290,197,140,145
247,466,768,504,262,183,126,135
254,449,714,475,247,174,118,133
259,465,705,469,222,160,118,138
269,430,707,470,223,164,115,135
261,390,640,434,240,167,113,136
250,420,708,454,234,155,110,136
223,429,794,470,236,163,113,136
241,407,770,398,215,158,103,123
224,403,753,394,221,145,100,117
215,404,756,347,165,114,86,100
220,403,725,325,165,107,80,96
220,385,654,316,163,113,71,81
170,372,618,296,164,112,64,75
214,500,777,364,166,125,107,116
237,503,758,356,166,124,109,123
229,468,687,337,155,124,108,121
223,457,645,321,144,117,110,122
248,541,697,367,182,164,136,140
202,438,618,317,180,164,112,111
199,457,647,370,206,179,115,115
227,564,737,397,230,184,126,127
227,560,743,389,226,185,122,127
214,497,736,368,214,154,96,109
213,506,674,335,209,152,89,106
213,515,727,313,196,139,86,104
203,390,657,277,168,131,70,93
238,378,657,296,175,125,78,99
238,412,673,335,193,137,84,103
238,371,646,327,186,133,89,107
236,339,603,297,172,132,84,103
221,433,617,304,183,146,88,97
167,438,649,298,197,149,84,91
157,412,628,243,165,130,76,88
177,497,690,252,170,134,74,91
170,485,701,325,177,135,79,98
166,423,683,317,166,118,79,104
174,413,665,327,149,120,81,101
196,411,642,345,142,114,80,108
187,329,597,347,166,139,78,103
200,348,517,285,159,133,70,93
231,351,516,307,162,136,72,102
229,351,465,300,158,127,66,101
200,318,375,253,156,127,64,90
200,323,374,270,150,105,72,94
172,290,403,259,156,107,72,90
135,294,486,268,162,106,72,76
168,319,579,273,165,106,74,81
