216,181,299,152,105,158,100,94
197,186,319,146,106,144,102,110
227,174,322,140,107,138,96,115
213,157,316,134,108,118,81,111
195,183,355,161,107,101,85,110
239,192,366,155,101,92,83,118
243,211,332,153,97,100,84,107
223,210,354,149,95,98,83,105
227,219,349,146,93,97,85,108
213,202,268,126,96,98,77,93
164,205,258,121,105,129,92,101
151,185,250,117,113,140,99,94
133,189,238,141,114,138,103,97
148,197,339,158,133,140,105,104
174,188,351,151,133,144,105,105
173,207,387,158,129,120,90,92
169,227,413,159,123,121,77,91
192,222,416,144,117,119,70,87
201,217,372,144,97,116,65,87
177,195,380,163,106,119,81,98
198,180,362,157,105,118,82,106
233,170,341,148,101,105,83,118
222,202,334,153,107,113,94,126
207,185,298,138,110,118,94,116
250,201,287,117,93,117,82,121
247,193,264,113,82,120,88,125
236,214,270,117,90,113,86,115
234,184,252,115,91,108,72,105
254,199,238,125,87,113,82,122
221,182,243,131,91,105,86,127
225,178,242,127,94,102,86,129
214,159,294,130,91,99,85,138
231,170,311,124,80,99,88,141
220,171,323,117,87,90,94,135
223,194,296,116,84,94,94,121
208,212,298,141,98,98,97,111
199,203,243,141,104,106,94,102
175,197,209,144,111,107,94,97
155,184,220,143,106,103,79,106
153,169,229,136,110,105,72,107
166,147,214,111,95,109,73,103
170,168,264,103,82,101,81,106
170,187,325,112,82,93,86,106
174,194,334,127,87,92,85,102
181,198,341,133,82,89,90,102
164,199,359,131,83,76,79,98
167,182,375,145,94,78,81,95
164,168,324,133,89,81,77,92
160,168,331,129,91,84,76,78
182,165,357,137,98,118,113,103
181,171,376,150,101,118,112,102
173,156,336,141,95,121,108,100
179,171,340,150,98,116,108,105
199,197,334,144,92,120,108,109
181,207,316,139,84,82,67,95
191,207,298,127,75,75,70,100
226,237,300,134,72,84,74,111
229,226,313,123,69,98,72,107
212,201,285,120,73,95,75,106
207,190,263,104,71,98,73,103
205,196,253,106,81,114,78,102
172,154,227,78,80,104,71,93
166,159,239,89,82,98,75,107
164,156,288,118,100,99,77,103
155,156,300,119,104,102,79,101
152,142,278,113,98,93,75,101
138,146,284,135,117,99,88,108
145,139,268,129,112,98,83,94
161,167,292,117,102,100,81,99
163,208,355,153,104,107,92,100
164,206,362,152,103,98,94,108
173,213,356,139,85,103,86,102
199,220,357,146,91,107,92,118
192,199,315,146,88,100,87,112
195,186,300,110,80,91,83,111
196,207,323,118,88,104,83,100
201,203,323,125,90,98,88,101
186,193,324,123,87,95,88,96
186,203,336,115,86,101,102,104
196,171,305,125,105,112,99,104
211,160,348,123,106,108,94,105
205,179,395,118,96,103,93,109
198,193,391,121,99,116,101,113
193,190,371,121,109,112,91,106
202,206,354,115,92,97,84,101
192,202,300,121,93,101,95,123
197,190,232,126,102,107,99,116
201,177,247,116,97,91,89,107
217,216,298,140,103,97,92,114
196,210,296,136,103,104,95,125
199,225,300,142,96,94,85,100
197,227,317,144,95,101,83,119
194,230,300,142,101,104,83,117
170,186,243,111,83,117,85,116
200,182,265,110,82,111,89,105
205,179,395,118,96,103,93,109
198,193,391,121,99,116,101,113
170,186,243,111,83,117,85,116
200,182,265,110,82,111,89,105
192,167,254,91,79,112,104,118
189,160,239,75,78,104,115,109
171,148,247,103,91,103,109,105
202,168,260,124,95,86,107,99
174,195,273,130,95,88,109,107
179,188,274,135,104,93,97,100
187,187,271,137,105,99,74,87
197,222,305,128,103,109,94,98
187,234,316,123,104,109,104,106
195,222,298,129,114,112,102,110
203,218,303,135,113,110,107,117
200,214,315,130,107,101,108,114
202,181,282,127,94,89,102,122
184,148,267,120,84,81,85,115
172,201,356,125,73,76,79,106
147,203,360,126,78,84,71,91
148,234,363,142,87,89,82,105
150,279,420,166,105,94,95,100
160,303,440,172,109,102,98,101
151,270,373,163,103,103,95,95
151,265,354,154,100,96,99,111
156,251,354,151,98,92,97,109
163,217,366,125,86,90,77,98
166,190,369,122,86,81,78,104
182,186,352,119,95,78,87,121
188,184,372,124,97,75,84,111
183,181,375,144,102,80,83,112
202,181,292,142,108,89,88,114
190,192,261,135,107,89,86,110
180,182,253,140,104,89,92,110
192,197,243,154,102,92,95,111
201,192,214,135,94,97,95,115
161,173,212,128,84,92,89,118
185,164,222,142,88,93,100,122
247,190,262,145,95,107,100,112
238,189,273,128,97,119,105,109
228,208,340,136,101,112,98,96
243,212,363,153,103,115,97,87
234,207,410,162,110,128,95,87
161,200,429,167,119,134,94,76
163,193,435,176,117,127,84,86
171,175,390,166,117,128,88,94
163,187,445,158,110,120,92,95
170,197,396,138,98,110,91,90
174,192,406,135,95,96,97,111
184,209,419,123,95,102,107,116
182,208,426,130,98,104,108,114
172,202,360,140,103,101,105,117
180,205,381,161,113,102,104,138
196,258,363,184,109,97,95,127
204,245,324,192,105,92,83,116
206,238,332,186,102,102,96,122
219,228,317,190,118,102,100,121
237,260,325,198,126,107,107,107
224,213,345,209,128,111,107,104
202,213,337,206,140,129,122,125
210,217,315,212,136,121,117,122
220,246,331,201,122,119,120,123
186,196,288,176,105,109,111,115
185,182,239,119,90,103,104,116
195,193,256,115,76,94,92,100
186,199,298,114,80,96,85,101
179,187,330,117,82,99,73,99
204,191,340,113,86,101,81,117
200,201,321,120,91,101,91,117
203,208,381,145,98,86,90,113
217,214,355,150,101,91,87,114
239,198,321,151,98,92,93,123
228,223,327,157,90,95,94,119
246,236,397,152,89,106,102,116
253,233,349,136,80,97,102,117
233,224,349,120,77,92,103,109
194,221,335,111,75,94,114,127
184,195,326,132,97,104,110,118
184,189,259,147,115,101,99,126
166,187,273,143,117,105,93,127
173,180,261,144,115,105,107,132
177,183,263,144,116,98,91,104
167,186,271,120,115,91,88,101
140,176,292,116,106,89,84,92
137,160,288,113,114,92,85,85
155,177,304,108,114,94,68,89
172,183,300,119,120,101,76,96
182,176,311,125,113,101,79,96
188,163,278,119,108,94,79,95
198,189,314,118,97,89,78,97
187,176,309,121,99,91,71,83
166,169,309,117,103,85,66,75
165,180,277,108,94,79,64,77
162,190,302,100,90,81,64,74
143,189,243,111,90,86,70,78
145,188,249,121,99,88,73,85
146,190,263,126,92,85,70,82
177,179,270,127,92,82,82,83
178,165,336,128,92,83,83,96
190,144,391,128,101,86,86,105
193,157,429,133,98,90,98,110
191,155,428,126,96,97,103,110
185,159,427,131,99,99,94,112
215,187,400,161,122,109,101,108
211,188,361,152,116,115,96,96
195,173,314,156,115,106,83,93
205,169,323,154,123,111,81,100
176,174,332,162,135,114,82,106
164,172,280,147,126,105,73,105
177,175,251,155,127,115,72,106
187,180,279,142,120,130,78,120
180,188,292,140,110,126,74,114
182,201,332,131,96,124,70,103
189,195,329,116,80,122,66,99
166,179,331,101,70,100,71,127
162,228,347,125,88,91,68,106
167,227,347,140,92,85,66,108
191,215,292,156,107,84,73,112
175,199,290,166,107,82,74,121
195,198,299,169,117,101,72,92
232,148,325,153,104,89,74,94
237,144,308,143,98,85,73,90
229,137,319,129,82,85,67,85
222,143,316,118,81,89,67,82
212,157,324,119,69,75,62,83
174,154,287,113,74,84,54,79
155,144,267,107,77,89,56,79
152,145,272,93,72,91,59,79
145,147,293,96,82,92,59,74
134,167,305,93,80,83,57,66
148,193,282,96,84,75,68,83
152,204,283,113,99,87,85,89
138,225,306,127,101,89,91,92
135,231,307,128,95,84,90,95
155,217,284,140,107,97,93,105
154,189,262,142,102,114,102,102
161,177,265,127,86,106,97,105
173,186,269,122,98,109,96,135
180,196,280,116,99,113,98,136
177,190,273,101,88,105,99,137
174,202,299,99,108,109,98,142
191,218,350,108,113,110,94,139
180,205,370,105,103,102,86,107
178,178,369,120,103,103,87,101
198,197,391,125,106,108,90,98
188,222,393,139,85,86,81,110
171,215,400,139,88,92,77,110
193,202,361,149,90,94,77,109
215,268,475,158,90,93,84,123
185,257,464,167,100,102,83,130
183,242,480,168,102,108,81,122
221,246,471,165,95,107,85,133
206,261,477,165,94,105,92,144
219,210,352,152,96,102,86,136
243,215,335,138,83,89,85,135
243,228,381,134,88,94,94,132
208,221,355,146,93,85,90,121
222,199,357,140,90,92,88,112
192,182,345,138,98,97,83,106
177,171,382,146,108,101,85,115
184,155,333,152,110,93,75,106
188,164,316,139,110,97,73,104
202,171,341,137,122,100,72,99
201,193,341,135,113,102,73,103
191,191,313,127,104,101,69,91
222,185,264,110,96,96,69,100
242,194,304,118,99,100,80,112
226,214,288,125,88,95,86,122
232,212,331,126,93,90,96,123
233,222,343,141,111,91,94,115
234,237,385,146,108,92,109,124
224,261,405,148,104,83,111,117
237,248,410,145,101,80,110,112
236,236,411,149,97,74,101,105
248,242,418,135,68,74,118,117
231,252,392,140,80,77,101,115
220,225,364,144,84,79,91,110
211,224,332,136,87,81,88,106
207,269,411,152,90,86,99,119
198,261,436,172,108,82,76,107
197,227,446,160,107,95,85,87
213,227,451,156,105,95,89,98
198,251,481,176,105,93,109,124
215,273,531,171,117,93,101,115
229,303,549,166,114,110,114,129
239,308,551,168,117,101,113,136
218,298,561,160,113,101,111,134
231,307,543,140,123,103,101,124
216,254,418,140,117,102,104,128
202,216,363,126,107,84,93,113
176,230,502,153,105,80,93,107
186,273,498,156,105,95,97,102
176,229,509,171,96,94,92,92
199,228,503,159,89,106,97,94
228,265,490,176,100,116,107,102
249,256,336,169,104,119,112,123
242,204,304,178,111,113,116,126
267,205,376,180,111,113,114,129
295,285,379,234,148,128,143,181
304,258,407,224,145,128,138,179
297,261,394,212,143,135,134,167
299,268,387,202,138,134,130,170
281,281,292,193,133,131,125,166
242,228,295,133,93,110,98,110
198,234,285,135,106,140,100,112
182,225,323,133,101,136,107,112
210,240,410,144,105,139,115,111
212,249,451,157,118,148,141,128
219,231,508,192,135,175,150,148
238,248,550,196,123,159,152,151
267,261,577,197,125,171,159,165
253,247,550,191,135,197,190,184
245,224,589,185,160,257,210,189
242,227,576,160,153,290,222,174
220,188,574,155,181,461,248,174
218,176,563,161,194,481,266,158
241,180,572,164,194,482,258,138
266,224,531,197,199,484,245,135
285,213,510,180,203,497,230,124
322,271,484,228,204,362,221,138
344,289,519,245,212,354,220,162
353,314,597,256,234,401,220,172
356,294,624,238,218,387,217,186
348,300,633,246,231,366,235,203
325,257,639,214,208,354,238,196
309,250,632,188,197,353,228,182
340,251,559,178,174,299,223,173
334,248,555,163,163,279,217,144
331,254,586,184,150,278,205,134
318,249,570,177,176,362,203,128
297,246,611,188,174,348,206,143
244,229,619,198,179,338,194,145
253,281,604,225,203,329,187,152
245,272,537,209,201,346,181,152
255,277,538,201,199,339,180,173
297,291,484,198,191,335,153,163
296,312,602,205,187,333,162,165
272,262,563,179,175,367,163,168
266,262,629,163,177,358,160,164
292,269,628,182,172,289,144,145
237,239,584,184,176,284,140,133
220,193,399,170,164,282,127,126
224,205,398,165,158,242,120,120
230,223,466,174,149,173,112,115
200,207,451,153,127,130,89,117
200,235,480,160,118,135,92,122
206,226,496,145,118,159,101,119
195,231,522,160,105,157,105,109
194,222,438,163,102,162,95,104
185,286,436,186,120,171,89,90
197,280,436,176,125,170,87,81
192,286,419,191,134,174,71,76
190,267,408,181,132,159,65,76
193,249,368,171,126,164,77,86
197,196,408,152,121,181,96,101
219,227,395,169,134,177,110,128
216,223,396,151,129,145,112,126
220,233,460,140,126,146,116,127
207,251,625,141,129,138,108,123
213,243,604,139,117,105,104,115
190,189,580,126,95,94,101,95
195,187,604,130,91,102,98,113
228,206,703,134,102,109,93,117
226,187,552,127,95,116,96,116
219,168,543,120,95,117,86,112
228,203,646,126,111,175,109,120
226,214,650,149,132,188,125,106
195,204,480,146,126,193,127,101
191,202,478,151,133,220,134,108
304,340,556,280,170,226,154,137
295,335,460,281,163,186,128,124
288,326,424,272,161,192,126,132
317,330,426,280,170,211,149,168
329,352,437,290,173,184,146,160
230,248,342,172,140,177,142,142
237,248,355,159,137,176,151,156
251,265,472,178,141,188,159,160
222,264,521,178,136,164,150,137
228,253,496,174,139,177,150,142
231,230,500,177,136,183,140,136
226,218,523,181,139,185,131,121
230,234,441,175,120,145,117,111
239,223,381,170,107,145,104,92
234,216,423,169,92,144,118,115
224,220,460,167,96,133,110,114
233,255,409,184,101,134,113,118
261,228,395,169,98,143,104,114
233,226,382,163,99,136,107,109
243,223,373,154,110,132,98,95
264,252,318,177,123,141,104,100
243,216,290,149,122,139,100,92
215,216,294,151,135,151,106,92
220,214,429,165,136,156,104,98
218,227,435,165,126,136,101,92
203,207,436,146,115,132,95,87
217,209,437,158,110,144,91,90
210,241,496,168,104,121,90,93
207,234,384,151,100,109,82,86
199,224,361,165,107,115,76,80
202,212,388,150,98,111,80,90
207,204,398,141,102,105,91,103
186,178,311,123,94,104,82,93
184,177,326,123,101,111,82,95
184,172,317,107,95,109,81,92
184,163,286,115,95,114,91,94
185,163,360,119,97,111,92,89
234,141,385,115,92,113,92,94
236,145,436,133,96,112,90,104
242,161,451,158,105,111,97,122
252,188,507,198,125,114,92,130
246,196,462,201,127,142,116,155
231,200,555,218,148,151,140,164
251,248,530,223,152,158,146,163
271,239,518,202,145,156,145,153
250,219,455,165,139,161,145,144
254,237,488,169,143,135,122,115
268,247,366,165,132,133,110,113
247,193,334,145,126,129,104,106
217,187,317,139,125,126,95,112
234,192,315,149,125,120,92,115
259,171,237,153,123,111,87,109
217,161,237,145,115,105,72,101
229,167,218,144,120,150,77,115
246,181,251,150,120,153,86,116
250,193,395,145,119,154,88,120
211,181,496,137,113,163,92,118
265,187,483,139,112,187,92,117
258,183,485,148,107,157,93,108
232,184,499,153,112,155,88,103
246,181,432,159,122,156,94,93
250,183,320,161,115,147,93,98
193,174,353,146,116,123,102,98
206,242,381,170,126,115,113,118
214,240,345,167,121,115,114,114
181,228,305,150,101,115,110,108
242,257,327,140,106,118,121,139
270,279,457,203,148,131,122,144
269,230,440,189,138,124,112,125
259,222,454,196,143,130,116,134
284,236,460,197,147,124,116,136
238,212,485,218,155,127,104,103
214,190,338,179,129,106,100,117
203,198,340,163,127,106,96,118
222,199,316,160,126,105,98,115
196,191,361,168,129,126,101,112
183,186,310,152,115,121,100,113
222,176,301,135,97,120,95,90
225,162,291,156,115,131,97,106
217,169,350,154,118,130,94,107
203,224,304,153,115,102,84,110
224,261,402,172,112,103,83,114
195,272,423,185,120,103,93,118
201,288,494,186,109,95,101,106
197,295,507,183,111,108,101,110
213,257,508,179,105,131,120,129
208,251,443,201,129,138,125,129
220,252,427,195,122,135,116,129
231,241,336,180,113,135,107,129
240,238,278,185,112,124,113,132
245,254,309,207,137,118,100,119
240,226,310,180,117,107,93,118
237,222,335,179,122,129,96,116
224,239,503,198,125,133,97,122
223,238,527,224,119,140,90,111
217,244,541,213,93,127,86,106
216,254,539,198,90,131,87,99
192,238,525,199,97,115,95,123
198,214,399,198,107,114,92,111
197,209,411,161,107,105,82,105
197,174,376,146,107,114,79,108
213,164,450,148,112,115,77,112
224,209,487,146,101,104,59,77
251,241,481,148,115,107,70,88
239,254,449,163,121,104,73,96
233,264,459,163,117,91,73,93
232,267,406,171,123,89,79,104
249,275,378,175,126,98,81,107
215,259,363,154,102,102,74,104
231,254,338,147,95,103,72,97
232,242,350,160,109,115,76,93
226,248,330,145,97,110,71,80
194,222,331,154,99,109,91,102
208,219,335,154,102,113,108,130
192,219,337,146,97,110,108,131
203,252,336,144,102,110,116,138
199,234,313,149,104,117,118,139
195,218,288,133,106,128,111,134
227,240,332,126,99,109,104,115
225,246,347,124,100,109,103,113
225,216,315,102,81,98,90,103
219,218,311,99,74,99,90,97
236,223,351,90,64,87,85,90
236,191,317,94,69,93,79,73
259,188,346,105,72,96,86,88
250,194,399,122,72,103,87,101
251,193,419,116,77,93,89,110
243,183,384,113,70,88,87,110
196,191,380,113,68,87,90,118
187,212,376,100,71,85,86,105
217,200,355,102,72,78,83,94
231,200,339,108,71,78,78,91
229,198,342,103,76,89,75,82
240,212,368,123,87,88,73,76
266,166,335,126,91,102,72,82
234,170,292,113,97,113,93,94
217,170,291,125,103,112,91,93
209,175,293,131,106,112,92,92
206,174,259,127,120,139,105,96
168,180,256,152,120,131,110,99
175,174,230,153,115,129,99,96
181,190,244,146,111,133,104,89
197,207,268,149,112,129,104,92
193,237,251,168,112,110,110,87
170,229,233,141,105,110,110,88
160,240,234,138,105,96,115,82
189,264,264,133,119,117,119,91
178,259,309,142,117,113,121,100
181,213,331,113,92,98,102,104
194,244,345,126,99,101,98,100
254,250,345,133,105,105,98,112
228,211,317,133,101,89,93,108
231,215,238,116,99,90,90,98
234,212,208,106,96,89,87,101
265,208,226,124,102,108,95,110
221,191,286,129,97,107,85,94
254,197,279,127,82,97,77,91
323,207,294,147,90,94,78,104
318,202,343,149,91,95,81,95
293,187,364,135,88,68,69,86
289,180,331,122,85,62,66,88
282,177,337,141,88,80,81,103
216,141,336,126,85,83,80,95
213,178,302,132,93,85,78,99
204,177,256,152,92,81,73,95
209,180,249,164,106,90,74,98
178,178,253,152,102,73,61,82
164,184,243,148,95,81,74,87
173,163,222,156,96,84,75,80
180,167,251,141,99,99,77,82
181,168,249,133,84,94,77,75
187,171,250,137,87,98,75,87
186,182,270,150,95,90,65,82
193,175,276,135,96,90,69,96
198,160,279,119,89,92,73,97
218,177,291,129,96,95,73,99
210,189,299,125,95,94,78,89
223,189,302,140,111,103,74,86
214,200,333,162,112,102,72,69
216,208,307,164,112,95,78,84
193,202,331,160,108,101,82,88
205,223,310,167,113,110,89,97
183,221,347,155,91,101,95,94
171,210,312,144,104,117,94,98
163,203,310,162,112,120,91,97
161,201,265,156,112,114,89,98
143,158,282,143,114,111,84,88
161,145,208,142,117,111,78,87
173,166,281,135,106,98,74,83
153,159,294,108,90,88,63,65
140,151,355,146,102,97,92,86
155,164,343,156,103,94,88,88
166,188,332,151,104,94,98,91
161,173,300,149,99,84,100,94
168,176,289,155,106,92,117,104
195,175,286,137,99,79,94,86
235,166,294,128,91,75,102,97
214,139,324,119,84,78,93,97
210,135,371,136,84,80,91,99
221,133,381,128,85,71,68,86
227,139,358,112,80,71,74,85
179,148,347,117,84,71,62,74
187,188,409,142,99,79,78,83
194,222,360,133,110,82,80,78
190,232,360,146,112,83,82,85
159,222,343,146,115,85,83,81
167,226,355,146,120,86,98,97
190,199,289,134,107,75,85,87
190,162,273,140,110,87,92,97
177,140,264,128,102,89,92,91
209,141,249,129,97,88,86,94
215,165,281,151,106,107,95,102
197,187,320,168,125,112,102,106
207,182,327,176,128,106,99,100
207,182,326,176,128,106,108,109
173,189,368,176,131,113,116,110
156,183,381,172,125,99,98,93
172,176,354,160,123,101,93,98
150,182,370,146,104,94,91,97
148,183,385,143,105,100,82,101
145,193,404,143,98,89,75,104
145,170,368,134,110,95,74,103
118,159,383,130,102,98,81,96
174,156,366,124,104,100,81,99
180,162,367,138,112,97,84,104
180,167,345,139,116,95,80,100
191,166,343,129,113,99,83,123
187,179,301,126,111,99,81,124
141,175,335,153,122,105,81,119
149,177,317,159,131,117,90,114
161,168,300,173,136,117,90,113
159,201,351,176,127,115,88,82
162,186,348,171,120,104,81,77
155,195,316,144,107,94,79,86
151,195,315,142,102,78,63,77
168,220,367,170,118,96,81,92
180,220,330,176,114,86,80,100
184,211,353,189,135,97,86,112
196,209,368,202,143,105,107,145
201,226,449,219,139,99,109,150
221,190,459,188,120,95,100,142
213,150,464,172,117,96,101,143
208,153,448,152,91,90,97,143
215,180,502,177,96,95,88,108
207,161,433,173,100,100,87,99
162,164,379,189,104,89,84,96
158,176,361,193,115,95,97,105
162,198,367,216,122,94,102,98
155,186,311,194,115,88,98,99
170,181,297,168,110,91,100,106
168,177,277,152,113,94,109,119
153,168,280,150,106,91,93,97
206,172,292,135,107,95,93,97
201,167,262,123,102,88,84,91
196,162,306,125,97,87,82,96
204,169,306,114,88,87,79,106
202,169,315,114,86,81,83,109
176,147,310,105,80,71,74,109
206,139,288,97,75,79,77,108
206,142,250,95,70,71,74,107
204,136,249,99,71,67,61,79
207,134,259,97,79,71,65,83
174,121,268,119,83,81,69,82
128,109,293,132,96,96,72,117
118,120,298,141,99,103,77,114
164,140,359,149,104,111,86,166
234,197,365,197,139,171,126,221
302,273,371,207,160,304,160,272
343,295,429,208,157,323,166,280
416,314,438,204,188,454,204,317
485,403,517,205,200,491,245,382
579,450,607,223,225,519,298,444
649,447,660,224,220,474,300,508
771,467,663,272,269,524,323,586
883,586,784,293,255,456,322,652
974,563,718,305,260,442,371,712
1035,536,665,278,248,487,356,690
991,515,735,277,288,613,431,646
920,505,724,255,267,579,432,572
790,349,751,259,291,565,450,491
628,294,843,258,284,583,423,336
389,242,838,245,274,551,429,268
355,276,819,267,232,390,355,220
311,241,832,250,204,362,339,215
290,248,693,226,163,362,301,169
305,270,623,261,184,315,263,143
323,269,734,271,182,280,236,206
356,292,707,272,191,384,242,214
325,310,737,280,208,406,243,214
346,317,781,298,219,393,239,224
318,289,753,252,197,419,241,216
320,302,702,251,184,394,214,193
301,246,676,206,164,297,179,178
301,237,654,197,169,324,172,174
270,231,700,193,171,319,175,161
261,227,695,193,166,278,162,162
256,247,652,198,177,268,157,119
263,223,674,211,201,303,168,131
255,252,670,224,188,322,167,126
249,231,579,204,182,366,165,137
322,279,569,225,199,372,177,146
305,259,665,211,190,377,187,151
288,288,651,232,193,355,200,170
279,244,610,220,183,340,205,176
280,249,611,220,204,335,211,172
233,249,613,213,199,326,198,161
247,269,508,229,203,327,181,156
236,268,504,250,216,427,204,134
230,271,521,243,231,427,202,128
257,307,607,250,218,391,187,122
221,286,644,243,215,392,182,119
217,279,639,239,229,415,208,131
198,255,576,184,200,308,160,114
277,270,595,197,194,278,150,114
260,257,523,202,192,294,161,116
269,242,535,199,181,342,163,117
262,210,550,192,156,322,144,103
302,219,600,214,155,321,157,106
265,206,578,214,157,315,161,106
267,189,585,203,159,335,162,111
262,180,589,201,164,279,158,110
261,204,617,209,168,259,137,104
224,204,561,211,178,273,139,102
215,217,535,202,169,264,148,112
212,192,555,194,165,232,143,110
217,210,490,198,163,228,140,109
220,196,499,202,168,233,144,110
212,185,527,217,167,217,134,109
192,161,545,208,171,247,128,100
201,163,506,219,167,244,147,104
194,150,525,212,172,249,149,102
172,136,416,193,153,237,150,93
162,129,382,139,138,255,158,92
167,137,360,141,138,244,145,105
158,156,366,117,129,231,112,90
157,179,393,135,130,235,118,95
164,208,406,136,138,264,135,98
213,215,474,155,158,263,142,115
226,214,465,155,159,269,151,100
220,216,472,161,160,282,157,103
243,207,474,148,152,274,152,103
242,188,496,137,142,253,134,101
222,214,458,113,115,241,119,91
220,228,551,112,93,201,140,97
245,224,521,157,125,187,144,106
226,223,470,166,119,184,143,103
235,218,442,172,128,203,152,105
245,195,443,192,143,187,156,110
263,207,428,229,193,217,166,124
254,202,423,196,181,211,161,116
250,186,420,199,196,266,178,119
243,194,419,204,203,268,181,123
217,199,453,187,189,255,168,110
163,162,372,141,148,277,126,80
140,162,385,146,142,284,127,94
134,163,407,135,129,234,106,91
150,169,428,148,119,213,83,94
169,183,349,153,131,285,97,91
185,190,346,155,122,238,101,103
181,205,332,158,127,244,100,87
192,219,317,166,130,256,107,99
190,203,275,144,124,257,112,97
226,210,385,196,146,213,137,126
231,224,414,198,148,208,141,125
237,200,484,195,159,207,152,144
229,191,487,197,152,193,144,136
238,235,559,202,160,200,142,137
193,204,513,152,132,163,115,115
204,199,515,147,127,182,104,114
214,215,457,163,128,176,88,91
246,211,446,153,134,181,93,100
247,172,379,151,128,197,93,96
298,199,459,175,147,210,100,112
305,198,425,171,154,202,111,108
296,175,407,158,138,200,108,105
288,177,438,156,142,253,114,106
282,179,425,152,135,237,116,106
238,151,312,144,119,223,109,88
206,136,318,138,107,229,115,87
203,137,367,133,104,224,113,93
199,125,342,132,88,152,105,80
211,120,331,130,96,151,99,77
207,138,360,98,92,152,97,77
217,160,350,109,88,122,94,84
212,178,343,110,85,115,96,80
196,190,393,105,85,124,94,79
175,193,446,130,96,155,94,85
168,196,425,165,118,167,94,87
167,184,433,165,117,173,88,90
182,200,396,165,114,170,102,95
194,221,386,187,131,204,126,126
194,220,357,180,132,182,136,131
196,207,412,150,112,172,137,129
189,218,418,154,118,188,138,121
189,208,434,155,128,196,126,118
230,192,422,159,132,182,118,97
235,197,405,162,140,181,108,90
266,192,345,157,140,190,106,92
264,168,336,149,139,181,102,94
280,165,372,149,140,176,104,98
252,154,393,171,150,161,89,90
302,159,394,169,146,172,99,87
268,173,422,176,145,160,110,89
294,196,440,203,160,163,114,95
294,192,537,213,165,181,136,109
309,210,498,190,149,202,138,109
252,197,513,183,145,219,137,109
303,215,514,223,169,228,140,121
289,221,558,214,164,226,143,121
265,220,433,210,158,247,132,103
249,211,462,206,158,230,137,106
265,246,441,213,157,207,148,116
257,238,483,174,146,214,170,119
254,217,441,150,146,244,222,137
271,217,449,146,150,236,227,150
274,234,431,159,165,249,228,152
261,216,486,152,173,249,219,145
224,233,459,155,169,236,207,136
206,236,465,159,169,242,143,119
216,232,518,152,158,209,145,117
209,213,596,121,136,210,151,121
199,188,561,132,117,213,150,118
186,157,520,131,116,241,140,111
237,165,524,146,129,210,147,119
230,180,458,184,132,218,131,111
209,168,347,191,133,190,106,99
213,186,338,183,152,271,120,101
234,198,333,175,146,257,121,107
208,229,290,195,132,247,128,96
195,228,292,180,137,248,132,94
222,239,289,180,138,270,137,97
226,230,260,177,120,185,130,94
204,250,309,201,129,176,122,89
195,221,292,183,128,177,101,81
182,236,276,172,130,184,94,72
214,247,264,166,127,182,110,98
253,259,339,194,137,236,142,109
248,222,347,180,131,234,138,108
251,227,353,182,133,238,154,117
260,202,375,172,121,237,157,120
221,187,397,182,129,216,143,100
182,174,339,171,126,162,121,87
198,203,372,185,147,218,134,100
216,203,442,221,168,253,150,105
210,201,451,235,178,297,178,116
201,189,430,228,173,302,184,116
220,199,472,217,165,296,178,120
271,172,551,239,186,275,194,132
269,186,504,192,159,244,170,123
266,180,488,186,161,227,147,114
266,182,494,186,160,249,146,112
295,206,496,190,160,247,142,110
247,225,349,159,119,224,107,83
226,197,343,172,122,219,104,79
236,202,351,158,104,167,96,88
249,195,419,158,117,138,111,119
244,164,397,160,127,141,117,122
241,153,407,160,128,145,123,127
255,157,417,141,134,162,127,129
249,155,418,154,142,176,130,127
250,191,349,158,131,158,108,100
194,182,397,153,121,148,104,92
183,168,372,124,114,165,96,85
168,173,352,132,100,150,92,88
168,191,380,131,90,126,78,77
177,190,420,163,106,144,93,83
192,189,359,179,119,154,89,83
198,187,379,181,113,169,116,100
194,188,388,181,115,165,116,101
236,255,366,203,125,166,122,118
220,240,311,196,132,156,112,114
209,239,315,185,125,194,142,131
217,239,350,188,122,170,124,118
235,273,388,197,129,168,131,126
195,200,406,178,126,171,129,114
189,201,418,158,109,177,129,126
183,196,407,143,95,132,97,113
192,209,449,159,116,125,94,111
172,156,415,154,113,139,90,98
159,142,372,137,104,140,93,103
156,124,382,140,102,141,94,88
168,136,413,145,114,139,100,89
170,153,351,143,110,150,99,91
159,152,346,130,110,163,99,87
167,158,356,136,119,180,93,84
187,158,383,147,135,177,100,105
195,158,365,161,135,175,94,103
209,128,352,154,131,181,98,110
225,132,469,167,157,181,132,140
235,150,532,185,164,171,139,146
221,160,511,173,153,191,135,133
236,161,524,197,163,200,144,143
205,153,528,193,173,231,146,146
206,154,461,192,158,226,117,121
197,137,400,174,142,220,107,104
210,132,450,184,159,205,109,110
187,123,472,158,154,203,100,100
200,131,467,172,158,174,110,100
206,125,447,178,165,163,115,114
199,121,455,177,165,166,115,114
215,135,435,167,150,179,131,127
244,152,416,173,150,185,139,128
234,166,399,151,126,188,127,119
210,163,368,135,111,203,126,119
231,179,384,142,116,202,127,129
204,164,348,161,114,190,109,112
160,150,293,153,108,212,103,116
158,124,310,153,111,199,113,139
242,146,427,187,133,191,121,150
231,144,420,182,137,198,124,145
239,148,432,182,154,222,132,155
245,141,466,184,164,228,132,150
299,181,469,201,171,223,135,145
254,178,470,169,153,238,122,126
262,181,462,167,150,241,126,138
257,180,455,193,166,242,140,139
259,180,440,193,182,320,156,149
204,167,477,178,175,325,152,137
213,163,459,211,191,314,160,140
195,151,442,225,213,357,179,129
189,150,427,198,190,347,172,125
183,169,502,195,164,270,171,117
221,238,487,242,181,261,172,130
202,250,409,223,164,255,171,129
200,245,399,208,128,189,144,127
206,255,462,212,133,173,137,122
232,266,489,251,153,149,122,126
206,224,463,239,165,201,141,133
199,206,472,234,185,256,153,144
204,206,487,236,190,253,155,145
198,210,486,256,194,258,155,143
173,205,433,234,195,267,154,149
138,169,439,206,175,248,138,135
186,187,537,214,163,212,128,129
200,198,534,212,161,212,129,134
233,192,506,199,173,218,143,150
224,170,445,192,170,266,142,143
237,204,451,207,168,253,136,145
233,191,368,208,165,238,127,143
224,207,483,211,163,266,142,140
197,209,484,189,144,278,141,121
227,208,485,168,120,224,136,115
238,177,540,139,112,218,135,105
244,174,678,127,117,218,139,102
245,141,624,119,114,191,118,100
242,121,620,108,112,183,110,127
230,141,689,120,121,170,118,132
210,136,673,147,134,173,120,139
175,139,563,153,129,176,120,142
160,132,534,151,134,196,127,145
184,180,551,178,141,173,119,130
166,175,487,181,136,174,112,120
170,181,455,189,145,201,133,127
163,170,371,178,137,208,135,125
212,210,373,225,155,182,138,130
203,198,339,208,150,180,134,127
218,202,283,199,148,176,136,130
214,196,254,177,128,162,119,124
232,232,325,224,151,156,106,120
203,221,321,190,135,149,101,113
204,194,288,194,127,150,102,108
206,219,346,213,156,181,116,157
210,232,344,224,171,176,121,155
206,230,337,210,158,166,128,164
225,217,341,206,155,165,127,163
223,227,413,221,175,180,133,165
226,234,396,240,172,153,115,115
238,224,389,228,156,152,104,110
264,205,380,218,162,182,134,131
255,205,380,232,168,178,134,134
248,222,340,226,146,160,127,132
268,183,319,193,129,159,127,146
259,194,371,203,140,160,139,169
226,189,380,195,127,130,110,140
221,208,380,173,120,128,106,138
219,180,344,159,117,127,105,144
182,183,346,164,114,128,111,141
204,175,457,159,120,126,113,126
201,169,454,138,111,120,102,122
195,137,455,136,112,130,104,121
198,136,523,132,121,129,114,131
195,144,558,114,117,126,111,120
175,135,484,92,96,108,89,101
170,130,459,95,105,128,112,111
181,137,466,110,111,135,116,118
213,182,471,138,110,138,114,105
212,173,442,148,107,133,109,103
213,181,388,163,115,140,118,112
218,246,459,205,126,170,111,119
262,318,523,216,130,166,115,131
250,307,535,221,132,174,108,126
256,301,544,228,144,183,120,150
247,295,558,229,144,185,118,147
253,271,549,204,139,144,108,133
207,230,496,198,132,135,98,110
189,254,416,195,142,127,109,126
172,265,381,182,139,144,116,101
173,282,405,205,159,164,128,113
241,267,399,202,159,161,131,127
241,233,387,198,160,172,139,129
236,194,373,175,152,184,128,121
245,183,402,185,153,166,124,128
252,169,367,153,126,151,114,116
216,163,348,177,141,155,123,115
197,141,325,165,134,146,113,109
216,146,372,165,128,132,118,101
236,169,430,195,147,175,120,123
232,187,470,198,161,181,125,137
198,206,475,172,140,176,112,130
228,235,534,184,156,192,125,151
253,251,549,236,205,209,142,169
240,246,494,221,200,174,132,147
253,285,455,233,195,177,169,194
256,284,472,238,202,195,184,201
290,283,466,245,207,186,184,196
263,277,427,201,167,173,172,181
254,277,413,177,147,180,174,189
248,222,433,154,148,171,133,127
276,258,388,175,158,153,113,127
229,265,407,159,141,156,105,117
223,254,393,147,127,151,102,116
265,256,498,152,147,162,109,123
300,262,483,147,137,152,103,127
280,213,509,112,111,144,95,111
272,201,461,129,107,136,97,111
286,208,526,167,139,160,116,118
250,193,464,180,130,141,109,102
191,192,468,188,141,161,118,98
171,200,450,188,142,162,130,104
168,213,470,189,156,166,131,103
164,213,418,179,141,136,120,105
158,212,386,175,146,165,130,113
155,210,393,174,138,172,136,115
175,215,389,204,161,186,134,114
193,188,359,197,150,202,130,114
161,179,333,184,141,215,136,107
223,202,387,184,137,192,140,102
227,209,492,184,138,182,151,126
219,206,532,175,120,178,148,123
204,211,540,175,126,176,147,126
211,231,556,172,123,163,137,126
162,235,528,186,125,186,158,153
164,225,436,190,126,184,137,129
195,223,432,194,140,183,140,135
214,224,416,190,128,161,138,130
215,205,408,188,134,158,140,131
210,193,417,182,153,159,120,105
212,186,379,194,150,147,121,105
174,172,278,173,132,134,110,99
157,162,286,167,133,138,113,99
166,172,310,169,132,143,117,117
162,147,273,152,92,111,90,102
161,169,274,121,86,111,103,104
168,180,291,102,86,134,111,112
182,193,283,117,93,132,111,115
203,227,257,175,127,242,150,121
198,231,281,171,132,270,164,122
207,220,326,179,156,376,207,131
221,211,391,193,165,412,228,127
221,219,427,212,171,417,233,126
191,182,430,186,148,367,206,98
196,178,418,185,146,352,201,105
209,194,431,184,122,241,151,103
210,205,377,178,108,162,110,99
208,182,354,153,92,143,91,93
247,184,357,129,82,128,88,103
241,193,395,143,94,129,82,91
215,190,349,139,94,124,81,83
209,197,428,159,110,138,91,94
193,198,423,149,109,140,100,106
173,213,478,150,120,160,137,118
203,228,559,183,142,168,153,130
212,219,554,200,150,172,150,129
200,200,501,191,153,170,150,123
213,208,484,205,166,179,156,127
189,195,468,227,160,175,136,123
197,183,395,194,141,165,119,121
194,176,420,178,136,160,126,124
188,177,397,171,125,154,123,137
181,173,399,161,127,182,117,130
215,209,330,145,147,171,112,130
183,199,240,141,138,163,102,120
176,203,204,134,131,159,92,113
199,206,224,135,157,258,146,138
208,216,251,138,144,237,144,139
197,172,264,132,135,245,148,132
203,170,282,127,136,248,151,134
235,178,296,137,145,255,149,142
220,184,301,173,137,177,106,103
220,184,291,188,141,172,104,105
199,187,270,187,137,158,87,100
196,191,373,192,135,172,109,104
159,194,396,194,137,164,115,99
167,222,439,167,129,144,108,97
160,218,467,143,130,158,105,86
198,210,507,129,127,161,111,94
213,224,515,134,138,149,102,99
220,219,494,139,139,150,99,99
232,188,462,134,120,148,94,97
225,195,455,142,113,136,92,101
208,216,440,149,119,174,118,99
193,210,364,163,116,165,112,87
258,233,428,177,110,163,116,89
265,232,420,189,125,157,118,97
268,208,392,187,141,226,159,137
250,183,363,180,136,210,140,134
249,199,410,182,129,209,134,135
212,178,408,166,132,206,134,131
200,174,426,166,124,207,140,131
198,191,441,181,114,123,100,108
236,217,480,210,124,100,104,114
243,207,442,199,118,112,108,117
211,192,396,190,117,147,111,120
196,188,363,171,114,156,105,117
244,191,429,172,122,182,103,111
212,165,404,148,110,182,94,100
219,168,396,148,113,191,101,105
216,176,388,154,114,188,110,105
220,210,426,158,114,180,109,102
182,203,410,146,98,155,105,86
187,219,430,148,112,178,115,93
175,213,452,156,116,169,112,86
187,230,483,158,123,167,118,102
197,211,481,174,133,168,124,111
192,206,427,171,143,168,128,114
197,188,451,161,141,180,128,122
187,184,464,159,141,175,128,129
178,166,504,152,141,166,110,124
174,157,508,130,129,169,104,116
173,165,502,139,137,205,120,128
165,188,463,149,135,181,117,129
174,174,424,139,134,181,114,117
176,172,375,136,127,170,115,106
166,165,461,158,129,163,118,114
146,161,484,149,105,112,100,118
162,152,482,161,102,110,101,112
168,157,494,172,106,120,104,120
188,154,598,180,114,132,108,124
183,155,548,165,112,137,103,118
184,144,522,158,115,140,94,94
169,132,514,143,115,140,95,90
194,142,529,130,112,127,92,97
172,142,362,124,100,121,86,94
182,138,310,123,111,148,103,100
199,160,348,132,110,150,106,105
206,189,340,137,109,138,105,108
204,184,358,132,110,136,106,108
214,182,356,128,133,226,116,103
235,207,362,158,144,215,115,109
226,198,367,155,145,212,114,105
222,165,389,142,138,213,109,99
186,153,318,137,129,216,104,83
168,145,327,138,108,129,88,81
126,133,328,114,89,117,77,63
135,183,292,134,88,117,93,74
130,181,259,163,100,117,95,77
131,192,267,168,104,125,103,87
144,214,290,169,101,109,107,102
214,226,377,202,133,118,118,118
251,206,478,192,132,134,121,127
250,206,495,170,132,164,128,126
251,203,502,169,142,195,126,124
247,184,490,171,145,200,137,122
197,155,451,143,124,203,129,113
138,140,345,153,135,208,122,104
158,153,317,152,129,186,115,109
163,168,405,160,117,148,110,109
175,186,433,187,147,140,99,98
180,179,438,172,145,136,110,105
183,165,451,155,133,123,108,97
165,150,467,155,130,122,108,88
176,147,426,171,144,121,116,102
174,134,391,141,113,118,112,108
159,133,350,139,105,123,94,98
167,159,357,150,116,130,122,117
175,184,353,156,119,142,121,118
156,172,353,133,105,139,110,101
160,168,417,161,113,142,110,100
161,179,442,188,119,125,123,99
179,159,435,191,122,121,102,76
178,142,457,205,123,111,103,80
196,162,509,234,138,128,114,92
206,164,473,238,152,150,123,96
223,158,522,262,183,182,133,118
201,156,520,262,183,184,130,125
201,149,498,264,189,188,153,144
197,131,453,248,178,178,147,136
204,135,467,228,164,162,142,137
185,134,392,200,127,127,122,116
176,129,390,198,123,117,121,105
188,131,436,197,135,125,104,104
180,137,446,191,151,137,119,115
142,122,440,184,151,138,116,106
147,117,422,147,168,276,147,106
189,162,402,139,160,281,145,112
182,165,381,113,142,276,134,84
182,161,333,105,119,270,118,68
179,164,294,111,123,272,121,68
188,175,308,115,90,144,90,66
174,161,331,128,92,125,92,65
180,158,334,123,94,116,88,77
171,163,366,132,108,118,97,85
177,169,365,126,107,127,99,98
192,177,369,132,111,114,101,117
175,162,390,133,122,113,99,116
161,157,365,147,139,132,113,115
161,140,297,134,132,130,107,109
165,132,333,144,125,109,99,103
168,110,334,142,124,126,95,106
167,123,342,136,119,127,93,107
162,132,335,117,90,114,75,102
174,140,342,112,90,124,87,105
167,140,323,103,100,135,87,101
194,196,393,143,120,125,95,96
207,189,362,143,131,131,102,97
215,184,345,149,143,140,126,105
224,181,331,156,147,143,121,103
248,216,374,179,158,138,132,116
207,163,297,160,142,128,119,99
202,167,295,153,129,117,112,101
209,168,320,147,117,108,84,90
229,181,369,148,124,102,85,95
213,136,314,120,101,95,70,82
208,133,324,108,96,97,74,82
215,164,351,127,111,138,91,106
231,182,354,137,114,138,93,110
193,166,315,127,104,127,85,103
186,187,432,130,105,127,88,104
183,192,419,140,114,129,82,107
160,157,421,126,101,106,71,79
161,146,429,115,97,100,65,75
183,165,441,131,97,113,73,76
186,158,331,149,117,123,78,81
189,168,385,135,110,130,85,80
188,173,382,143,107,127,80,81
156,165,401,162,117,135,94,94
144,154,410,156,118,129,93,99
132,141,410,134,92,126,87,90
177,124,356,147,93,119,83,85
188,142,424,188,137,152,98,108
185,155,388,192,139,151,91,100
174,158,372,195,143,154,92,95
203,176,404,196,144,156,93,106
173,197,434,210,162,169,106,118
165,181,337,172,133,139,103,103
167,171,333,148,121,133,103,104
181,172,342,143,112,128,99,106
176,180,362,174,129,131,104,98
181,170,338,142,105,113,95,90
178,168,340,136,102,110,89,80
190,176,381,144,113,114,85,80
181,177,392,186,142,130,131,104
152,153,363,163,130,117,127,102
150,142,343,169,135,125,126,101
160,155,411,166,134,131,131,129
190,156,405,176,129,141,132,130
186,147,387,134,96,125,88,110
192,141,362,123,89,128,89,109
185,135,405,114,85,132,100,121
180,145,349,125,90,137,92,106
160,139,321,114,99,136,95,103
184,151,311,103,106,160,105,107
185,154,302,110,120,167,128,114
178,156,317,127,117,163,125,99
199,139,299,141,121,156,125,90
180,143,346,152,122,147,124,97
166,125,341,149,116,126,116,93
157,130,347,144,104,124,90,97
196,148,364,141,112,120,96,107
178,167,523,141,108,111,102,102
169,160,487,122,96,112,99,94
152,159,480,126,96,108,96,90
160,178,499,135,104,92,94,81
166,176,440,133,98,90,83,72
166,158,228,118,91,94,73,71
188,163,246,122,86,93,74,70
196,166,247,132,92,93,81,87
193,142,205,126,85,95,80,83
160,154,250,137,95,101,90,89
157,176,253,140,98,103,93,86
133,173,226,142,108,108,95,88
139,171,248,139,107,105,88,72
209,186,261,139,111,105,89,86
212,180,242,120,100,100,76,72
217,157,254,105,93,85,65,79
221,184,297,114,100,98,69,82
240,196,304,116,107,122,75,83
189,198,287,124,106,133,74,71
178,187,268,124,104,135,77,70
174,201,328,134,109,147,77,65
180,171,312,122,96,130,72,58
174,168,305,112,83,107,81,65
175,193,314,110,84,96,85,70
186,193,353,123,101,133,106,94
188,194,321,139,117,150,130,106
212,210,356,147,125,155,135,110
187,207,371,171,143,183,137,111
191,179,375,184,154,187,138,109
179,172,366,180,149,159,120,89
183,159,345,168,137,134,93,77
143,144,286,164,139,133,91,95
150,143,274,141,126,101,77,91
151,139,257,161,137,109,76,91
168,151,228,156,133,107,76,102
151,141,194,150,135,124,83,101
154,134,202,147,128,126,87,88
198,128,196,169,132,122,87,90
191,118,250,137,100,109,88,92
180,109,272,138,97,113,92,83
183,102,316,136,94,109,94,79
195,118,365,156,102,109,101,81
183,156,366,149,97,107,107,86
175,152,337,138,97,105,100,80
170,146,311,135,98,108,100,88
189,160,314,142,109,123,119,124
179,154,383,136,117,123,109,122
146,124,379,131,117,125,108,117
153,122,370,128,116,129,107,120
220,153,431,153,136,142,120,128
206,145,427,147,128,121,100,97
202,140,317,130,110,110,95,91
228,152,311,167,139,135,111,110
244,151,334,173,156,170,123,107
188,121,265,160,148,163,108,89
205,136,256,163,145,160,101,86
223,146,315,168,148,164,115,98
214,135,341,126,122,144,102,91
192,138,350,126,105,96,88,89
189,140,351,120,103,121,95,95
170,156,422,121,111,125,102,101
160,151,394,120,105,123,89,90
156,152,374,113,96,124,95,79
172,165,360,112,90,123,99,80
180,167,375,132,94,107,102,83
182,151,305,159,91,108,104,78
167,154,296,163,100,113,102,76
146,169,302,162,97,123,97,88
138,186,308,163,103,124,92,94
141,196,360,155,105,124,95,98
139,190,361,127,103,120,88,98
146,188,360,128,102,122,87,102
182,170,371,127,110,119,83,105
186,149,465,127,107,118,84,100
193,139,444,122,93,108,76,90
204,151,460,145,115,127,87,98
200,140,459,140,114,132,108,104
162,136,456,147,110,139,109,91
162,150,380,168,141,166,126,99
187,172,405,201,169,174,131,121
178,158,355,212,182,207,136,116
177,164,346,212,189,227,140,116
173,164,335,209,188,227,154,143
164,162,320,211,176,213,146,143
117,133,261,181,149,202,139,136
111,133,315,150,119,162,134,134
105,129,340,147,112,157,117,135
129,146,342,151,120,153,101,111
119,122,404,132,111,145,91,102
125,130,406,128,117,150,91,84
122,129,368,116,108,144,90,97
146,132,385,115,103,112,87,91
181,131,582,143,132,127,117,104
197,134,545,150,135,137,129,108
197,149,543,159,143,208,171,131
221,153,544,159,145,221,175,124
224,160,536,162,143,218,174,119
194,156,334,154,126,206,160,110
180,165,326,136,118,206,154,113
170,141,310,128,112,157,116,107
191,152,306,144,117,134,104,109
187,176,326,174,139,144,111,112
180,170,371,169,135,146,98,105
187,158,373,166,134,141,92,95
203,158,363,164,130,117,82,76
227,210,424,200,152,129,88,73
234,198,408,186,160,139,90,76
239,197,348,173,153,134,94,86
241,197,343,173,158,148,115,112
250,204,366,177,164,157,116,113
206,163,346,143,142,149,109,107
191,146,367,136,117,129,105,115
182,146,372,133,116,130,107,116
181,140,352,136,117,120,92,97
166,138,328,124,104,100,86,104
198,197,349,170,136,117,91,114
190,202,320,162,133,116,92,99
215,210,340,164,131,123,92,92
223,220,339,163,128,127,87,103
219,221,362,174,128,128,85,91
183,143,310,109,94,115,83,84
196,139,381,130,94,119,99,90
197,147,387,130,91,112,96,92
184,146,393,136,88,112,100,97
190,142,390,128,78,106,102,103
179,167,393,129,65,95,101,100
171,169,318,120,82,96,80,94
166,159,289,129,97,106,91,105
210,215,301,162,116,105,104,100
224,223,282,159,117,111,108,97
257,216,261,162,127,115,113,98
269,230,251,176,125,110,123,111
253,229,261,181,124,96,115,99
214,171,241,157,114,77,98,83
205,164,265,165,122,91,99,85
186,182,329,191,126,104,95,86
166,160,329,179,121,107,86,71
168,152,314,170,108,108,80,65
177,166,347,176,108,132,85,87
188,167,368,184,115,134,88,88
170,139,357,160,116,130,113,96
174,137,355,148,107,124,109,100
180,145,352,150,110,125,121,101
184,158,388,133,102,109,128,90
167,208,380,137,101,101,131,88
173,208,329,131,88,107,111,77
172,207,368,139,116,147,121,75
194,219,396,170,124,142,123,101
202,210,360,193,134,138,119,102
187,154,327,175,125,132,109,104
179,151,360,180,122,124,111,114
181,171,376,198,106,95,109,121
190,198,361,182,102,105,101,104
190,202,339,173,102,109,93,103
236,205,344,175,103,120,101,103
241,214,320,167,104,130,102,96
233,207,299,152,113,123,100,86
205,166,278,142,108,118,94,80
193,152,271,124,97,121,93,74
142,162,264,130,96,113,83,73
136,152,297,143,99,105,81,69
167,188,364,193,136,133,112,98
179,196,357,189,135,141,120,99
191,199,371,186,134,136,122,97
192,196,404,191,138,140,136,105
207,216,450,190,144,156,144,113
188,179,360,146,98,129,124,96
189,180,445,179,119,123,123,103
165,165,434,179,121,132,123,122
185,169,424,209,146,140,120,127
168,148,364,225,142,118,105,121
170,165,377,236,148,128,103,117
146,149,279,216,137,151,110,120
148,155,308,231,139,143,107,102
128,172,282,208,122,130,96,86
125,169,258,189,119,134,98,83
120,151,280,163,126,148,116,101
119,153,297,167,130,129,114,108
151,159,333,177,150,148,123,117
138,123,364,164,141,153,128,116
142,107,379,173,148,163,151,132
134,99,425,166,135,174,137,116
133,101,467,156,135,186,126,103
119,100,452,141,122,173,125,100
109,97,426,135,116,167,119,98
105,95,510,112,108,176,97,76
113,116,550,119,170,312,126,90
117,124,533,124,163,312,130,92
91,118,514,111,160,321,123,84
97,120,526,125,165,322,130,87
125,135,477,141,165,317,131,104
132,160,366,176,110,179,101,95
138,154,319,184,114,205,104,93
140,150,304,186,110,210,114,97
144,164,304,208,136,225,115,97
116,154,278,202,145,229,114,78
100,119,282,172,143,246,126,92
112,114,343,181,156,222,132,98
112,114,359,173,153,206,124,96
111,107,383,140,132,203,117,93
112,117,390,140,120,200,114,94
125,127,405,136,124,198,102,83
113,127,381,116,124,233,111,84
115,134,387,156,141,233,112,80
117,132,394,158,140,226,113,86
124,124,391,156,139,222,109,86
115,107,394,170,130,228,119,81
113,110,389,169,116,205,100,82
111,105,384,140,99,241,103,87
116,101,412,140,113,250,111,92
106,101,392,150,115,251,115,94
103,99,368,143,137,243,122,104
130,107,396,176,154,233,135,121
135,104,399,176,153,198,134,126
126,96,318,178,154,205,139,131
134,104,347,182,168,228,143,138
146,114,405,185,154,192,127,136
114,121,355,146,139,183,111,111
105,120,400,143,136,173,112,108
105,128,428,132,127,175,92,122
114,136,402,120,105,144,87,118
127,132,404,120,120,151,91,122
130,115,413,120,117,159,98,125
131,137,359,130,121,166,95,121
142,130,403,144,115,135,100,105
131,119,465,139,116,123,97,97
100,113,422,127,96,126,96,85
131,111,494,141,130,152,118,110
158,90,575,145,137,154,124,115
152,87,542,140,142,149,120,107
148,77,483,137,143,163,117,106
150,74,481,133,147,162,117,107
124,93,421,126,114,134,112,100
138,110,352,156,121,140,112,95
140,113,327,157,118,143,115,93
147,117,354,171,128,136,127,105
147,122,342,172,124,151,123,111
150,122,364,166,123,146,105,93
119,109,313,130,102,129,104,94
115,122,424,116,106,130,105,94
113,122,415,88,88,130,100,83
127,126,466,127,102,119,104,79
119,117,430,131,106,120,101,78
104,132,442,124,107,153,109,82
108,126,336,131,109,166,117,91
96,125,364,134,113,169,110,91
85,133,315,106,102,162,107,84
85,128,311,99,97,164,110,88
93,107,332,98,98,141,101,84
106,107,357,129,92,118,89,81
111,100,299,127,97,120,84,79
110,81,320,139,90,121,99,88
113,100,379,144,93,115,98,87
115,111,378,151,94,106,98,94
92,105,360,133,100,123,98,84
96,120,400,147,113,109,112,93
93,119,387,130,115,109,98,87
112,129,372,137,115,125,106,90
122,142,387,147,121,130,108,90
120,148,390,135,110,121,104,92
117,140,359,121,98,138,96,83
121,152,390,124,100,131,94,85
121,144,375,156,112,117,81,98
139,142,336,146,100,112,82,91
146,149,323,161,105,138,89,94
151,155,342,188,117,131,89,97
151,161,384,218,129,143,95,95
147,178,412,225,128,146,103,88
117,167,406,230,130,149,112,92
163,184,442,251,150,132,124,104
164,182,459,242,140,122,124,100
165,168,380,236,142,156,134,114
160,145,346,205,132,155,128,108
161,147,360,216,135,157,119,104
111,142,345,186,110,147,101,90
119,158,323,175,103,143,96,87
134,160,324,139,81,87,90,92
154,174,329,138,90,107,99,94
157,175,310,121,87,101,95,92
165,170,314,114,85,99,102,109
164,159,292,118,89,108,110,113
162,181,334,135,97,107,107,99
158,166,327,149,102,88,115,98
171,178,386,136,105,116,127,101
188,164,361,147,117,193,148,100
225,163,378,158,122,218,154,104
239,168,434,180,122,223,152,108
237,169,435,179,128,226,138,105
239,164,393,181,153,246,130,114
264,191,423,218,181,219,128,128
293,224,465,240,201,210,146,147
302,209,407,224,203,209,144,144
313,218,422,240,206,204,147,148
315,214,428,241,186,166,149,162
293,208,419,201,153,129,130,143
237,176,351,163,127,103,93,118
215,174,326,160,125,104,98,117
190,161,297,119,111,131,119,137
173,167,321,124,111,135,115,112
185,159,362,151,121,142,110,107
181,159,376,181,123,144,110,113
165,152,383,179,121,155,111,119
175,150,408,181,118,132,91,94
187,147,385,187,123,122,89,92
150,129,325,168,120,141,99,95
150,116,299,140,124,144,99,99
151,124,302,157,134,132,101,93
151,125,274,159,134,140,102,88
125,106,273,149,125,183,113,87
156,120,261,143,117,172,115,86
162,137,298,158,116,171,127,80
170,139,314,142,104,174,122,79
158,142,301,137,99,179,125,81
166,146,275,131,100,150,113,79
181,160,319,132,100,145,101,76
174,161,374,122,86,137,90,73
171,150,349,122,92,129,82,67
179,145,341,128,92,112,69,67
189,151,380,128,91,89,64,71
181,132,360,132,85,84,63,71
172,109,350,117,83,86,58,64
167,131,379,117,67,91,63,69
180,149,391,107,73,100,62,66
180,144,406,128,86,101,73,67
158,144,402,126,95,113,78,65
158,152,350,121,89,119,82,73
176,166,317,117,96,119,87,82
171,167,346,146,127,133,94,87
154,178,279,142,128,132,93,84
163,177,347,152,135,136,92,93
167,186,321,155,140,135,89,91
159,159,318,157,141,134,80,79
174,149,276,145,112,110,70,74
208,159,325,127,105,114,66,86
212,167,282,109,97,118,83,100
232,167,328,141,121,121,87,103
249,171,352,162,124,125,92,104
226,163,360,151,122,127,95,104
233,145,328,152,118,124,100,106
220,138,291,162,114,107,91,84
223,127,278,142,91,102,101,88
192,132,257,130,103,105,109,88
211,144,262,134,112,150,120,91
177,153,271,147,124,153,122,79
181,170,280,145,124,151,116,76
162,166,265,137,118,148,106,68
181,168,296,140,104,143,99,75
162,164,281,138,100,118,84,75
188,183,291,142,98,124,74,75
226,182,310,134,98,126,83,92
221,185,307,138,110,127,82,93
213,182,279,126,110,123,75,89
212,193,272,129,108,100,74,86
206,163,250,115,99,86,70,82
215,145,216,124,101,83,59,72
240,160,211,120,86,81,54,74
248,155,192,108,85,115,69,77
247,144,191,101,78,120,72,73
253,155,276,134,102,121,72,74
202,152,277,133,102,118,71,70
175,132,270,139,106,127,81,74
167,132,270,140,99,94,70,71
168,141,323,152,100,95,72,83
183,142,257,129,92,101,81,87
185,142,265,115,91,114,94,87
189,140,291,128,99,112,88,75
183,148,315,130,102,113,91,74
196,141,303,132,100,103,88,62
150,148,301,121,83,95,86,57
170,176,290,129,80,102,83,69
159,181,279,114,70,96,81,73
172,183,292,121,74,99,81,72
168,182,279,113,80,103,80,77
163,168,314,114,81,102,84,84
179,148,335,116,87,88,80,78
189,149,339,114,93,107,82,81
199,135,386,114,91,105,81,84
194,129,387,111,81,99,80,82
200,128,381,115,83,105,77,73
208,129,408,126,94,103,80,82
218,130,401,123,87,88,83,79
231,139,370,137,94,97,88,83
229,149,434,160,124,131,101,91
247,154,487,175,149,145,118,107
217,136,484,165,143,142,118,99
213,135,500,168,147,138,119,100
200,142,537,168,159,136,132,111
199,129,489,142,139,118,127,113
216,141,570,160,132,126,149,135
215,144,568,157,127,140,149,134
221,163,567,163,127,144,149,134
212,150,513,144,104,141,140,121
222,170,539,160,119,142,147,125
185,166,412,159,111,120,106,85
215,174,379,183,122,117,114,88
191,150,359,176,115,112,109,85
186,157,376,187,119,114,103,86
176,153,329,174,103,99,95,72
192,133,284,148,89,96,102,75
151,123,269,124,79,87,96,79
155,132,366,144,84,96,99,82
166,139,442,132,83,112,104,96
179,140,453,152,115,133,105,101
159,147,468,146,117,138,97,95
162,154,495,147,129,169,101,85
173,150,458,145,145,200,214,117
162,144,392,142,140,191,223,115
190,151,366,136,131,188,275,130
214,201,377,155,150,203,346,170
233,210,429,157,152,203,511,227
253,235,505,193,175,206,499,226
254,242,501,204,193,226,506,238
223,230,505,211,190,229,482,228
200,192,482,199,173,219,438,207
193,180,416,197,159,195,233,162
211,149,343,170,121,160,179,147
205,134,320,162,98,137,141,120
202,129,342,139,96,156,149,134
199,124,340,142,97,160,162,124
258,141,480,151,114,165,160,120
219,131,438,124,108,164,164,115
232,132,484,128,110,167,168,115
246,146,467,136,107,138,150,99
262,143,471,133,109,129,131,100
196,118,355,126,98,120,114,73
202,147,388,143,117,125,120,74
195,167,353,145,123,138,126,81
175,155,345,144,121,136,121,72
155,161,341,148,122,127,115,71
147,165,326,164,129,130,107,69
128,142,307,155,114,119,89,60
172,135,294,146,102,89,75,52
175,145,306,138,101,104,87,62
182,145,339,134,101,114,87,63
191,142,323,105,91,110,86,61
188,137,364,100,94,117,95,68
160,118,406,95,98,133,96,71
159,106,423,108,109,121,96,71
141,100,391,102,105,117,100,77
122,109,410,108,101,132,107,79
168,135,418,143,112,126,100,84
149,137,353,143,109,114,105,90
150,144,329,150,107,113,96,85
152,142,354,156,121,167,107,76
168,147,414,153,131,167,122,91
160,133,371,125,123,171,121,85
159,123,405,135,128,167,117,86
162,116,407,133,131,177,120,93
164,127,400,131,121,131,103,103
148,117,309,129,111,114,74,88
102,115,276,132,105,108,72,84
169,140,235,134,100,119,74,100
164,140,237,123,82,113,72,105
197,130,266,133,96,120,79,119
195,125,261,128,93,120,81,122
210,146,308,123,100,127,105,129
198,129,319,120,98,120,107,113
201,131,320,116,95,108,115,108
168,134,282,105,83,93,109,84
183,145,465,114,91,95,118,99
187,131,456,115,96,99,116,102
163,136,485,110,105,116,135,115
189,137,485,106,106,113,126,112
198,144,531,101,103,117,125,111
195,151,447,110,98,119,128,107
218,145,441,107,87,111,106,97
213,149,401,104,85,145,82,82
194,165,422,120,92,148,91,85
198,162,376,136,99,144,96,89
232,174,290,133,95,139,77,74
202,165,289,140,96,137,77,75
195,154,291,151,94,88,74,85
199,145,253,143,89,108,61,81
184,144,241,128,80,109,59,77
154,125,313,118,82,110,62,81
150,149,301,114,85,115,74,88
145,148,318,103,87,113,67,75
143,136,321,104,87,92,81,88
147,136,311,107,85,95,84,89
145,143,237,119,88,95,89,88
148,156,244,172,116,103,106,87
164,161,196,181,120,113,114,88
162,171,187,180,126,115,110,77
163,166,207,181,135,118,108,78
161,154,205,176,133,118,106,78
247,155,235,117,105,108,101,74
237,156,251,96,96,107,107,73
239,152,256,89,85,104,103,89
252,163,273,125,86,99,105,90
248,170,310,144,92,106,113,94
173,155,289,153,95,113,102,97
175,154,285,153,90,105,98,101
177,163,371,174,101,104,97,88
164,169,458,162,104,127,103,87
156,159,451,146,99,122,97,84
137,145,456,133,95,123,103,82
150,153,499,130,100,127,107,80
138,134,467,99,97,128,108,78
194,146,384,84,80,102,102,77
192,149,371,88,81,97,100,75
207,158,366,95,82,82,87,67
200,158,302,103,84,81,79,63
237,178,261,119,86,83,79,70
197,152,227,112,88,93,88,77
203,162,232,112,91,94,86,85
185,162,234,121,107,111,88,87
181,154,235,129,108,103,78,100
142,143,247,142,116,108,77,95
137,149,333,145,118,102,67,93
166,139,337,140,118,127,72,90
174,125,317,139,113,127,87,91
195,136,363,140,120,136,94,79
186,145,357,120,108,134,100,81
193,148,343,138,109,137,103,80
199,149,328,145,107,119,102,82
207,162,341,140,106,114,86,79
188,164,304,134,94,100,76,71
187,150,343,150,92,92,65,67
180,140,280,131,80,80,55,60
158,147,300,126,74,88,59,61
170,150,332,133,67,82,75,65
186,204,335,169,98,92,96,86
213,212,325,161,98,94,111,94
227,214,328,161,103,95,110,95
221,230,345,172,117,101,112,91
197,223,307,171,115,98,104,86
236,247,324,188,117,101,109,87
210,258,296,193,130,110,110,84
202,290,309,200,135,137,116,90
195,279,285,194,125,125,113,87
204,278,294,200,130,124,115,93
149,204,276,158,105,112,98,78
180,197,283,161,98,121,82,74
189,149,270,154,90,92,74,69
200,130,254,152,90,95,70,75
205,135,242,132,82,97,67,68
197,141,244,121,81,103,57,64
168,116,215,99,71,80,53,60
138,115,209,96,73,88,56,67
127,133,251,90,70,88,58,65
141,132,254,91,73,92,59,68
154,131,244,91,76,87,64,68
156,149,300,81,75,95,70,77
154,150,372,92,85,91,76,75
173,143,349,101,89,90,73,74
158,139,397,107,99,93,84,79
157,163,406,104,102,95,86,83
156,151,381,108,102,85,89,80
162,157,315,108,93,79,83,78
156,164,321,114,89,75,86,76
174,171,251,102,70,65,76,67
164,156,333,100,62,66,83,67
165,161,343,116,79,100,90,61
189,182,367,112,78,101,95,74
171,179,386,97,80,102,92,74
184,178,385,100,80,104,95,74
180,171,302,102,77,100,83,68
182,173,275,89,69,78,70,77
161,142,239,88,68,78,63,63
154,131,206,87,69,82,63,69
142,113,305,107,79,85,62,72
154,124,323,126,95,96,67,75
175,112,333,132,105,106,72,70
179,114,338,128,107,107,76,114
251,140,359,132,108,106,75,116
241,147,299,117,101,99,77,122
238,138,308,112,92,93,74,122
219,132,287,98,76,92,83,126
221,160,310,97,74,93,85,94
140,139,298,103,71,93,93,90
149,136,299,107,81,94,90,78
182,139,257,91,82,92,94,86
213,164,270,101,79,91,86,86
205,138,253,141,82,97,82,86
211,143,231,134,86,95,71,81
189,144,222,130,85,101,70,82
154,146,269,132,84,107,69,76
152,133,259,134,89,120,76,75
197,134,263,91,89,116,71,68
191,144,277,113,97,122,80,72
197,153,263,111,92,118,86,75
208,146,218,104,85,109,79,70
187,190,231,104,87,94,69,61
160,184,216,100,83,90,71,66
172,182,186,86,66,82,62,63
174,171,259,96,70,84,77,73
184,172,275,99,75,91,84,73
182,145,280,122,79,87,97,81
183,146,281,127,77,87,99,76
187,144,286,126,82,88,103,83
183,150,231,122,76,81,86,69
158,157,223,120,78,83,85,78
159,125,214,93,82,76,77,75
154,131,208,96,91,109,87,83
132,145,217,104,92,113,87,77
166,160,212,107,92,112,86,78
180,159,252,112,89,107,86,70
178,156,238,101,81,109,78,63
167,157,241,97,78,77,66,58
171,144,242,91,75,67,63,60
153,145,249,102,79,69,62,62
148,144,213,109,78,81,68,63
153,167,241,127,87,88,76,68
143,170,282,143,84,90,73,66
146,164,305,146,87,91,73,67
123,141,300,136,84,95,78,68
139,151,306,128,88,107,99,90
133,150,294,118,78,104,100,90
140,145,283,96,78,103,98,87
149,157,255,99,76,101,97,82
157,180,273,103,83,104,94,83
149,169,270,106,83,84,70,66
144,151,275,103,80,71,67,68
138,143,236,120,79,71,68,72
115,135,244,106,75,72,69,74
126,135,236,102,69,66,69,70
116,135,247,107,62,63,59,64
129,139,255,131,82,77,62,70
127,143,260,119,83,78,62,66
155,146,251,119,83,81,70,71
141,121,248,121,84,81,72,73
142,127,305,117,84,78,71,71
137,124,294,94,69,66,67,64
158,130,321,91,68,69,71,70
136,121,327,99,72,69,70,63
190,135,350,134,94,81,80,69
197,133,276,136,98,80,83,74
200,130,274,130,94,74,80,69
185,123,279,137,96,71,77,65
192,128,304,153,110,72,77,74
204,130,293,123,90,57,66,74
191,131,317,116,86,60,67,73
188,131,317,125,90,64,63,74
196,130,287,135,88,69,70,76
192,124,248,123,70,63,64,67
123,104,255,141,74,68,70,61
127,90,232,141,73,70,70,65
135,107,241,132,65,65,72,65
131,120,247,130,74,63,69,60
152,123,399,162,104,77,78,72
151,129,378,169,110,73,69,71
149,142,393,169,112,78,74,67
155,179,405,178,121,87,86,75
157,213,418,178,125,90,92,83
138,212,294,146,101,82,86,81
136,206,296,124,98,101,98,96
133,202,304,128,106,113,112,103
124,179,303,124,105,112,105,114
113,132,387,108,93,108,100,114
104,128,406,100,91,107,103,113
110,134,416,96,83,90,102,102
128,148,441,105,72,72,81,95
143,137,484,104,81,75,84,87
143,149,420,121,88,81,90,83
147,159,411,119,90,91,89,101
159,155,403,132,105,109,93,98
149,146,354,130,106,106,97,102
129,134,313,143,99,103,96,93
123,113,306,136,94,99,90,92
160,106,286,144,93,92,88,80
172,108,423,146,103,92,86,97
204,122,434,140,99,90,80,94
203,128,413,122,91,91,77,96
212,130,409,117,89,92,78,94
230,147,441,127,99,91,84,96
225,157,336,112,72,73,73,91
205,143,322,129,79,70,85,95
245,138,329,139,86,66,82,106
247,146,357,158,101,69,81,107
220,149,318,169,107,73,79,104
209,136,283,167,107,71,82,103
196,133,288,156,103,76,75,104
156,157,329,156,102,79,83,94
152,151,307,137,93,82,87,102
136,155,294,108,71,72,82,94
134,163,295,107,70,74,75,85
156,165,321,103,71,76,83,88
144,151,246,96,75,77,81,85
136,152,211,86,66,70,72,75
152,164,221,96,71,70,70,76
163,188,243,117,88,72,78,99
163,207,218,125,94,72,74,109
166,207,236,118,88,66,72,107
176,207,238,118,86,67,75,108
183,181,300,123,96,75,76,112
178,161,351,133,83,69,69,91
162,139,356,132,89,77,75,65
152,125,349,134,86,75,72,64
154,121,399,138,90,77,75,73
138,125,443,132,93,76,76,75
151,120,411,98,90,76,77,78
157,125,432,92,81,64,64,82
173,143,445,105,89,64,67,84
183,148,411,107,93,63,70,77
176,147,357,124,97,78,69,74
170,158,339,128,98,84,67,71
167,155,328,125,98,85,65,64
162,154,310,121,91,88,65,66
144,149,320,121,85,85,57,62
161,153,275,105,67,69,61,57
186,148,318,115,77,67,72,66
189,138,295,117,73,65,75,78
192,126,316,127,88,72,74,76
188,136,331,120,91,74,73,76
185,126,323,116,88,72,68,72
143,112,314,102,83,71,73,67
137,119,319,105,84,71,77,56
130,123,348,96,69,61,78,63
170,124,341,131,74,61,84,67
199,162,359,175,103,73,96,91
199,156,330,177,99,68,92,100
200,164,327,174,103,81,102,109
197,168,329,176,108,84,103,109
160,156,311,154,101,81,97,110
95,111,302,105,82,74,88,94
120,117,315,108,83,74,79,87
114,109,304,115,81,63,69,78
107,92,281,117,83,59,63,67
108,99,272,132,91,63,64,63
107,110,263,126,81,55,56,63
87,107,251,126,82,59,59,59
85,105,241,120,77,59,60,68
84,106,190,110,68,60,62,71
84,128,275,112,67,61,64,76
78,118,274,110,66,66,74,79
92,126,264,111,64,64,71,83
91,121,272,115,72,65,79,77
93,124,294,126,74,66,80,91
96,112,225,126,78,66,81,90
100,119,222,131,82,69,81,87
102,117,239,128,83,71,82,84
110,129,234,136,88,75,105,106
109,131,203,117,85,74,108,95
102,128,190,101,78,71,106,94
124,130,212,112,94,75,107,95
107,130,192,139,104,76,110,98
121,124,188,128,96,65,75,66
124,143,229,135,103,77,72,69
125,137,251,137,108,83,74,66
100,129,249,126,91,73,65,66
95,121,245,99,79,70,69,64
114,125,301,105,92,80,71,71
122,112,305,100,84,70,71,76
132,122,296,90,74,65,73,79
139,129,286,88,74,66,72,76
159,131,339,101,96,86,72,87
141,125,306,96,87,83,72,80
148,114,277,96,86,84,73,82
148,100,324,114,107,97,80,85
161,97,338,128,113,101,83,88
147,98,299,118,96,84,77,77
152,117,294,113,93,82,75,80
150,139,324,120,98,82,76,77
151,146,285,128,90,69,63,70
141,146,269,127,89,73,69,75
136,145,261,122,86,73,65,69
154,129,268,131,92,73,62,72
146,107,230,143,96,72,60,76
137,107,210,132,85,65,61,85
162,110,189,122,76,51,53,81
186,112,205,140,96,58,60,89
178,124,259,132,99,58,74,87
184,120,259,112,89,52,70,81
195,115,275,104,86,64,85,82
187,124,284,113,98,72,94,96
228,146,310,117,84,71,92,90
223,138,260,129,85,75,85,87
228,139,253,134,102,84,87,85
222,146,256,134,103,78,81,86
220,156,286,142,102,82,91,82
170,140,318,146,123,91,105,95
169,142,323,140,120,88,113,98
181,154,338,134,106,81,112,98
176,147,346,133,110,85,108,92
183,137,352,160,109,77,96,89
171,129,286,137,82,70,88,98
184,166,288,140,88,73,112,119
188,181,359,179,97,76,121,125
197,193,384,222,112,72,124,129
200,215,354,213,115,80,131,133
205,226,366,222,115,83,132,125
190,203,345,220,108,81,103,104
157,183,251,193,106,79,95,100
147,186,178,175,101,85,92,99
151,166,214,149,96,78,74,93
169,154,189,132,92,69,71,94
163,146,194,152,99,68,70,92
164,160,205,153,96,70,73,98
163,141,218,125,84,65,77,92
145,148,182,133,83,71,92,87
114,162,274,148,83,71,95,89
116,164,304,138,82,67,95,91
182,160,340,135,79,65,99,86
183,165,331,125,73,63,93,84
171,152,365,131,77,57,78,86
178,140,312,122,89,69,89,74
177,149,286,106,81,70,87,71
162,197,284,107,85,74,86,72
174,190,293,116,93,75,108,91
174,186,282,107,82,72,111,92
179,204,275,99,79,72,102,93
193,211,274,125,93,79,106,110
167,157,246,128,99,85,103,106
174,169,225,125,95,85,82,102
177,166,193,125,100,86,82,96
178,145,194,136,96,78,86,95
199,126,189,127,85,75,88,88
183,132,197,142,83,71,87,93
205,141,203,138,80,72,91,97
209,148,206,136,79,75,100,102
212,153,206,136,82,78,95,111
177,147,212,138,82,75,89,102
178,145,178,126,80,70,90,97
138,128,187,167,82,67,86,84
125,124,177,170,78,64,74,82
127,117,205,166,79,67,75,69
149,127,228,164,86,71,79,68
164,138,220,156,87,73,80,89
187,145,279,119,83,82,95,108
204,142,292,115,90,85,100,128
206,135,268,119,86,79,101,130
204,169,274,134,90,77,102,133
207,164,296,142,86,72,97,121
225,166,250,136,84,62,86,109
217,174,242,135,82,60,96,88
199,207,259,130,83,59,91,85
185,176,231,101,68,58,86,80
192,174,219,122,74,58,98,84
140,166,218,129,84,62,98,78
156,159,247,152,94,74,85,75
152,112,246,161,89,73,82,71
162,120,239,159,93,70,83,79
142,119,249,141,94,79,80,83
142,119,257,139,87,74,86,84
133,115,229,143,80,58,79,77
132,122,224,143,85,62,80,76
132,137,228,145,85,65,83,70
132,130,222,137,74,56,76,57
152,129,197,139,81,62,66,54
148,131,181,106,77,67,71,60
155,129,182,103,76,69,90,68
157,124,175,101,75,72,107,74
160,153,246,111,81,93,138,90
153,149,271,111,83,100,148,97
151,164,311,144,81,97,152,97
155,169,362,145,83,95,145,101
175,162,374,155,83,95,133,95
181,159,370,192,78,72,97,81
167,162,349,190,72,57,79,75
174,159,318,172,73,58,79,81
170,150,258,164,67,66,82,81
141,154,260,156,74,61,81,88
132,140,178,102,75,64,83,87
146,138,218,96,76,65,84,85
137,121,267,97,80,63,78,78
133,125,271,95,84,56,74,75
154,123,281,97,83,57,68,87
167,138,302,100,90,53,75,95
168,141,275,103,88,51,75,96
167,141,257,101,85,53,79,98
174,146,242,101,86,62,78,91
150,137,215,108,87,64,85,75
133,151,211,120,94,78,83,73
116,151,220,134,112,81,86,71
122,169,216,135,122,85,83,70
124,164,221,142,124,78,79,80
140,170,219,142,123,76,73,78
231,183,205,142,119,68,71,76
238,197,207,143,111,72,68,74
241,188,193,137,97,72,68,81
237,188,187,146,93,71,66,73
231,189,220,149,94,71,66,74
148,145,213,147,90,66,65,78
153,175,214,135,92,70,78,86
148,165,208,134,89,65,80,80
140,167,205,120,86,68,79,80
146,192,230,120,90,77,84,82
174,202,230,109,86,79,84,73
161,159,241,110,68,68,72,70
155,160,292,112,74,66,66,63
158,154,315,110,78,62,65,61
149,111,317,124,74,51,58,61
127,116,360,178,101,62,60,77
162,135,360,176,103,64,56,74
171,136,323,186,107,66,62,74
172,138,320,187,114,73,67,84
170,146,289,182,112,68,67,80
145,136,252,140,92,54,60,65
100,119,234,156,106,64,65,60
71,117,232,157,118,66,62,67
64,122,218,152,107,59,56,56
72,111,202,152,115,67,59,58
81,107,190,149,112,66,62,58
79,105,201,129,98,57,52,62
82,116,223,113,77,51,53,63
78,109,239,126,77,53,51,61
70,105,241,112,54,43,72,61
55,94,243,117,50,42,70,66
53,92,246,126,51,41,74,66
56,97,220,129,54,45,78,78
103,110,195,115,54,43,80,82
105,116,201,112,61,45,63,80
109,118,200,94,59,48,88,80
112,124,233,95,61,56,92,77
114,128,241,97,63,58,89,63
74,126,264,98,65,58,91,64
75,147,264,108,72,65,90,71
84,149,258,107,72,63,66,64
83,148,256,96,74,58,59,67
81,130,248,83,74,55,66,67
89,144,213,90,78,57,67,70
94,128,292,74,69,48,68,69
86,123,317,73,72,51,69,78
84,122,287,85,71,49,78,75
94,135,307,105,74,51,70,82
88,121,343,131,80,53,68,80
78,112,282,132,77,50,66,78
80,120,268,134,72,50,70,77
87,141,292,136,78,56,76,98
70,128,271,127,72,53,73,87
64,115,229,102,66,52,71,82
73,123,243,104,69,52,70,84
66,115,236,103,71,53,67,87
72,93,217,92,64,51,51,71
89,100,277,94,66,52,58,76
90,103,279,90,69,49,56,81
91,131,303,97,73,50,62,83
117,141,293,99,75,50,60,77
114,153,293,113,83,54,63,72
104,148,252,112,80,51,59,71
108,160,281,117,78,52,58,67
102,136,232,109,72,51,49,59
75,142,258,107,72,53,51,60
87,166,284,106,71,49,51,69
94,169,269,106,67,48,56,68
96,162,246,109,76,49,62,70
106,162,253,111,80,54,69,70
104,164,230,121,86,53,72,69
87,124,196,117,84,52,66,55
79,125,213,116,90,56,60,51
70,120,223,109,85,56,55,53
72,124,298,109,86,60,57,61
83,105,334,110,86,61,61,81
92,123,345,106,83,58,61,81
94,125,345,102,85,61,69,83
95,124,337,96,78,58,72,82
86,121,312,93,76,51,64,80
72,117,296,77,66,45,55,56
58,92,281,64,61,46,59,56
56,82,273,61,53,40,57,55
58,114,298,70,54,43,65,52
74,128,307,84,63,51,75,55
77,128,300,82,66,56,78,56
76,131,307,82,70,63,75,57
79,133,309,82,73,71,78,64
86,116,298,73,76,76,73,76
72,89,288,55,74,81,65,71
108,130,367,86,94,90,76,87
111,129,380,94,100,88,85,90
108,134,397,108,105,86,78,84
102,134,401,117,119,91,75,74
101,135,378,119,118,87,71,71
60,103,297,100,106,88,60,52
54,101,281,95,99,84,57,55
51,97,273,79,96,87,61,54
52,110,253,84,87,82,67,59
49,112,269,100,84,77,67,59
57,112,270,110,87,68,65,63
67,123,249,119,93,77,63,57
68,127,229,116,88,67,66,66
68,107,237,106,76,61,59,59
69,111,194,90,85,63,55,59
62,107,212,80,85,63,58,55
55,97,234,65,75,52,57,53
60,91,249,67,73,52,55,42
60,97,256,68,73,59,55,43
68,100,272,73,63,58,64,46
95,186,317,126,74,61,65,48
113,228,343,139,88,75,65,48
118,240,348,144,99,85,74,57
125,241,357,150,108,95,79,66
122,249,383,150,115,116,77,67
107,200,346,117,105,113,78,66
103,166,357,119,111,118,88,74
98,170,418,116,105,116,77,67
103,191,416,130,105,107,78,65
126,221,420,153,114,96,78,72
139,227,450,157,127,108,88,81
172,245,491,179,141,122,109,102
209,313,483,224,172,139,133,123
208,309,523,219,176,145,133,124
209,311,599,221,182,145,139,127
230,334,638,237,198,153,145,137
214,337,633,240,189,137,122,119
188,270,710,203,171,133,112,108
188,269,736,209,166,126,113,107
195,245,723,230,167,130,120,115
234,288,695,295,195,151,136,138
238,274,665,305,206,159,147,146
236,279,536,316,206,152,145,146
250,277,534,346,224,170,160,162
232,267,463,324,212,161,151,150
186,220,457,289,181,146,142,132
178,228,532,276,180,163,150,138
183,225,571,271,179,161,146,134
162,224,531,230,152,140,123,111
176,224,540,252,166,155,130,120
157,204,548,216,155,144,112,102
155,188,523,210,142,122,90,82
172,210,505,213,143,122,88,87
296,248,493,251,166,135,105,112
295,248,480,242,161,130,106,112
300,247,461,234,153,125,110,113
314,251,400,227,142,113,107,115
314,225,385,215,133,111,101,110
241,189,357,161,106,99,89,90
283,216,344,156,101,90,87,92
274,191,320,153,96,79,76,87
259,180,312,142,91,80,84,82
277,205,346,192,124,98,121,123
254,198,359,240,155,130,144,134
209,167,353,233,150,128,142,128
216,171,332,239,161,199,161,143
217,183,394,255,171,209,166,150
167,163,389,222,148,198,149,122
157,165,383,191,123,181,134,113
147,175,376,193,130,199,131,112
143,171,396,198,122,166,122,111
133,161,332,174,111,169,116,107
148,156,311,229,141,176,117,110
141,145,281,213,135,174,108,104
161,167,320,251,142,152,113,109
193,174,291,243,139,123,106,96
236,225,314,287,159,116,118,107
234,231,309,256,140,109,110,101
241,236,334,271,145,107,114,113
239,229,321,264,146,116,122,119
241,232,342,268,147,110,118,116
199,185,315,226,127,95,100,100
197,172,309,211,118,90,110,110
190,167,290,196,110,95,103,100
173,146,309,163,96,105,96,88
172,156,306,223,135,132,119,112
185,162,316,225,135,134,119,115
207,170,311,225,137,139,108,101
215,179,359,240,144,150,128,106
224,193,342,233,140,138,126,115
214,204,353,188,102,107,113,102
198,200,338,177,95,143,128,106
179,194,316,175,92,157,129,111
210,230,272,158,91,148,120,116
212,225,264,151,89,149,115,106
197,208,281,158,97,162,110,102
227,233,277,221,128,136,108,111
236,233,281,234,135,118,106,107
234,210,308,223,125,121,95,95
233,220,330,248,137,135,113,123
233,212,284,239,129,117,109,117
212,198,331,194,102,106,91,100
221,209,378,189,98,106,95,104
230,193,349,196,102,98,94,102
235,178,330,183,91,71,65,60
233,197,352,186,97,79,74,65
236,191,326,188,100,85,77,69
209,177,267,173,94,84,76,69
190,171,261,164,92,80,75,69
194,181,275,155,94,96,89,76
194,168,283,153,89,90,80,76
224,227,323,251,136,115,104,102
246,241,323,260,136,119,105,100
250,260,369,306,163,131,120,112
240,256,349,299,157,122,111,108
238,253,315,294,157,135,115,108
223,202,274,212,113,111,93,91
202,185,273,200,110,103,86,93
194,195,225,193,100,97,84,91
194,224,251,201,107,97,84,90
200,224,260,203,108,82,87,96
202,227,286,212,117,89,87,89
207,229,294,221,122,90,89,84
192,208,302,169,95,103,78,77
191,178,289,165,91,119,105,89
193,204,294,162,87,112,99,83
180,193,261,153,82,111,106,89
178,194,264,137,74,110,113,93
192,185,326,176,86,91,111,93
193,188,330,187,86,71,87,87
224,176,341,209,101,90,100,98
219,169,326,201,98,93,96,91
227,242,348,251,128,109,101,98
217,241,282,241,129,109,102,95
211,234,280,231,128,106,105,94
182,245,279,225,125,98,107,92
179,264,328,226,121,89,114,103
168,207,300,178,94,71,103,94
152,204,294,149,84,66,101,92
192,209,297,144,78,64,97,91
173,189,282,128,66,53,82,80
173,171,263,137,70,58,80,84
215,197,308,169,85,70,90,95
218,195,314,167,81,65,85,93
186,181,305,167,83,69,85,91
185,205,409,167,83,69,84,91
179,211,391,153,79,72,75,79
159,225,425,152,78,75,76,69
170,242,433,191,97,81,86,92
159,243,428,195,96,76,85,91
164,234,345,187,92,81,92,91
183,233,356,201,98,79,95,89
159,198,283,177,87,64,84,89
174,211,282,179,91,67,85,74
198,231,308,184,92,69,86,72
199,213,312,187,95,70,77,78
185,209,316,177,90,65,69,79
195,216,322,191,93,69,69,77
180,211,311,161,76,62,56,69
160,195,316,153,76,75,60,72
160,203,301,162,80,78,70,68
151,190,276,156,77,76,72,63
164,246,343,189,102,83,86,85
179,227,329,179,97,80,89,89
174,225,335,177,97,67,85,92
171,222,359,167,94,58,78,89
177,238,375,173,98,62,76,92
141,173,329,109,62,48,57,69
143,172,348,109,63,47,58,71
159,163,321,99,55,43,57,67
159,162,295,104,58,42,58,72
179,159,282,106,59,43,62,68
188,156,238,95,59,41,68,75
175,178,242,143,89,75,95,91
175,192,225,164,100,81,99,91
172,190,232,160,97,82,101,91
166,199,249,158,95,79,97,91
175,210,278,177,102,85,93,87
164,191,280,150,85,59,59,64
156,178,297,131,72,51,52,60
190,201,302,144,78,56,54,63
191,176,285,141,76,55,57,68
181,166,315,138,76,57,69,71
184,181,308,153,78,60,75,82
176,185,308,153,81,64,79,86
142,187,292,138,75,59,75,78
139,213,322,147,80,64,74,78
129,200,270,129,69,54,64,73
121,204,323,103,59,48,62,65
121,198,311,105,60,45,60,63
129,171,311,101,59,43,62,65
106,152,350,95,56,41,70,66
105,156,348,90,54,42,68,66
107,188,376,104,58,42,65,61
103,193,380,98,54,43,67,68
83,192,375,100,56,47,67,69
74,177,317,90,51,42,59,64
75,190,357,102,56,44,63,65
75,183,373,110,59,49,68,72
74,182,372,111,58,49,63,62
70,180,406,109,57,45,65,62
78,216,467,121,59,44,63,62
78,208,447,116,57,43,63,64
96,166,358,95,52,37,59,56
109,196,388,102,55,40,66,62
111,193,371,107,60,46,65,63
110,160,327,105,64,48,65,63
128,164,315,108,65,49,61,61
115,183,327,110,64,48,60,58
170,166,301,105,64,48,50,54
174,205,327,125,78,61,60,55
194,239,285,125,81,65,65,53
239,241,282,120,79,67,75,55
246,282,402,163,90,76,100,70
230,275,396,167,89,73,105,74
235,255,387,157,77,64,100,70
218,218,385,153,73,64,98,76
157,230,446,167,77,63,92,75
141,164,335,133,72,56,66,61
115,191,363,151,80,61,64,61
140,200,350,148,76,59,61,68
144,210,371,150,74,53,56,58
148,194,359,139,70,51,61,63
149,195,362,154,78,59,63,67
146,187,396,173,86,65,75,74
105,170,389,172,88,62,85,69
188,191,382,171,91,75,98,78
188,192,362,176,95,83,101,77
197,189,398,160,85,80,101,78
193,184,375,130,77,75,99,68
192,182,371,126,76,75,88,67
113,160,387,123,72,63,74,58
139,196,391,162,95,69,91,71
125,192,341,162,99,68,88,65
123,173,285,150,94,65,82,64
124,177,320,159,95,66,88,67
132,177,313,189,114,83,98,76
89,118,264,149,96,70,87,65
89,120,261,149,96,72,98,73
90,137,270,156,103,75,100,73
124,166,329,158,105,76,105,89
114,161,344,131,95,66,109,87
139,176,366,135,96,71,104,91
141,179,390,131,97,72,97,91
140,168,410,130,95,75,95,91
114,136,376,119,97,78,85,78
117,151,387,141,103,82,81,84
88,139,379,149,107,82,80,78
80,124,358,147,101,80,72,72
107,158,360,151,102,82,78,80
116,165,324,169,110,83,83,80
138,184,305,196,122,95,87,86
137,184,282,192,123,93,87,84
140,189,282,193,123,88,86,84
124,189,287,197,119,82,84,81
112,183,267,180,107,79,86,79
109,169,221,132,85,56,72,64
118,168,245,119,72,53,71,70
123,186,318,144,85,61,74,72
123,163,284,145,89,60,69,67
137,180,307,161,102,65,70,71
116,161,306,167,103,70,76,69
104,156,287,166,102,68,76,62
97,130,223,143,91,61,73,62
140,159,233,138,96,71,84,70
127,149,260,120,83,65,79,67
139,152,262,112,77,59,74,65
148,152,260,117,78,60,70,72
175,202,307,125,80,62,70,70
165,190,361,138,94,67,65,76
168,183,324,138,97,68,67,75
169,185,331,128,91,66,67,77
173,210,341,146,102,70,71,79
153,166,280,143,102,68,72,80
123,156,198,120,79,49,64,64
129,162,210,117,78,48,58,65
119,154,189,127,77,48,73,71
106,131,188,105,63,44,77,64
119,135,203,109,59,47,78,68
142,138,198,107,56,47,79,72
153,141,188,112,55,46,80,76
164,177,223,138,78,55,74,79
168,172,227,145,77,54,71,83
162,187,280,173,97,63,80,86
159,214,294,200,113,73,89,90
168,227,309,207,116,74,90,85
166,210,303,190,108,71,92,83
168,208,304,187,109,73,93,82
167,207,254,164,94,66,88,79
157,178,253,144,85,62,84,78
160,182,235,175,104,75,91,89
176,202,258,208,120,87,101,99
189,211,249,214,126,89,98,96
189,197,240,211,127,89,97,94
204,211,251,218,128,89,100,97
183,191,289,197,114,78,90,87
165,168,302,176,101,71,79,80
140,156,327,165,97,67,77,80
138,158,334,170,102,67,74,77
118,146,332,150,95,64,66,72
162,161,339,160,103,73,75,85
164,159,321,169,114,79,76,74
180,174,300,196,127,90,87,84
177,171,291,195,123,88,88,87
184,163,278,193,119,85,86,92
148,148,268,193,116,81,81,83
170,151,236,192,113,77,77,85
159,134,252,173,101,69,69,79
161,133,269,174,103,71,79,78
151,133,286,175,103,73,76,68
174,145,292,167,102,72,77,74
144,150,292,138,83,60,71,68
165,166,284,131,79,58,72,66
168,179,266,121,70,55,63,66
166,175,226,123,72,57,69,68
148,164,210,99,62,51,64,60
157,145,218,102,65,50,59,68
130,130,205,91,60,49,55,64
151,158,282,123,86,62,68,71
153,165,291,137,99,69,70,73
140,159,262,136,100,72,74,68
143,168,257,142,100,76,81,61
147,174,283,152,105,79,86,64
113,134,221,134,91,73,77,56
116,128,228,123,78,68,74,58
116,125,235,124,80,69,82,65
128,114,248,111,72,62,76,62
131,108,247,108,70,61,70,60
131,111,305,98,63,56,65,56
138,117,336,111,72,59,70,55
147,134,356,127,79,60,63,50
123,146,352,139,83,61,63,52
127,140,343,135,86,63,67,56
153,163,338,143,97,69,76,64
144,163,337,132,88,64,68,62
150,154,312,125,85,68,72,62
159,150,331,123,92,75,73,60
152,155,375,125,86,69,70,56
151,129,340,118,76,63,64,54
153,119,304,113,74,58,64,58
147,132,333,150,92,61,65,65
156,154,325,147,84,52,65,67
157,154,258,147,89,56,66,70
165,168,236,148,89,60,68,70
172,180,246,155,97,65,70,70
193,177,276,132,93,66,74,74
173,146,263,123,88,64,69,71
191,169,342,121,85,65,82,74
182,185,364,142,97,69,91,85
179,183,368,155,101,76,96,88
148,175,346,142,84,66,90,78
149,187,371,177,93,71,96,82
144,195,313,196,117,85,91,89
131,191,335,205,123,94,86,83
179,233,348,269,166,124,111,109
190,244,340,279,175,130,114,115
248,292,407,352,211,157,138,137
242,275,465,349,209,157,141,134
244,265,448,343,207,154,142,137
267,226,451,303,181,139,128,123
271,219,467,304,182,145,132,124
242,175,464,237,156,127,120,118
261,185,427,253,154,123,121,123
273,200,471,259,161,125,134,125
233,212,476,273,164,121,135,129
233,208,503,276,168,122,136,132
219,186,473,256,167,124,132,124
208,195,502,266,181,138,135,128
206,209,473,301,186,142,131,127
233,206,517,280,179,137,124,120
235,221,468,294,188,135,127,121
247,215,443,294,179,123,122,121
240,206,394,289,161,105,112,113
243,208,376,275,162,106,112,116
216,229,365,320,182,119,125,127
223,219,378,303,166,110,114,119
217,233,369,295,161,110,114,112
217,234,376,273,152,108,114,107
193,203,389,244,131,93,96,89
189,182,321,183,101,81,84,76
176,210,310,232,131,97,94,89
154,209,294,234,133,96,92,87
183,209,301,307,183,127,122,112
204,215,345,334,198,138,136,124
264,249,382,413,239,161,160,157
258,223,371,386,225,153,153,149
302,212,383,412,243,165,162,165
308,221,416,397,241,160,159,162
312,231,403,406,245,164,163,165
254,191,410,319,200,138,135,129
267,187,452,368,219,152,153,142
232,201,504,356,206,147,151,130
197,185,520,324,176,137,133,118
182,168,502,282,156,126,121,105
185,173,468,292,161,127,122,109
163,177,433,241,132,112,102,89
144,162,360,207,117,101,82,76
134,154,266,187,105,91,77,68
146,160,279,188,100,82,75,68
143,156,266,194,102,78,71,66
158,154,337,196,123,90,77,81
152,159,378,201,126,88,83,85
179,168,404,237,145,102,102,99
158,158,421,231,147,103,97,96
164,155,421,215,144,109,103,96
166,154,414,215,140,104,112,95
178,156,379,221,141,105,113,95
155,150,356,192,124,87,98,84
161,144,301,217,136,97,104,92
160,139,355,227,143,99,105,93
172,138,366,221,152,105,101,88
187,153,480,282,195,132,132,117
188,147,518,281,196,135,134,117
184,150,513,272,195,134,135,113
191,165,509,267,188,129,129,111
215,191,474,313,205,143,146,136
191,170,360,255,164,118,115,110
216,181,297,293,188,133,135,130
224,177,362,308,185,130,140,136
236,160,349,313,190,135,142,139
204,130,327,272,154,109,118,114
210,136,332,269,153,109,122,117
190,141,399,235,131,93,105,103
210,182,386,259,158,109,111,110
190,191,414,255,156,107,110,110
202,197,459,248,156,107,109,110
212,198,467,265,166,117,119,114
211,201,423,283,170,118,114,109
194,176,452,268,155,109,104,101
198,166,457,260,148,105,98,93
189,166,443,245,142,101,97,88
188,189,451,257,152,100,90,88
194,178,450,244,149,101,96,88
192,184,386,223,141,98,96,79
192,188,311,218,141,98,99,83
194,204,333,252,152,102,100,89
176,179,293,224,129,90,94,80
177,191,275,215,129,95,91,83
165,190,358,220,127,94,83,82
158,197,427,233,133,96,88,85
131,191,385,191,116,89,81,77
129,187,389,185,112,90,77,75
162,193,407,197,116,87,86,88
162,185,398,190,112,85,89,87
163,180,360,201,116,92,93,91
169,173,431,209,124,94,94,91
170,176,458,214,129,95,99,97
128,155,451,203,121,91,98,84
139,160,408,191,120,89,99,89
155,158,417,214,133,92,100,96
151,140,346,219,132,92,100,97
159,139,310,221,139,96,99,96
174,136,293,223,137,90,92,94
177,132,316,223,136,90,87,90
190,146,313,239,153,104,104,108
216,159,297,250,164,113,115,120
211,163,293,242,155,109,112,116
210,161,307,233,148,104,107,114
218,157,294,225,144,103,107,113
194,158,270,171,109,83,87,83
175,152,332,138,89,71,68,64
186,180,371,154,101,78,79,79
193,191,373,186,122,93,94,90
174,187,348,181,118,89,90,87
172,172,346,186,120,86,87,89
163,176,293,189,117,85,86,86
196,171,316,203,130,95,90,92
201,169,357,210,136,101,87,93
205,171,371,213,137,102,87,94
215,184,366,235,153,108,96,100
238,189,430,290,191,135,126,123
207,165,396,285,185,131,125,116
199,151,367,256,167,116,120,105
242,283,471,319,196,137,145,131
302,296,503,375,213,149,161,148
297,299,462,354,196,146,152,140
293,302,459,346,192,144,146,137
287,304,443,352,194,147,149,139
272,190,388,303,173,133,130,125
222,169,433,207,138,114,108,106
235,169,487,225,143,105,108,110
252,190,544,271,164,109,119,119
258,196,546,279,172,113,123,127
233,197,513,288,175,115,128,122
206,199,490,286,172,112,122,116
196,193,419,244,146,93,107,103
177,172,335,200,129,91,95,92
155,168,337,170,109,80,80,73
160,165,315,154,108,83,74,76
165,154,230,156,111,86,72,77
150,142,227,180,122,90,75,81
158,155,217,167,112,86,80,82
165,160,223,194,127,96,94,90
166,174,219,206,126,101,94,92
158,165,197,202,126,100,94,88
145,177,214,192,120,98,93,86
138,167,254,208,132,100,97,90
156,160,246,182,121,93,84,82
158,146,247,156,105,77,75,73
165,146,244,147,98,72,74,76
158,124,236,123,90,69,70,70
169,126,190,100,74,63,56,67
190,136,235,127,91,76,67,73
180,131,231,130,97,78,69,72
181,126,248,141,95,78,72,68
216,132,245,138,95,77,72,69
206,132,250,139,96,77,77,67
188,110,293,151,105,84,83,75
190,117,294,156,105,86,84,74
184,115,323,172,113,87,82,75
172,122,368,227,144,105,98,95
174,150,391,229,145,107,99,94
156,154,356,234,140,97,95,91
151,174,388,230,137,91,91,88
161,192,375,243,145,97,96,92
132,184,345,199,125,89,84,73
172,195,321,207,133,96,93,85
174,196,298,190,122,91,87,79
176,172,252,187,120,91,90,81
172,162,246,154,106,85,83,74
172,170,232,159,96,74,80,75
154,133,229,146,90,68,67,65
153,134,261,157,98,74,70,70
151,143,257,156,98,73,69,67
142,135,286,145,93,70,70,67
184,130,276,140,92,68,70,68
169,119,300,144,91,65,71,62
164,118,302,130,86,65,68,58
170,117,311,141,91,69,71,63
200,142,315,201,132,93,94,87
208,157,352,215,144,100,98,94
208,154,331,211,141,101,98,94
213,148,309,210,140,99,97,93
209,169,322,222,142,99,94,95
182,150,276,172,106,80,73,74
242,134,237,149,87,73,70,70
249,159,249,175,98,73,73,77
255,165,263,175,98,70,78,84
254,138,285,162,101,71,81,83
255,149,306,167,102,68,78,82
177,184,306,198,120,74,77,86
210,197,337,257,159,102,97,104
226,210,337,313,195,133,118,123
228,211,302,316,196,137,115,122
225,203,281,317,198,137,116,122
246,183,284,304,194,139,123,124
204,152,227,239,156,117,102,102
182,152,220,183,132,94,85,85
182,161,220,189,129,90,95,89
185,164,217,189,126,90,98,91
175,165,208,184,123,86,90,87
213,181,266,215,141,106,106,100
204,169,273,191,115,91,94,86
202,161,267,179,114,90,87,81
198,159,269,168,111,87,83,80
158,152,285,164,105,85,78,70
125,133,244,124,81,61,62,51
130,129,239,121,85,62,75,57
132,132,250,120,78,61,71,54
139,140,275,153,90,74,82,61
129,130,267,155,92,77,85,64
167,133,257,152,89,74,86,67
192,162,346,210,120,91,95,92
191,156,357,205,118,89,95,91
198,148,354,191,114,80,85,88
213,148,362,195,117,77,87,89
179,170,401,195,116,75,84,89
146,147,331,136,80,54,62,58
144,158,312,162,94,61,66,64
129,158,297,152,88,63,68,63
128,159,273,147,84,64,62,60
144,134,218,153,88,65,61,57
146,126,174,150,88,62,62,57
146,118,238,127,75,54,53,47
147,118,310,149,89,57,55,48
132,115,309,148,86,53,54,45
113,113,335,141,80,53,52,43
118,113,340,132,74,48,45,40
132,103,297,126,69,47,49,43
155,116,250,107,59,41,44,44
167,123,271,105,63,43,41,44
166,135,245,95,61,41,40,40
169,137,263,89,66,49,44,41
155,137,264,83,66,49,42,39
136,129,278,94,67,57,50,39
128,119,261,94,67,55,54,42
119,153,248,115,69,58,58,47
103,156,222,124,69,56,58,47
114,170,241,144,73,63,63,49
110,173,184,135,65,54,59,49
114,182,223,145,63,57,63,54
111,142,224,140,61,55,59,50
131,158,232,149,70,61,65,55
129,146,204,138,78,60,65,56
135,144,201,130,80,64,65,54
124,137,153,123,84,64,62,49
136,143,140,124,93,73,73,55
134,140,191,119,92,73,73,57
141,151,244,119,88,71,71,57
134,144,251,119,85,66,68,55
154,160,329,117,84,71,71,61
166,152,351,114,75,62,64,61
158,140,337,118,73,59,64,59
147,128,314,115,72,61,61,57
142,125,311,119,70,61,62,56
140,116,244,119,68,56,58,53
159,142,237,120,76,61,65,54
156,131,206,101,68,58,59,49
171,150,261,134,89,68,70,61
193,160,263,136,90,69,73,67
185,172,269,139,87,71,72,64
162,160,259,130,79,64,63,62
171,165,307,144,90,74,70,67
190,158,267,117,70,63,62,62
196,155,274,120,74,63,60,59
201,166,263,136,88,65,63,59
190,160,266,140,88,66,62,56
180,155,215,129,79,54,53,50
154,153,259,143,92,59,59,52
146,169,288,162,99,67,68,61
125,134,280,152,90,66,69,61
126,133,271,157,94,68,71,64
124,137,273,154,93,67,69,62
120,145,229,165,93,85,76,63
99,128,217,170,99,91,70,58
97,126,210,165,97,87,63,55
93,121,247,164,98,90,66,53
136,133,264,209,119,102,88,78
138,118,250,196,110,90,81,72
133,116,215,175,103,84,86,73
138,127,228,175,108,87,88,75
149,131,267,180,111,86,89,81
124,137,305,172,111,84,86,73
125,136,309,162,108,79,84,73
124,132,320,157,100,70,78,68
121,122,333,167,106,66,78,69
111,127,339,160,103,74,75,69
109,178,300,115,79,62,62,61
98,186,314,111,77,62,62,60
114,216,312,153,107,102,82,77
120,224,301,155,112,115,86,78
139,238,242,185,126,116,92,84
130,190,237,182,128,123,91,80
169,197,213,184,131,132,98,86
171,171,209,168,116,110,86,76
168,164,210,151,101,95,80,73
151,135,194,112,78,85,69,59
153,130,230,122,75,79,68,59
120,108,238,118,70,72,58,49
99,87,231,97,58,68,52,40
105,88,253,118,74,82,63,49
123,100,251,120,76,81,66,54
128,110,208,112,76,77,65,55
115,113,201,125,82,71,63,58
114,121,272,129,86,83,61,58
119,118,256,110,77,78,54,52
98,113,259,104,75,82,48,48
99,103,275,103,76,94,54,50
93,93,271,88,68,90,48,45
97,91,232,130,88,90,67,57
82,83,216,135,90,110,75,56
86,86,207,146,99,109,79,63
98,91,191,146,102,98,76,61
148,126,197,148,104,106,81,68
154,121,194,121,96,105,73,63
164,155,216,147,106,82,76,71
167,159,242,151,103,93,77,70
158,158,243,151,107,112,85,70
128,142,250,149,107,106,84,70
119,148,241,140,95,99,81,71
112,134,229,113,86,98,75,63
108,123,222,117,103,100,80,59
111,123,218,113,99,90,75,56
103,133,221,111,99,91,75,48
103,142,200,112,101,92,76,49
97,130,216,117,105,90,73,47
105,143,195,105,85,73,63,49
96,139,186,104,79,67,60,50
89,139,193,108,79,74,58,48
107,123,191,101,75,87,60,44
120,134,210,99,72,95,67,50
114,128,216,93,68,102,68,47
114,133,224,92,68,99,63,48
112,117,207,96,76,113,64,52
115,139,241,125,99,109,63,59
101,124,201,125,94,103,54,55
95,118,263,119,96,112,56,59
94,112,276,125,98,141,58,58
114,127,287,125,102,154,59,64
110,125,298,107,80,179,69,62
111,128,308,118,90,188,73,63
109,124,258,128,89,186,72,59
114,146,262,133,104,185,82,64
97,128,274,136,106,223,100,70
75,104,241,138,110,208,99,67
95,101,229,136,104,216,99,68
98,117,245,145,127,263,119,75
94,96,226,143,121,260,114,71
92,104,223,154,132,242,101,56
89,104,225,162,137,246,98,53
68,107,227,170,171,307,126,56
66,94,202,176,174,284,119,51
65,95,270,181,175,275,122,55
64,95,241,170,168,257,120,57
65,97,232,156,166,256,118,59
61,91,220,133,128,182,101,54
59,89,220,106,109,191,94,50
70,88,167,106,111,204,95,54
67,78,174,95,108,227,108,54
88,105,196,161,136,253,121,62
97,118,228,205,161,268,117,69
97,123,242,212,175,282,127,72
95,123,307,208,175,332,145,72
98,132,329,215,176,318,143,76
99,123,334,187,156,309,152,84
92,105,328,149,137,292,148,79
92,99,317,149,121,327,144,80
101,114,238,173,130,280,140,87
99,105,207,179,138,276,139,86
82,91,183,166,133,282,121,70
92,104,193,178,141,300,126,75
97,120,228,199,138,222,121,78
91,110,280,192,130,239,107,66
90,108,303,184,117,264,112,64
90,118,324,197,133,249,112,70
91,128,313,212,171,309,156,78
84,112,290,184,172,317,153,72
71,109,258,176,168,304,156,69
70,111,224,181,167,301,150,65
71,101,195,177,170,338,163,64
54,94,233,155,132,300,138,51
59,104,249,178,143,293,141,54
61,101,233,168,149,299,140,58
59,98,235,162,156,312,150,62
52,96,231,148,145,266,134,59
58,94,212,147,136,232,119,62
54,83,213,126,120,225,114,59
69,84,230,144,137,279,138,61
80,102,275,155,147,272,121,61
88,108,286,162,145,270,125,67
84,94,288,148,140,261,112,59
81,92,277,149,137,264,113,56
71,95,260,131,115,194,92,56
72,103,232,126,94,140,95,58
68,130,318,122,86,125,91,54
76,138,367,137,107,139,104,62
83,149,387,154,132,219,128,66
80,147,393,153,129,213,119,68
79,138,450,150,125,223,127,72
110,169,416,173,135,230,130,78
125,183,400,185,131,228,137,88
124,180,400,174,122,256,147,90
126,183,417,174,130,269,153,92
130,189,424,174,140,264,146,90
105,142,439,149,131,263,142,84
87,125,395,130,123,325,138,71
97,131,382,147,119,262,110,79
99,143,377,154,113,262,97,71
107,147,313,163,113,267,107,80
111,154,259,171,128,275,128,91
112,165,280,173,134,228,135,94
101,159,294,145,125,221,135,88
113,152,389,162,136,198,136,94
103,137,393,163,131,200,136,90
97,127,398,150,119,208,133,86
96,127,387,144,115,186,121,83
112,152,381,172,128,175,115,83
110,158,293,172,121,187,115,79
111,160,258,174,132,210,111,72
111,173,337,177,135,220,109,70
113,162,382,187,140,209,109,71
101,140,416,173,137,216,110,71
94,129,402,158,135,221,120,72
82,122,401,144,118,210,130,74
97,115,325,147,117,175,117,71
97,105,311,152,125,167,114,68
96,112,280,161,128,188,114,67
90,109,276,163,126,177,112,65
93,118,291,156,128,168,108,74
88,121,304,155,129,172,117,78
80,127,288,135,109,169,119,81
81,122,270,115,92,145,123,81
82,120,265,106,100,158,121,84
84,122,365,125,107,143,114,80
91,111,398,154,142,162,112,77
86,107,385,150,143,172,114,74
76,92,380,151,147,182,113,71
88,104,389,164,148,179,109,76
94,96,286,159,149,177,106,75
80,96,234,138,115,158,90,68
91,97,252,139,120,152,84,71
107,119,291,157,125,133,75,79
100,118,267,152,127,139,71,67
90,120,263,142,117,141,77,70
97,120,277,135,120,142,79,72
112,124,305,138,115,160,77,71
102,106,284,117,115,171,83,61
112,95,320,118,106,150,91,77
148,109,391,152,128,146,95,83
148,106,384,164,153,218,129,91
132,106,384,158,158,225,133,89
131,109,401,156,152,225,130,89
123,110,386,154,147,221,122,77
107,119,327,133,136,225,116,74
99,118,318,119,102,156,84,64
96,111,259,118,90,123,79,63
101,128,240,128,85,108,78,68
100,135,257,122,85,114,81,69
72,117,275,132,93,109,80,60
70,122,276,126,93,110,73,58
71,128,290,128,92,107,70,57
66,115,260,135,105,118,82,57
77,113,220,139,110,117,87,61
75,107,192,122,98,120,100,61
86,121,219,129,106,182,120,64
94,132,208,139,119,199,132,67
101,147,222,138,117,231,152,71
90,149,254,136,109,235,151,65
115,163,309,145,120,239,142,70
108,148,277,140,112,203,128,68
104,137,275,141,107,208,122,68
99,121,268,135,97,161,84,62
114,116,319,142,105,160,87,66
111,92,338,146,124,174,105,74
112,88,353,146,127,183,112,75
111,83,379,139,122,157,105,75
112,88,388,144,133,161,110,75
100,75,345,140,140,165,112,77
73,91,284,121,115,151,97,60
70,94,277,120,111,144,107,60
71,94,278,120,111,148,120,64
67,86,271,107,103,155,120,64
70,91,284,96,87,157,114,58
69,75,314,108,96,164,123,62
66,85,311,105,96,157,111,59
63,87,279,101,93,153,95,50
64,99,292,99,87,148,92,48
55,95,258,101,88,151,90,45
54,99,212,97,75,131,71,40
59,109,212,99,73,119,63,42
59,109,242,107,80,131,66,46
46,91,219,109,82,155,77,41
45,89,227,104,85,164,85,43
64,89,232,114,108,181,95,52
61,63,246,112,113,191,101,49
79,77,327,129,121,183,102,53
83,82,336,127,120,192,114,63
85,82,332,130,114,184,105,61
76,88,348,119,94,171,100,62
78,86,337,117,90,157,94,64
57,70,232,89,73,154,92,58
56,72,239,96,76,106,62,51
55,74,239,96,72,85,65,52
52,68,194,106,78,79,60,45
50,78,197,108,75,86,69,47
65,85,238,115,87,92,90,54
61,78,229,111,91,145,106,60
66,87,230,110,97,165,109,61
68,88,246,92,88,165,114,61
75,90,271,101,94,168,113,60
61,83,233,91,82,165,97,52
64,89,237,85,74,120,92,45
61,83,241,88,68,83,86,47
55,77,236,90,66,79,81,43
43,67,223,77,63,68,75,41
53,73,251,89,67,66,71,43
52,67,233,93,76,89,62,44
50,61,223,99,79,94,69,40
53,63,203,99,78,98,69,46
54,76,228,119,80,98,77,51
49,75,212,121,83,104,79,50
53,81,218,131,92,93,82,54
62,85,234,123,94,103,86,60
83,93,267,137,119,127,102,72
82,84,259,122,114,130,99,69
81,80,286,120,113,134,107,73
84,73,317,117,111,136,110,75
107,81,431,156,133,140,118,96
95,68,437,156,113,123,106,86
97,66,437,154,111,124,117,89
120,80,465,164,126,126,113,92
130,89,463,169,128,141,131,102
111,86,351,151,108,142,127,82
109,87,333,147,113,156,135,84
109,87,338,151,118,168,139,81
84,76,285,135,101,178,143,76
70,72,272,146,96,165,125,58
65,64,298,130,88,154,114,55
63,64,294,123,84,136,102,51
67,82,293,121,87,126,92,51
76,95,295,125,96,106,105,63
77,99,345,93,94,102,98,62
80,106,335,99,100,112,100,61
78,103,327,106,107,129,116,65
85,103,319,116,109,135,121,73
84,91,316,125,107,136,104,67
76,79,269,125,101,136,104,63
75,75,290,120,99,137,114,71
77,77,310,108,88,128,102,70
70,71,318,114,87,125,92,63
68,76,296,108,92,122,88,59
74,79,276,112,93,122,95,65
70,79,238,111,91,113,82,56
67,79,238,113,89,102,81,53
67,84,217,91,82,88,78,52
75,98,249,92,87,90,84,54
73,102,244,89,89,92,84,49
77,99,265,88,93,104,96,55
82,101,272,86,95,101,91,55
77,89,268,100,95,100,98,58
71,70,249,90,80,95,99,57
69,61,255,84,75,96,92,55
73,77,266,88,82,96,93,54
70,76,235,89,89,123,115,56
71,85,248,93,94,133,113,53
68,87,248,105,103,136,114,53
64,92,235,111,107,140,119,53
69,81,241,113,105,143,115,54
77,83,381,118,102,122,93,57
76,71,371,100,95,112,85,56
72,63,364,87,89,120,75,52
80,56,396,102,99,124,72,58
69,52,391,108,96,107,63,54
69,45,299,114,103,114,70,56
68,52,295,119,105,128,90,55
66,53,297,115,98,118,92,57
55,54,253,101,84,107,86,48
67,55,275,91,86,110,88,53
53,55,225,77,73,100,89,48
56,50,236,72,69,86,71,46
66,73,248,76,76,91,73,52
71,72,316,82,86,94,80,59
58,72,274,74,74,89,81,53
62,79,280,79,79,98,80,54
63,90,365,94,79,91,84,62
56,73,354,92,78,85,80,56
50,75,304,84,62,84,73,50
54,78,311,91,65,82,70,54
58,74,313,86,61,74,61,55
57,62,254,69,58,74,57,48
56,60,282,78,56,74,62,53
54,59,283,86,54,74,60,52
63,57,362,85,63,84,67,53
56,49,363,84,62,82,65,48
58,50,343,96,89,82,62,49
62,56,320,89,90,83,59,44
62,56,313,78,91,77,74,46
53,56,229,79,87,68,67,42
74,94,232,96,92,80,70,50
71,98,192,100,75,81,69,48
68,96,193,107,77,85,72,49
70,95,189,108,78,84,55,48
69,96,209,109,78,86,52,46
49,63,238,96,72,72,53,34
46,54,248,78,65,76,73,33
52,60,261,75,63,72,71,36
52,61,264,72,63,69,76,36
51,79,252,72,62,68,76,35
56,78,300,71,61,74,81,42
70,81,341,77,67,74,77,53
70,76,341,71,68,97,89,52
93,80,339,74,72,102,87,52
95,62,347,78,71,100,94,55
92,76,279,85,74,98,97,64
95,93,250,83,69,95,91,59
98,104,241,89,76,77,81,59
84,101,236,85,70,71,78,59
85,101,227,84,68,71,78,61
87,95,220,81,68,88,66,49
74,80,185,85,73,100,70,47
74,88,189,79,62,97,67,47
66,95,211,90,68,98,73,49
71,102,164,85,69,96,65,42
69,110,199,87,72,101,71,41
72,114,242,87,73,90,71,49
65,99,232,88,81,93,71,46
67,101,238,89,81,95,74,47
65,94,238,87,84,105,75,48
82,94,220,93,81,89,76,52
107,88,190,89,80,88,68,45
109,88,211,86,82,95,69,50
113,82,205,76,81,104,64,53
112,83,224,76,80,95,61,53
100,66,214,58,77,91,57,50
86,68,208,59,77,88,54,51
85,80,187,68,72,78,57,50
85,81,170,72,69,73,65,49
85,89,148,81,71,117,70,49
97,95,189,82,74,125,67,51
115,102,188,79,71,121,69,48
136,120,201,72,64,120,72,49
165,146,212,72,66,127,71,54
173,145,215,82,71,120,83,65
174,146,176,93,76,116,84,63
159,146,187,103,79,119,91,63
143,136,190,110,81,123,90,62
138,134,178,125,86,121,85,56
129,130,174,116,86,96,71,43
151,160,184,119,91,100,76,58
154,156,166,129,91,97,72,63
160,160,184,140,109,119,74,68
132,146,214,132,104,124,79,66
130,144,226,129,97,121,84,76
122,146,264,145,95,124,92,74
129,159,360,146,103,132,97,76
130,154,355,131,85,135,105,72
135,148,337,127,87,140,108,112
164,155,356,139,101,152,128,125
187,141,347,129,95,149,127,135
179,125,259,122,85,145,127,134
178,119,278,124,90,147,139,140
177,129,306,131,99,135,136,114
183,141,335,125,96,131,124,95
150,126,317,112,95,127,117,76
156,165,338,145,107,126,109,73
154,162,338,144,104,102,81,62
151,154,318,139,94,94,81,57
125,152,261,145,94,97,74,52
119,147,285,144,95,96,74,54
111,114,279,107,81,96,76,64
112,133,255,102,75,86,78,64
118,143,271,100,82,103,79,66
114,133,272,86,74,83,78,69
105,133,260,80,71,81,71,66
108,147,318,80,73,84,72,57
136,132,317,95,72,87,75,55
156,129,307,105,80,112,84,77
161,120,322,101,76,121,87,82
167,121,352,116,81,129,95,83
178,100,369,133,94,129,94,82
155,108,380,123,95,130,93,86
137,111,405,123,88,105,86,75
134,121,394,123,90,127,90,71
150,131,393,122,102,133,90,78
135,127,355,107,97,134,90,77
139,135,353,124,107,143,99,77
133,126,324,119,110,143,97,68
131,136,338,132,115,124,86,64
165,148,337,142,106,112,89,68
166,142,283,138,103,149,95,67
166,129,269,129,103,151,80,63
171,144,264,137,105,147,78,74
176,140,266,131,105,144,78,78
153,126,235,107,100,160,67,68
169,145,239,104,94,132,63,76
170,144,251,96,86,147,90,89
162,139,252,82,74,141,92,80
150,134,229,96,72,142,96,76
133,143,296,113,75,119,98,79
108,130,297,107,78,134,99,77
115,140,289,109,74,114,83,62
121,130,306,105,78,116,86,69
137,144,330,108,89,116,82,75
169,144,261,94,85,119,86,75
183,146,269,103,86,98,92,81
224,186,306,107,84,89,93,80
233,191,422,142,117,100,133,97
226,179,414,139,111,97,133,96
199,168,421,162,121,110,137,96
193,165,437,167,125,132,137,90
151,168,427,175,129,136,140,94
144,168,320,165,105,135,101,71
140,168,306,172,110,147,103,67
173,174,308,165,107,152,93,64
177,190,329,170,115,158,97,79
189,152,334,175,124,163,98,81
199,142,394,171,129,165,108,87
205,170,423,175,124,159,107,92
200,167,405,162,122,171,127,98
195,149,372,152,114,160,134,97
172,145,391,139,99,153,157,102
176,178,389,164,106,150,164,116
196,150,359,148,112,184,170,113
169,152,368,147,112,174,160,112
196,161,434,183,130,164,151,110
202,160,406,183,137,170,122,102
185,151,336,156,126,176,137,97
154,147,330,150,121,144,137,111
183,158,369,154,118,129,133,107
166,165,331,128,112,132,133,103
172,160,336,121,104,129,133,103
165,134,329,118,98,125,97,90
182,155,351,122,92,110,84,84
168,154,316,123,89,112,98,83
159,149,282,124,78,115,126,90
161,153,332,179,130,148,153,97
164,163,362,179,135,158,156,100
197,163,400,179,140,172,163,94
194,152,436,177,142,172,158,94
196,150,435,164,141,172,133,84
201,168,417,119,120,234,126,78
214,166,423,139,139,233,168,90
170,146,435,140,141,255,189,93
188,152,466,161,147,268,190,105
233,166,449,176,144,281,195,109
222,148,434,179,135,219,191,109
217,148,491,171,119,211,166,108
248,162,459,192,138,190,162,120
262,162,408,188,138,176,162,112
219,138,411,175,147,210,188,112
214,136,430,161,139,226,197,115
218,147,354,180,149,226,195,109
232,136,327,166,131,215,186,98
217,156,310,162,142,280,206,112
216,152,316,154,131,247,176,103
222,153,285,159,132,231,219,122
246,152,282,133,117,244,228,122
211,160,274,123,127,280,220,115
189,131,251,110,114,253,227,107
194,147,246,130,123,255,234,108
187,149,242,120,125,254,174,81
194,147,229,112,122,256,157,72
189,138,240,105,109,265,182,71
205,137,400,112,120,226,155,79
202,129,409,100,108,210,146,83
211,139,404,109,109,213,148,84
205,132,402,121,120,195,152,92
206,133,429,124,118,124,119,92
188,134,305,114,100,137,113,87
203,157,392,156,136,150,112,103
202,174,422,173,148,159,123,108
161,184,427,176,143,174,116,106
149,192,439,185,145,178,129,110
153,204,441,194,148,176,131,106
151,192,361,158,127,176,136,93
144,216,397,147,116,173,127,86
145,231,386,141,120,184,137,86
147,256,428,152,117,187,151,84
141,263,441,146,122,188,175,87
191,376,547,243,135,186,182,98
217,361,507,251,145,237,224,114
216,362,562,258,150,232,249,124
221,342,505,248,162,239,253,135
227,359,567,265,169,283,336,152
170,245,485,206,156,288,349,146
149,249,473,211,161,245,331,144
140,236,402,208,167,246,334,142
153,292,481,244,169,241,323,130
154,256,503,233,170,197,240,114
152,247,499,220,173,216,231,119
150,226,527,209,171,344,264,118
178,220,560,227,167,361,250,121
181,135,545,204,167,361,255,134
207,142,458,201,157,375,249,134
216,142,457,191,148,365,245,132
218,170,456,204,143,254,238,144
265,179,467,221,169,246,234,146
266,192,474,235,175,262,239,143
254,189,473,245,195,291,249,157
258,200,526,265,228,336,276,188
259,242,567,308,238,335,253,188
237,238,552,284,214,314,257,196
233,297,542,361,294,424,298,214
282,314,540,358,287,401,294,240
312,323,508,350,262,362,254,252
343,312,549,302,254,370,259,243
333,321,553,313,263,395,244,231
337,261,520,212,178,290,175,214
291,241,512,205,177,299,148,178
301,271,643,224,192,305,173,155
342,275,612,270,207,291,161,178
338,255,581,256,211,302,189,184
327,253,599,238,192,275,206,177
345,280,616,261,212,294,209,171
356,263,523,273,216,315,199,157
311,226,475,257,217,342,205,139
311,230,484,248,201,310,192,141
355,254,601,287,230,308,183,192
446,273,630,279,220,288,214,243
418,245,675,250,206,281,253,262
438,264,677,225,176,270,275,307
510,351,776,294,198,280,279,317
574,392,775,278,177,339,306,347
586,379,777,287,172,369,297,359
617,383,694,282,177,362,282,386
622,392,710,281,193,369,260,364
630,350,658,276,218,383,280,400
648,350,532,278,224,370,279,408
660,462,568,329,238,336,308,460
682,470,606,338,251,351,317,478
685,485,613,360,252,374,327,481
637,492,582,323,217,359,305,468
593,507,629,326,209,343,284,449
552,409,566,277,186,339,242,378
591,450,527,277,170,373,251,375
763,471,590,272,226,484,390,507
843,489,593,286,224,506,395,538
957,449,652,264,233,516,407,575
998,462,652,248,271,592,488,668
1002,486,771,277,283,563,492,660
894,441,778,282,242,436,398,563
817,394,900,271,263,452,402,523
658,410,858,308,250,468,467,481
565,408,885,343,232,357,403,344
460,379,845,374,244,370,408,319
400,394,781,390,279,513,438,323
391,397,701,403,297,499,442,321
372,412,722,382,298,468,361,291
331,395,745,357,275,464,330,250
307,340,687,309,269,535,308,209
279,307,689,260,233,464,315,178
260,308,627,223,212,506,321,149
212,243,556,212,200,496,315,134
210,234,541,193,226,565,344,147
199,222,523,169,205,520,340,137
215,233,561,167,195,496,272,130
232,234,533,239,183,424,246,125
257,263,575,277,209,430,258,134
260,253,545,287,222,410,225,125
260,288,553,300,237,408,219,128
258,283,569,347,243,385,208,130
240,276,568,309,229,375,194,121
213,248,548,274,218,403,184,102
215,263,527,291,205,343,192,106
200,223,513,272,190,295,162,96
207,211,467,217,185,307,170,91
199,203,460,229,219,431,214,103
203,182,431,232,217,434,205,101
200,172,392,190,207,504,218,97
202,182,452,206,233,552,238,114
189,199,490,234,253,549,238,124
223,200,517,233,236,472,204,128
216,232,513,220,253,548,243,135
288,313,514,255,276,525,244,153
313,349,464,291,290,503,240,151
326,363,434,307,289,558,252,148
318,354,406,291,283,572,251,134
317,334,389,290,267,487,231,130
247,265,393,271,240,437,235,106
265,223,422,231,211,433,240,106
256,200,382,167,191,352,225,103
238,204,447,165,199,376,251,118
240,234,506,184,191,361,231,115
259,255,493,167,173,353,198,114
230,253,501,175,164,312,181,124
230,245,484,175,175,337,211,136
241,263,441,206,189,319,193,136
279,239,388,191,185,301,188,135
275,199,423,238,221,309,209,146
277,222,431,246,216,304,213,145
273,210,507,255,211,315,185,134
295,208,479,236,181,275,169,123
277,208,486,248,187,280,172,122
263,207,481,203,148,271,154,113
267,182,503,185,148,391,178,95
268,191,413,184,180,390,182,105
239,175,432,186,193,394,181,106
255,215,494,223,235,402,218,153
287,213,536,252,259,431,232,164
274,202,479,245,255,386,212,167
250,208,485,230,221,346,194,155
257,214,459,220,207,326,196,157
263,174,503,193,181,316,159,119
238,173,473,153,153,297,138,112
228,171,462,148,148,250,122,101
234,160,479,154,156,235,123,103
230,150,498,157,157,240,115,97
199,183,366,135,135,259,116,92
183,177,303,141,146,292,120,75
193,192,341,157,158,257,116,85
237,225,311,164,158,267,122,88
326,280,306,171,170,284,135,97
340,292,371,165,170,322,146,100
389,357,380,167,170,317,157,110
392,373,389,179,160,319,156,104
380,360,430,180,166,313,154,106
299,320,434,184,168,359,170,103
270,292,384,177,173,378,171,94
219,212,379,177,166,429,175,92
215,198,357,176,170,432,181,98
187,203,295,164,161,447,183,93
188,198,347,166,163,423,164,90
180,191,362,173,150,377,147,88
139,185,357,160,139,281,113,72
176,177,389,138,153,296,135,88
177,155,416,141,153,279,127,88
173,146,368,117,137,252,135,84
185,151,341,105,139,266,170,91
210,183,361,120,137,255,166,91
202,159,341,126,121,228,158,79
201,158,330,124,123,278,179,89
205,164,321,126,143,309,186,93
208,172,352,136,145,286,155,91
198,133,342,122,143,287,158,92
172,131,335,142,146,304,177,94
182,157,329,151,147,276,161,88
184,153,318,152,131,225,133,83
188,155,302,155,130,224,146,81
176,161,314,169,138,225,148,83
164,159,284,136,141,287,118,68
150,127,268,127,136,293,115,68
224,135,277,129,129,290,123,80
225,135,302,136,126,283,110,84
220,147,309,142,143,288,112,89
223,153,307,142,131,267,116,90
236,175,307,141,128,239,120,95
182,170,327,149,138,238,112,89
197,170,336,142,139,234,111,88
193,153,303,121,130,289,126,81
190,164,315,118,129,254,114,82
204,177,360,131,144,254,110,77
186,188,393,119,135,259,122,73
167,180,369,129,138,269,132,74
174,193,380,123,124,207,122,74
200,208,369,140,141,191,137,83
181,202,344,157,153,199,148,88
188,188,294,163,154,189,140,89
198,198,333,160,162,213,141,95
225,195,327,163,163,220,140,93
219,187,406,165,146,210,127,85
206,190,393,137,117,203,113,72
212,192,409,130,123,213,115,69
190,191,378,111,100,177,98,49
177,196,411,112,97,160,92,54
163,180,337,120,101,158,88,51
174,191,321,127,112,163,97,63
184,198,300,124,110,153,95,62
191,213,310,135,129,179,96,67
172,212,295,131,130,192,93,63
176,212,276,107,125,201,91,65
187,199,281,95,115,191,78,58
158,199,276,102,115,200,79,59
151,172,239,97,95,178,77,50
151,156,277,117,101,165,91,66
215,185,299,122,113,177,119,79
241,189,313,128,121,208,128,84
260,188,300,146,139,212,128,91
274,192,321,143,140,215,131,98
268,197,257,135,160,297,137,92
239,178,231,132,155,288,117,82
216,187,270,149,161,274,114,90
220,204,321,200,191,285,126,106
206,199,304,200,195,289,124,103
244,202,294,199,180,230,112,105
219,218,344,200,173,213,108,103
221,193,310,192,162,199,99,92
200,173,268,117,105,174,82,66
218,197,275,124,97,156,82,64
192,198,307,153,100,97,74,61
190,175,253,152,102,122,85,60
165,166,257,142,98,127,94,60
171,158,243,141,102,149,94,59
155,148,236,132,105,187,94,55
145,148,202,123,99,187,95,53
157,140,189,124,106,187,84,52
155,151,159,122,115,222,83,48
160,173,169,125,111,208,86,46
167,155,168,132,121,181,99,56
196,164,196,120,132,190,105,65
195,156,210,119,142,244,121,67
215,152,210,116,140,251,136,77
212,136,212,112,150,257,136,80
206,147,233,115,151,264,129,77
182,126,256,100,144,264,125,71
189,139,252,101,137,231,117,65
189,143,271,107,138,203,91,58
188,152,287,110,132,218,94,53
180,137,275,95,120,219,98,54
187,140,255,92,107,220,117,57
195,139,271,90,110,243,118,64
179,127,267,89,105,239,126,67
179,118,240,88,94,217,123,70
216,150,323,129,105,204,119,77
207,159,315,130,110,196,97,76
186,168,308,131,105,180,96,75
183,175,299,133,112,186,93,71
180,178,326,133,115,190,90,68
131,165,240,99,106,199,88,55
143,156,265,111,118,210,92,52
148,137,281,105,119,178,77,46
180,139,342,97,110,162,82,60
174,134,325,91,111,160,86,58
175,129,420,95,108,148,95,70
172,145,439,100,135,221,108,79
166,165,435,104,149,256,121,85
147,164,410,119,153,256,112,76
173,170,427,140,164,261,113,83
168,164,357,150,169,271,118,78
186,156,353,145,139,204,102,72
209,145,337,151,142,190,96,65
210,168,331,153,140,188,107,80
192,156,306,140,125,180,127,78
221,158,386,158,147,177,132,89
211,160,346,164,155,186,147,92
209,159,348,165,136,157,150,96
203,139,324,158,145,173,144,85
278,176,348,177,157,174,129,91
259,171,205,148,130,166,116,78
252,164,189,144,118,177,108,81
242,169,192,132,119,179,102,76
252,195,235,141,116,166,108,78
192,171,210,143,106,163,101,71
189,180,230,143,106,168,104,71
181,178,234,133,120,211,122,62
208,184,233,139,124,219,119,64
187,157,232,129,112,217,114,63
158,147,220,92,102,213,113,58
157,149,201,93,101,206,105,56
162,145,220,94,96,161,81,55
179,141,287,102,109,153,81,61
193,143,267,104,117,154,89,60
205,158,363,121,134,169,92,65
212,156,377,119,136,183,104,67
239,192,393,123,140,178,100,70
197,179,349,115,123,155,95,62
182,177,356,118,122,159,85,59
186,167,276,127,133,174,106,67
191,171,257,130,129,173,96,68
168,141,263,145,115,158,96,68
173,151,257,141,119,168,98,68
175,138,250,131,116,176,97,68
200,159,229,114,85,164,71,58
216,181,227,124,83,156,86,63
203,181,167,99,85,154,82,55
211,187,215,108,91,151,86,63
215,192,219,114,89,137,87,64
215,177,214,107,92,130,92,69
216,169,224,122,92,115,84,64
221,157,249,124,96,121,81,65
209,151,221,128,90,121,81,58
208,147,195,124,89,127,91,60
191,186,209,129,96,132,85,57
182,172,203,104,101,151,94,60
177,185,202,113,98,152,94,61
178,193,216,101,95,163,91,59
204,212,232,104,99,160,80,58
200,198,226,90,89,169,88,59
183,197,227,95,86,167,73,53
226,193,224,82,88,168,76,51
250,196,253,133,97,152,79,61
251,191,248,135,104,177,92,69
237,175,255,143,106,155,90,63
235,167,260,143,104,140,89,61
217,160,285,147,107,149,98,68
200,139,244,103,96,166,100,65
198,122,249,97,82,141,108,66
207,127,287,91,78,142,108,70
215,127,279,85,78,152,108,72
193,139,282,90,77,166,106,68
220,153,286,98,88,163,123,73
231,200,350,166,130,175,123,93
222,193,333,175,146,218,133,95
215,192,345,181,149,222,141,98
222,192,312,189,154,212,141,101
211,179,335,197,150,203,131,99
218,142,341,162,127,198,117,78
236,144,325,152,109,163,106,75
233,141,355,148,103,152,97,75
227,128,379,140,101,155,101,73
199,125,379,128,96,155,90,68
181,103,314,104,89,148,93,65
168,110,311,110,93,140,93,66
183,118,254,112,100,147,89,65
183,120,220,106,98,136,79,60
190,136,186,105,103,151,81,60
204,141,179,101,98,166,83,57
194,154,168,102,96,159,75,56
179,151,180,105,96,152,73,50
218,171,229,116,98,142,86,63
223,166,213,114,105,151,100,60
200,164,209,119,119,190,112,68
218,153,218,125,120,187,112,69
225,159,218,118,122,192,113,72
200,144,152,98,116,194,98,60
209,169,174,104,125,203,97,72
197,163,163,121,139,176,83,65
185,155,175,128,156,195,95,69
181,154,165,132,164,194,101,71
164,163,188,142,173,198,116,85
147,165,304,137,162,167,106,82
139,196,329,139,142,153,99,81
119,195,340,119,120,142,90,74
125,201,358,126,104,151,92,75
163,205,385,122,93,159,80,71
174,209,367,150,124,170,92,79
175,182,347,139,121,159,108,84
193,185,329,141,124,164,108,85
248,185,333,136,129,148,100,83
235,183,306,146,130,132,93,73
228,160,221,115,97,139,79,55
234,177,230,118,105,134,58,50
223,170,231,118,101,122,60,50
197,176,207,128,108,139,88,56
196,185,217,141,114,142,102,72
184,183,204,138,112,130,108,72
172,165,194,128,104,149,128,74
209,186,217,138,108,150,141,87
178,184,234,135,104,142,140,86
179,169,213,108,90,159,139,75
192,169,221,129,108,164,142,81
199,179,235,134,113,147,127,77
159,179,300,128,115,153,112,68
159,164,289,124,106,165,99,66
167,153,286,123,106,151,95,69
159,146,329,117,100,142,90,70
154,152,325,133,111,167,91,75
152,172,262,136,107,194,109,74
140,178,257,128,110,186,105,69
106,180,264,127,110,191,100,65
102,189,234,114,98,187,98,58
149,184,226,86,78,172,90,51
148,150,220,69,77,142,68,45
166,169,253,97,93,144,79,56
165,176,253,95,85,127,81,54
157,161,220,99,93,143,77,52
111,158,311,104,96,134,77,52
118,155,334,116,103,143,83,57
97,128,310,103,86,135,78,54
108,126,339,109,94,163,86,57
116,131,350,110,91,154,83,60
141,134,289,105,85,151,102,71
132,140,259,94,69,134,99,68
140,148,298,91,80,176,97,64
144,154,290,92,85,158,96,66
158,164,288,96,89,164,104,69
150,163,394,104,110,174,104,72
177,191,444,166,135,182,110,83
170,180,440,177,146,155,117,87
174,164,444,181,164,194,125,89
200,160,449,188,170,192,145,104
202,157,363,187,158,185,135,95
189,119,318,137,140,170,126,86
191,120,309,120,128,159,117,82
177,126,276,107,109,178,121,78
135,136,254,86,92,174,92,52
126,142,252,82,94,178,90,52
127,162,235,89,104,184,94,59
124,163,222,85,95,187,100,58
159,190,251,91,82,124,84,56
170,199,256,93,92,124,81,55
172,196,269,98,95,122,83,55
206,188,263,109,99,122,97,60
226,202,255,107,100,120,104,59
211,212,227,135,111,111,97,62
203,198,257,143,113,118,101,63
199,209,313,147,115,122,103,67
152,194,328,137,100,137,92,56
183,178,341,141,98,127,79,57
193,144,398,109,90,134,87,57
204,153,393,118,98,150,93,68
201,137,333,113,99,154,103,68
199,138,311,108,100,148,104,69
159,164,321,116,116,158,107,74
157,166,266,121,113,152,101,71
155,150,235,102,102,131,94,65
152,153,239,102,110,120,81,62
159,155,266,109,117,133,79,64
145,128,305,105,114,139,76,59
133,118,287,96,113,155,78,56
110,115,290,92,109,168,79,52
134,141,320,103,99,165,73,52
157,150,364,114,103,148,73,53
172,155,346,115,91,144,86,67
163,150,345,117,104,202,100,69
166,146,354,117,103,193,109,76
162,132,354,109,101,195,111,74
141,140,350,112,94,192,111,76
136,141,311,106,101,195,102,67
141,157,304,119,90,129,86,65
138,163,288,122,104,142,76,58
145,152,251,130,117,146,77,57
188,144,218,114,113,147,75,54
196,140,225,112,104,132,70,49
210,146,250,115,99,117,87,54
213,141,267,113,85,91,84,51
205,163,274,113,91,104,84,54
157,157,218,107,94,109,87,53
135,152,209,111,96,127,106,61
125,132,203,96,100,159,99,54
132,144,195,112,102,163,98,56
142,120,196,109,92,156,113,69
153,126,215,114,93,157,118,71
167,146,236,123,107,167,103,69
156,156,242,120,105,139,100,74
147,147,242,103,101,141,103,74
133,139,259,93,108,184,94,62
170,163,257,114,125,193,100,69
157,145,238,112,128,201,107,65
175,146,223,129,132,204,110,64
181,149,255,142,145,204,110,67
207,163,283,155,144,170,109,73
191,176,320,155,131,157,101,68
190,182,345,151,115,124,92,67
181,179,347,139,116,129,93,68
192,180,325,124,99,123,88,64
183,175,307,113,90,137,92,58
167,137,269,100,93,144,89,53
164,141,245,96,99,147,92,55
166,153,251,97,92,136,84,55
160,165,256,107,94,141,84,55
148,161,235,103,100,156,74,55
150,157,248,93,98,148,70,55
159,152,236,92,92,148,68,54
171,140,231,89,98,153,65,50
164,133,278,95,99,156,80,57
157,139,280,96,91,118,82,58
154,151,272,96,83,112,86,59
149,149,273,101,90,130,86,59
143,175,284,111,87,132,96,65
136,189,237,121,94,135,97,58
136,209,224,130,94,142,93,54
151,207,244,126,102,174,91,56
153,212,271,129,106,153,99,58
157,191,246,119,103,150,88,49
178,185,238,108,109,147,78,59
211,162,222,100,110,142,77,61
205,151,183,102,115,184,91,61
203,144,139,100,109,188,84,59
187,145,166,108,113,189,92,62
193,143,211,96,100,185,88,56
160,146,228,104,111,201,96,64
186,160,221,104,106,155,84,62
190,165,230,105,106,150,88,61
212,167,293,112,106,149,85,58
193,151,264,113,109,158,92,58
184,136,253,99,86,145,103,50
154,116,253,101,74,122,101,52
197,139,249,99,86,124,102,58
176,149,163,84,81,120,99,56
187,152,157,89,77,134,100,60
185,150,153,83,85,123,80,56
187,167,217,104,98,122,84,55
135,144,208,106,91,125,87,48
193,136,199,105,91,140,89,52
182,132,220,102,88,130,79,45
185,155,235,107,96,139,86,53
184,147,203,87,83,138,81,52
179,152,219,83,77,133,71,55
120,140,241,86,88,132,77,52
134,146,226,87,95,122,78,51
153,137,230,95,79,108,69,47
151,138,257,135,87,121,70,49
171,165,247,136,88,125,65,50
166,164,231,136,84,115,65,52
156,171,227,137,81,115,74,56
154,171,217,126,83,117,75,55
154,221,192,90,77,106,75,53
186,226,295,96,77,106,79,53
211,230,291,101,70,107,73,52
226,223,296,102,66,97,60,54
213,234,324,123,85,102,67,59
256,193,322,113,80,102,68,66
242,169,251,121,95,138,86,70
228,176,250,118,98,141,93,73
213,176,272,122,99,153,94,73
222,153,238,105,89,154,89,70
209,160,264,118,107,166,92,73
208,147,278,115,113,166,87,76
217,142,291,113,122,172,88,74
213,139,274,110,119,167,87,70
227,136,282,125,122,170,85,67
188,105,327,114,108,157,78,57
168,117,303,105,88,122,70,47
153,102,288,104,78,123,74,45
151,113,291,141,98,125,76,51
153,134,353,132,102,116,76,58
186,154,284,137,108,124,77,57
182,154,296,139,114,140,95,62
177,160,298,138,113,129,89,60
175,155,315,105,104,122,91,57
180,149,274,97,100,125,93,57
152,139,292,94,100,131,96,59
149,133,275,85,94,124,79,49
149,128,280,89,97,120,75,49
171,164,262,128,107,132,84,61
141,155,210,129,109,135,82,53
146,170,162,131,105,126,88,52
154,170,157,133,103,116,80,54
159,173,164,133,101,113,82,53
160,154,166,106,100,105,73,44
155,161,192,110,93,102,70,44
175,148,191,101,92,107,68,47
182,145,214,107,95,107,64,49
188,176,248,109,101,113,73,61
178,177,226,88,87,109,75,59
175,177,207,84,90,111,82,61
161,187,217,95,96,106,83,59
144,192,197,94,93,105,87,57
141,166,144,90,92,97,82,49
143,166,152,119,107,106,87,57
147,166,149,123,103,111,90,61
148,147,181,118,97,109,89,59
153,148,177,114,99,116,89,59
163,145,224,120,91,125,90,61
161,118,218,87,72,113,89,56
164,113,226,88,74,106,84,51
179,122,220,96,77,131,85,52
208,116,227,100,74,136,88,53
204,115,191,100,80,134,91,51
208,126,208,108,85,145,89,51
202,123,198,101,89,154,89,50
186,118,184,92,90,126,79,49
174,139,192,95,101,132,82,53
189,159,213,130,113,133,82,67
181,166,199,132,114,129,74,64
206,169,199,134,109,109,73,67
203,173,243,141,117,129,83,71
184,157,264,140,110,155,81,67
159,146,278,99,92,146,77,56
166,134,277,90,92,152,79,55
153,136,302,86,90,154,76,53
158,142,298,86,80,143,74,57
162,150,273,80,73,101,70,61
157,147,242,88,76,102,63,56
144,146,245,91,66,90,68,56
127,139,223,96,72,95,72,57
144,137,186,91,69,92,69,50
176,131,195,91,71,92,84,53
175,138,196,87,67,93,85,53
176,147,214,92,81,93,88,57
189,152,242,83,81,92,90,62
176,161,267,111,90,90,89,62
155,192,287,142,101,93,79,59
174,181,306,141,101,96,81,65
182,179,298,147,100,95,73,62
189,177,295,156,102,91,70,58
183,160,259,138,97,106,70,56
166,115,223,116,102,122,71,54
171,123,185,124,102,118,68,47
163,114,180,115,95,117,71,48
161,112,136,101,91,137,66,46
167,120,145,98,93,128,64,49
168,128,167,96,76,110,73,50
142,132,163,88,86,115,72,49
164,141,157,97,96,121,75,51
177,142,151,98,92,106,77,52
169,184,215,114,91,103,80,56
185,178,217,106,98,109,70,53
185,176,213,103,92,108,73,54
164,172,237,97,81,100,68,52
126,177,262,106,82,100,70,50
142,145,212,89,80,114,64,42
156,161,197,93,70,110,62,43
158,160,201,92,62,105,60,42
171,170,199,82,65,117,67,42
171,166,173,83,72,116,63,38
163,146,191,85,77,110,62,39
146,128,190,78,77,101,59,37
173,153,184,77,81,110,62,42
177,149,175,82,78,94,66,44
190,166,217,96,83,86,67,49
194,174,214,91,74,77,68,49
199,181,210,94,73,83,67,50
171,153,214,94,80,146,77,48
151,144,216,109,85,149,73,47
153,151,198,93,75,151,70,42
159,162,187,103,87,152,74,43
137,161,194,106,89,152,88,46
147,163,209,114,91,147,84,43
146,161,197,96,89,144,85,43
152,142,178,109,92,141,87,48
135,122,178,109,85,143,84,48
145,115,179,106,86,144,68,49
141,108,157,97,76,100,65,50
149,125,155,113,77,97,57,53
120,150,192,99,71,99,58,51
145,153,192,101,67,95,62,50
147,157,194,94,71,113,64,46
144,164,192,93,77,140,70,46
160,156,191,80,73,142,76,49
183,159,151,75,78,143,85,53
167,162,156,64,80,145,84,54
156,158,150,68,73,129,83,53
160,167,204,82,72,87,84,58
146,164,204,76,77,97,78,52
113,129,217,78,77,102,66,47
122,128,217,76,76,105,74,49
143,128,229,76,81,102,76,52
144,122,202,83,81,109,69,50
143,137,214,92,78,102,70,49
161,138,201,90,77,97,72,48
154,152,214,98,73,93,63,47
148,157,242,105,76,103,67,49
155,147,225,89,78,106,72,47
152,133,216,87,81,112,74,48
177,152,219,93,86,111,74,53
169,134,198,90,92,116,77,52
164,124,153,79,85,110,71,49
153,128,174,83,82,127,62,52
164,144,173,81,78,118,61,55
128,141,175,85,82,118,58,55
129,135,181,87,80,117,55,55
127,139,174,88,84,121,61,56
141,137,211,112,83,97,60,55
149,133,211,111,86,101,65,54
171,134,211,103,76,103,65,49
170,134,207,110,80,98,62,46
176,134,213,113,81,114,70,46
163,133,173,88,76,104,70,41
140,117,163,85,73,106,64,35
109,117,161,99,85,105,67,44
101,117,156,96,91,108,68,44
96,114,140,95,93,88,57,42
95,115,123,95,95,103,57,42
97,132,167,103,99,98,67,48
94,144,174,88,90,98,63,40
159,153,219,83,75,93,64,41
150,151,226,82,67,92,62,40
158,146,225,82,69,93,77,49
172,141,197,70,59,93,69,47
171,107,217,81,69,100,73,49
119,105,195,83,77,104,75,50
136,117,191,89,87,105,83,53
154,125,200,99,91,102,74,48
156,116,202,100,93,109,74,47
153,123,177,105,94,121,87,56
153,111,163,111,91,118,96,59
138,100,186,109,82,112,88,62
111,110,198,137,100,129,97,67
84,116,202,144,100,124,97,67
155,109,204,134,91,103,83,61
155,126,205,125,94,108,76,59
156,132,198,127,95,108,78,56
156,121,185,94,76,78,60,48
158,115,179,84,79,91,70,50
91,118,187,88,84,93,73,50
87,112,179,96,84,95,65,48
87,101,168,98,84,101,61,44
81,119,162,91,79,100,63,47
93,134,217,88,77,92,51,46
87,136,219,86,73,89,47,41
96,137,228,77,73,96,62,44
96,154,227,63,77,95,71,46
96,146,248,67,78,93,78,48
133,156,226,75,77,90,75,53
139,167,221,82,77,107,81,60
136,159,210,82,72,108,75,59
153,157,213,87,70,105,68,58
191,161,198,102,62,103,61,57
170,138,173,104,69,108,60,50
171,133,144,100,67,97,52,42
170,134,159,111,75,81,45,39
162,118,160,111,77,86,46,45
164,110,197,100,84,95,54,48
