36,324,24,48,246,626,42,78
41,352,23,53,276,688,45,76
42,328,24,53,273,689,56,85
43,242,23,53,233,641,57,81
46,264,22,53,253,765,74,84
46,278,23,56,271,786,79,87
43,235,23,52,248,742,80,87
42,241,22,56,259,765,69,70
42,240,23,60,262,770,68,64
47,217,21,60,248,695,51,71
44,204,19,58,244,697,45,71
49,213,22,61,244,665,48,77
53,207,22,59,230,630,60,80
53,205,22,57,222,643,64,82
47,180,22,56,219,620,62,72
50,180,23,55,210,594,60,65
44,172,20,54,224,634,58,71
36,161,19,53,231,643,49,73
41,182,19,52,243,641,41,69
41,199,19,53,241,685,40,73
40,205,20,54,253,705,40,73
41,198,21,55,258,710,34,68
58,230,22,58,272,734,28,103
55,215,21,60,263,731,34,110
55,207,21,62,253,712,34,111
61,207,20,60,238,696,37,116
63,221,21,56,206,640,62,113
54,206,22,52,176,615,64,93
56,200,22,49,181,608,63,86
57,196,21,44,193,577,65,82
50,187,21,48,201,574,80,90
59,171,20,54,221,596,67,96
59,156,18,54,233,601,67,86
58,166,19,55,233,625,69,91
62,175,21,59,252,665,68,91
63,172,22,58,250,681,50,92
54,189,21,52,233,681,46,81
48,190,22,55,240,694,48,78
50,184,22,58,238,689,49,72
50,194,20,56,223,681,53,73
49,212,20,56,234,707,55,54
51,215,22,63,264,746,56,55
54,221,22,64,247,724,55,72
58,242,22,64,237,713,56,74
58,225,23,64,234,736,59,74
58,212,23,63,219,736,64,73
64,385,21,65,227,899,80,73
66,437,23,65,244,991,83,58
61,466,22,62,255,1020,83,56
60,492,23,65,275,1023,80,56
62,496,23,63,272,1002,74,60
63,379,24,55,245,815,62,76
62,315,22,50,226,701,63,85
65,252,23,52,214,653,63,91
61,211,22,49,184,600,61,89
59,203,21,50,198,606,64,93
51,184,19,51,228,621,57,95
58,182,21,54,245,652,53,89
56,216,21,52,253,674,46,81
59,210,20,52,266,686,48,84
60,208,23,50,272,677,44,79
57,205,23,49,255,666,45,73
54,196,24,46,244,617,42,79
51,164,23,45,231,575,41,80
46,153,25,44,215,553,44,93
47,149,23,45,195,535,46,129
47,150,22,42,169,533,47,134
38,150,20,42,156,542,48,129
37,141,21,42,162,546,53,130
42,143,19,41,163,548,57,132
55,143,19,40,169,548,65,117
54,139,20,45,172,537,63,113
56,145,20,45,181,535,64,115
57,148,19,44,179,524,62,115
58,157,20,45,182,527,53,104
44,170,19,46,195,540,44,81
47,174,21,44,201,552,43,75
44,183,22,47,217,567,41,78
44,193,22,51,242,581,38,76
41,186,21,53,235,594,40,74
35,192,23,54,227,582,35,69
30,199,23,55,226,561,35,62
32,189,23,52,207,560,37,54
37,182,24,50,172,542,44,65
43,195,24,47,172,527,61,90
44,180,23,44,157,520,65,95
52,195,24,44,148,534,65,98
50,199,23,44,147,525,65,96
48,193,22,42,150,518,62,90
40,181,22,44,155,525,59,73
53,182,22,46,213,587,63,81
46,159,20,43,212,584,61,76
48,154,21,47,220,567,60,76
49,159,22,48,233,574,63,83
50,154,21,50,234,562,50,71
35,150,21,54,194,514,38,54
36,151,21,54,208,519,37,59
49,147,20,52,206,534,38,67
52,150,20,51,197,541,30,58
49,166,23,53,200,546,28,58
51,161,23,46,185,527,27,54
52,160,24,47,175,538,28,51
44,163,23,47,261,527,31,45
41,161,22,45,255,534,36,49
50,155,19,40,251,514,38,53
49,157,22,40,263,512,40,60
53,157,19,42,270,511,40,58
46,155,20,42,210,495,36,63
47,155,21,46,220,462,31,63
51,155,21,48,218,498,39,77
50,183,19,49,219,529,39,71
48,203,20,45,203,516,40,74
54,221,20,44,185,556,39,70
52,233,20,44,203,585,38,67
41,236,19,43,211,572,28,49
52,224,20,46,214,564,25,53
60,211,19,50,233,568,24,52
63,195,18,51,234,550,31,66
72,211,18,51,216,543,40,72
75,205,18,51,212,532,39,75
69,201,19,50,202,513,40,72
63,208,22,48,200,534,40,70
59,202,23,47,193,543,38,67
50,183,23,47,198,562,29,61
42,203,24,47,203,589,38,61
40,200,24,48,209,589,39,72
40,227,23,52,205,580,54,85
37,236,22,56,222,587,55,76
36,230,25,56,220,570,59,80
42,224,25,58,218,550,55,80
45,215,23,59,215,560,57,74
46,187,23,58,208,538,49,82
48,184,25,57,196,502,48,83
47,196,23,56,195,513,48,78
41,191,23,54,212,517,47,77
40,203,24,55,209,504,42,73
35,188,23,52,216,540,35,46
39,188,24,49,214,550,35,52
39,177,24,52,209,531,37,59
40,172,24,54,184,540,37,57
41,171,24,48,191,551,39,61
51,194,27,51,206,524,40,58
50,194,25,54,201,543,36,51
54,195,24,53,211,547,35,47
64,209,25,51,312,534,34,50
65,204,25,52,321,537,35,64
60,197,24,49,304,532,35,67
56,202,25,50,304,520,39,69
53,192,26,46,297,516,38,69
43,180,25,50,200,519,40,72
39,183,26,52,180,519,43,56
37,169,24,53,187,527,43,64
37,162,23,50,200,527,43,64
37,165,23,53,210,537,39,64
36,172,22,52,244,534,39,73
41,195,21,51,245,538,34,76
42,203,22,48,243,539,38,80
42,208,22,49,231,526,37,86
41,215,22,48,220,522,41,86
43,204,21,44,163,517,54,97
48,196,20,44,160,491,63,107
51,186,20,45,157,479,63,104
53,192,21,47,167,470,65,102
59,198,19,48,174,456,78,116
60,204,21,54,181,454,70,109
55,213,24,55,181,467,63,104
55,223,25,61,194,475,64,102
52,223,26,61,199,495,64,99
53,207,28,63,208,502,46,97
52,201,28,62,232,497,46,88
52,195,26,66,230,503,47,86
59,194,26,62,227,498,51,86
67,227,28,66,243,506,60,86
76,239,30,66,252,526,71,78
85,276,31,64,232,524,79,95
95,279,31,60,229,502,84,109
95,277,31,63,218,495,81,111
95,267,27,58,196,479,73,117
95,269,24,58,169,440,74,113
98,258,23,62,176,456,71,104
91,294,27,65,207,575,78,106
89,358,26,67,214,625,82,104
89,353,29,68,217,619,84,106
86,354,29,66,236,629,76,118
79,341,28,64,247,610,78,119
77,294,25,63,242,490,65,103
75,212,25,58,243,412,68,102
75,191,23,60,252,403,76,108
72,205,23,63,244,381,93,101
71,208,24,63,237,403,96,139
73,228,25,59,252,399,103,143
92,246,28,68,261,416,108,171
93,292,30,67,247,433,107,172
96,273,29,65,241,426,98,183
98,282,29,70,234,397,91,166
101,274,30,70,196,426,82,165
90,253,26,60,169,397,70,152
91,224,24,65,182,398,68,153
91,240,25,63,187,426,68,138
88,225,24,54,175,415,76,150
99,223,24,59,189,387,89,180
92,250,26,61,199,409,92,167
96,233,27,53,194,379,97,169
96,228,27,57,192,355,93,164
95,233,26,59,217,391,91,141
80,228,24,52,209,385,81,148
82,215,22,51,216,360,84,170
74,214,20,54,215,367,76,176
79,209,19,54,214,355,72,194
80,314,21,62,220,554,70,196
79,494,20,69,267,880,80,181
88,562,22,75,280,1046,78,169
89,590,22,73,293,1092,88,153
82,605,23,73,319,1105,90,151
91,565,22,71,303,1026,88,148
95,433,22,67,262,808,76,131
94,340,21,61,241,595,73,120
97,308,20,65,230,504,56,134
100,272,22,61,194,493,52,115
90,258,24,57,194,495,55,113
84,227,23,58,194,438,58,107
89,220,25,54,197,421,53,113
87,201,24,54,201,441,52,99
80,194,24,60,210,431,58,96
82,199,20,66,222,415,74,104
85,206,24,66,238,437,75,105
79,200,23,71,241,457,78,124
73,186,23,71,237,478,79,118
71,191,22,70,247,518,76,117
72,170,25,63,242,501,52,110
70,171,22,61,241,498,61,125
65,273,23,56,256,620,69,99
67,425,22,57,326,802,72,101
69,438,23,57,328,820,74,110
75,452,23,58,340,833,81,123
78,464,26,59,332,832,77,113
75,412,25,60,310,761,71,114
75,266,26,59,232,545,72,115
81,247,26,59,202,489,76,114
72,218,26,63,170,476,71,105
74,206,25,68,170,499,71,94
79,223,25,66,179,476,82,100
94,238,26,63,166,460,94,123
87,236,29,63,176,459,96,116
94,251,29,57,168,458,96,119
99,245,27,48,160,440,109,128
105,243,28,49,167,450,99,131
99,219,25,49,191,497,90,118
104,245,24,49,198,528,87,118
106,241,22,57,218,563,93,159
103,228,25,59,230,576,72,176
100,230,24,66,230,577,75,174
94,228,26,67,218,560,72,167
104,233,24,68,209,553,78,172
102,220,24,64,203,504,69,132
100,232,24,64,195,525,73,107
102,211,26,59,194,535,72,102
103,199,25,54,186,522,72,134
95,171,26,54,193,512,65,138
94,196,25,54,178,547,90,153
104,214,25,54,180,531,93,161
98,235,23,51,174,552,98,163
95,253,24,54,174,583,95,138
94,248,22,55,176,589,105,142
91,247,23,57,181,682,91,132
88,239,23,62,193,743,90,138
89,244,23,65,194,767,90,142
95,232,22,66,210,786,91,144
90,232,24,63,200,816,79,134
102,243,25,65,198,743,79,127
102,230,27,63,200,670,77,106
101,218,27,62,194,620,73,95
105,226,26,63,186,587,71,92
107,238,26,68,202,571,65,91
95,218,24,62,210,609,66,94
83,216,23,61,199,674,67,96
78,204,25,60,204,709,60,93
76,202,27,61,203,752,62,105
73,188,25,59,187,758,63,100
70,197,31,60,192,728,60,96
75,197,30,56,188,662,66,103
79,224,32,59,183,617,72,112
68,217,30,55,215,631,73,108
68,236,32,55,227,620,78,111
76,239,27,56,231,626,82,118
74,242,28,62,242,685,73,134
77,236,25,64,251,795,71,129
92,259,25,63,219,791,74,135
93,259,24,59,206,810,79,142
98,256,27,59,201,812,81,140
102,253,26,52,181,768,81,115
99,264,26,45,188,661,79,116
93,250,26,54,188,585,75,115
90,242,25,58,186,522,69,124
79,225,23,56,189,515,66,130
75,219,22,63,194,510,67,138
81,210,22,62,184,508,74,139
76,200,22,58,185,545,72,129
77,184,23,57,192,560,79,109
90,232,24,58,188,556,87,123
94,254,24,54,197,580,98,124
92,246,25,58,196,580,93,127
88,253,26,64,226,640,93,123
95,259,26,66,235,671,88,130
83,261,26,68,250,677,85,121
75,257,27,68,239,674,71,109
79,262,28,67,233,683,70,101
87,268,27,60,209,606,69,111
81,266,28,56,201,566,63,110
85,232,29,55,167,567,49,95
92,232,28,52,161,614,46,93
82,208,27,49,169,611,47,97
77,185,26,55,151,630,52,110
79,172,25,54,144,638,52,108
76,199,22,53,160,623,51,101
71,174,22,55,184,569,53,116
78,183,21,55,176,541,53,120
76,176,21,51,195,520,48,113
73,198,22,56,200,511,52,116
84,188,21,54,286,526,54,123
100,207,22,56,278,521,57,118
98,202,21,56,279,538,76,115
100,224,21,61,292,559,79,123
101,234,20,62,305,630,77,117
94,228,20,64,239,649,78,123
76,250,21,66,242,724,76,122
72,268,21,66,250,773,73,120
78,273,22,62,226,792,78,115
77,255,21,57,195,742,79,113
83,249,22,53,165,725,80,107
87,215,20,45,150,646,94,115
85,192,21,48,151,580,88,120
80,176,19,43,150,548,82,105
81,196,20,44,167,557,79,104
78,220,21,48,192,546,75,98
74,223,21,53,213,555,56,86
79,235,22,53,208,565,48,76
84,245,22,59,220,542,45,75
85,241,23,60,216,520,58,99
79,211,21,59,209,532,63,110
84,214,22,64,203,530,61,130
89,207,21,62,216,529,61,131
81,222,24,63,209,583,61,135
80,212,22,63,208,614,62,124
84,230,22,61,197,607,62,143
84,228,21,56,188,614,61,131
78,235,24,54,176,609,60,140
78,225,22,49,168,556,67,139
79,215,23,49,159,507,71,143
76,225,25,57,166,481,81,119
74,223,25,55,188,444,84,117
98,215,23,56,180,454,95,117
101,203,24,63,203,460,103,133
124,232,23,67,209,472,105,164
124,214,21,66,201,499,111,171
136,233,24,69,189,522,115,212
123,235,25,72,205,544,107,213
121,226,24,66,194,554,111,203
102,210,24,64,206,547,109,178
100,215,26,61,222,555,95,174
82,194,24,67,219,603,87,116
86,188,22,67,225,578,110,115
82,194,23,69,223,591,109,119
77,193,24,75,226,619,103,122
87,192,23,76,216,625,106,115
92,190,24,69,215,611,115,126
92,198,23,74,204,614,96,125
113,195,21,75,204,594,83,133
116,182,22,68,184,581,85,142
115,187,22,67,189,605,97,173
110,194,22,69,202,590,91,185
105,198,22,63,199,595,88,180
96,205,22,61,195,621,95,199
95,207,22,67,201,653,95,200
93,191,24,66,194,609,80,178
92,202,22,64,186,591,81,163
88,201,24,61,186,578,86,169
77,208,25,61,195,548,77,181
68,218,25,56,198,540,74,169
61,233,24,57,206,552,74,192
71,242,25,59,203,563,74,185
75,246,24,57,194,590,81,179
75,248,23,56,182,623,81,153
81,249,25,54,172,672,91,158
81,240,25,56,168,687,91,126
81,218,25,54,170,680,103,135
93,203,27,57,186,701,105,152
91,186,27,54,192,755,109,143
99,176,25,56,192,710,103,149
99,222,25,51,188,692,107,147
108,226,25,52,186,697,94,160
98,248,23,56,184,657,89,154
97,248,21,56,177,551,87,147
90,248,20,55,182,546,82,131
95,214,22,60,205,590,80,142
74,204,24,57,201,586,84,129
81,183,23,54,212,606,84,117
87,199,25,60,227,627,84,124
83,194,27,62,231,594,92,147
85,190,26,62,218,551,91,143
91,216,24,64,215,551,81,136
84,218,24,61,199,526,84,154
83,209,23,57,187,514,84,164
86,228,23,57,182,526,82,141
80,219,21,54,174,511,84,141
77,190,23,54,183,490,89,142
90,185,25,55,182,479,81,129
85,193,26,56,189,452,76,130
82,176,26,55,191,445,78,138
87,208,26,55,193,457,82,134
90,211,25,59,211,458,102,159
88,238,24,62,218,461,102,153
92,240,23,66,219,494,103,140
94,236,23,64,220,570,109,139
97,225,23,66,219,641,102,142
96,239,25,61,205,707,85,119
87,205,23,59,211,716,85,129
88,202,23,57,205,719,93,127
101,202,25,56,202,659,84,118
98,197,24,55,201,564,80,108
97,221,22,58,192,472,100,121
110,224,22,57,168,447,133,130
128,213,24,54,167,426,147,140
121,325,23,59,182,545,182,154
128,340,27,60,199,588,194,163
136,332,26,57,213,644,186,157
138,378,28,60,248,679,178,167
124,383,27,59,257,688,168,168
133,312,26,62,259,596,134,168
122,288,23,67,282,556,129,170
112,274,25,67,269,500,125,158
110,215,23,66,250,462,110,130
111,240,22,67,249,434,102,115
98,223,23,69,249,429,104,129
118,271,22,62,221,459,95,154
120,279,22,68,234,438,102,165
113,273,22,68,238,408,106,188
109,247,22,67,231,392,110,191
119,248,22,59,214,356,110,203
99,206,23,56,202,346,120,185
121,192,23,49,191,380,115,203
118,206,24,57,191,392,110,185
115,223,25,58,185,415,116,187
111,215,24,59,185,447,116,178
116,209,24,60,189,418,117,178
94,230,25,59,201,383,118,157
103,264,24,49,192,403,115,164
101,253,22,47,191,422,103,170
126,291,24,49,206,502,95,170
125,308,26,55,208,544,91,167
130,305,25,59,206,553,91,163
139,285,24,70,212,545,88,166
146,305,26,77,244,527,94,159
120,276,25,77,232,424,110,128
118,264,26,78,230,383,108,129
113,262,26,78,229,404,114,146
103,262,26,76,220,429,117,130
96,240,26,76,186,434,119,143
118,272,25,73,185,447,108,160
118,282,24,73,178,440,97,157
122,281,24,74,163,417,94,143
115,264,26,72,157,388,98,188
121,270,23,69,164,422,107,179
100,233,24,70,166,469,102,175
104,239,25,65,167,541,102,179
101,253,25,65,192,568,98,181
102,258,26,60,198,574,89,139
107,257,28,57,203,536,70,139
102,251,27,58,223,526,78,133
107,228,26,59,228,579,81,141
102,206,29,65,223,593,78,143
108,215,28,66,227,602,85,148
111,265,28,70,228,608,91,171
116,280,29,72,209,600,85,167
122,280,29,78,246,527,82,157
125,286,30,69,230,472,94,183
118,290,30,68,231,456,99,183
111,234,30,64,216,454,101,175
116,233,29,59,208,433,102,220
101,238,29,51,161,383,118,237
96,228,26,58,163,407,109,217
91,201,25,55,159,423,108,208
98,204,25,53,171,433,114,217
89,194,27,56,178,450,128,176
93,186,26,53,167,462,120,157
108,216,26,58,183,481,128,171
115,226,27,59,185,464,121,194
102,250,26,60,198,462,105,170
101,257,25,58,190,461,82,164
94,254,25,66,201,479,73,166
83,243,25,59,202,482,61,151
79,255,26,61,211,497,65,131
80,231,25,60,194,502,73,135
79,229,23,62,204,537,82,130
80,247,25,56,206,555,90,133
78,238,25,55,195,553,88,132
74,217,24,53,189,566,89,135
72,219,25,54,190,572,95,138
84,209,26,50,184,541,92,146
88,187,25,51,174,491,81,135
84,200,27,53,176,497,80,121
95,202,27,52,168,525,117,124
94,213,28,50,167,587,111,135
89,245,31,56,174,639,111,135
87,255,29,55,190,690,135,145
87,235,29,56,190,704,133,150
85,254,28,60,206,700,104,144
91,250,28,58,206,673,101,135
101,220,25,57,220,641,96,129
96,263,30,73,217,629,71,120
107,267,29,69,229,624,81,121
125,251,30,74,215,600,100,199
120,253,29,80,218,596,107,194
115,254,28,80,207,597,117,194
128,212,25,68,197,586,120,195
121,220,26,69,181,593,124,200
104,213,25,62,183,608,103,120
119,198,25,55,185,610,93,117
119,210,25,55,170,610,82,120
110,200,25,56,181,612,74,129
108,199,26,61,180,618,89,123
110,225,26,63,191,606,96,131
101,226,25,67,188,582,96,132
94,212,27,66,186,590,101,139
100,221,25,65,176,601,112,136
101,213,24,66,188,600,92,133
91,203,25,61,195,597,96,130
88,197,26,57,192,630,107,129
102,196,25,63,213,602,105,138
104,192,25,60,229,611,89,133
118,190,25,66,225,633,85,143
120,186,24,70,214,636,77,138
126,190,25,71,218,618,92,138
115,204,25,69,199,621,91,125
119,213,25,72,181,630,103,141
113,245,27,65,170,613,107,123
125,249,26,64,164,606,110,124
121,253,24,63,151,631,90,132
118,247,24,63,202,719,93,129
117,236,24,62,206,690,103,152
124,217,22,58,214,658,106,165
113,213,21,56,220,668,116,185
122,209,23,60,231,646,127,204
127,221,28,55,207,591,124,212
123,219,28,60,218,619,112,186
110,213,30,66,223,650,114,195
109,202,32,67,223,657,115,209
119,223,32,71,219,684,110,217
121,203,29,76,204,678,108,210
115,192,28,73,184,644,105,203
108,187,27,72,193,634,108,194
110,200,27,72,185,640,98,171
83,176,24,65,181,611,97,131
76,177,24,60,188,589,107,153
84,183,23,60,191,605,104,156
87,185,22,56,164,587,93,157
86,167,21,53,160,564,86,163
94,168,20,52,156,564,81,177
90,187,23,53,147,555,64,161
88,197,23,50,147,541,59,165
82,188,25,49,152,537,65,179
83,196,24,51,169,543,66,165
69,190,25,63,185,555,59,147
79,180,23,67,206,567,74,155
73,182,22,69,212,587,73,153
86,183,22,68,239,630,82,144
88,181,22,72,236,658,82,140
87,182,22,64,233,655,80,143
85,171,23,60,223,664,69,146
81,157,22,56,207,656,71,137
75,152,23,58,176,612,56,133
71,168,24,58,169,576,53,130
78,169,25,61,156,565,64,123
75,172,23,63,144,537,66,114
78,171,25,68,153,535,67,133
73,166,22,66,154,543,61,114
71,170,23,61,148,539,64,124
69,174,23,62,156,519,57,151
77,183,24,58,176,529,55,191
87,192,24,54,187,500,51,197
87,201,26,53,198,492,55,201
95,192,25,53,211,505,56,219
94,203,26,52,221,520,53,203
89,202,26,59,216,529,56,164
82,191,26,60,220,567,60,154
87,215,25,60,220,578,65,166
81,211,26,63,213,582,72,145
84,219,25,61,203,582,83,168
84,229,26,60,195,555,105,181
88,256,27,61,182,540,124,190
81,231,27,61,169,549,128,179
88,224,27,59,165,535,131,187
88,205,27,61,165,516,133,172
85,185,26,61,169,513,116,163
77,143,22,63,169,478,94,150
76,174,22,63,179,427,84,142
73,202,23,64,183,408,71,137
82,194,23,60,172,412,51,128
92,196,23,61,180,421,48,119
98,198,24,58,188,441,55,127
99,174,24,59,190,472,54,133
103,147,23,57,206,502,61,125
91,146,23,58,238,585,61,122
82,156,22,57,234,649,67,138
81,175,24,58,239,655,64,119
84,174,24,55,228,638,64,125
75,185,23,60,208,629,70,112
79,199,22,57,178,546,76,127
79,193,23,56,168,480,81,138
75,180,22,56,161,470,93,152
73,177,22,62,164,478,99,146
72,185,23,61,174,483,97,157
68,192,24,67,173,518,97,157
73,191,23,65,176,535,104,138
80,190,24,62,194,624,91,137
84,233,24,57,213,684,88,160
92,223,24,57,217,680,83,169
93,216,23,54,227,677,87,162
91,221,25,57,237,660,75,173
86,250,25,58,229,675,78,180
79,232,27,61,225,710,82,164
69,226,26,61,215,737,79,157
72,232,26,63,219,748,71,158
68,228,25,63,232,746,71,145
65,198,23,64,229,667,75,126
67,183,21,61,215,561,68,125
73,192,21,59,221,520,72,128
68,185,22,55,214,496,71,125
71,185,21,53,189,526,64,120
74,187,23,50,176,559,54,125
84,190,24,53,177,637,58,165
80,188,24,65,175,650,66,147
76,188,24,63,160,629,66,149
73,187,25,63,157,614,75,149
77,181,24,62,163,570,82,153
87,199,27,63,159,504,83,115
86,199,27,52,161,512,79,132
87,187,25,57,178,588,95,130
91,189,26,59,189,586,100,130
90,207,26,62,192,597,116,133
70,178,26,59,244,578,138,126
70,176,24,62,311,572,147,115
72,184,26,63,304,523,140,126
66,181,25,67,300,506,139,131
59,171,24,66,299,500,129,118
74,190,23,71,268,535,113,136
80,193,25,69,189,500,100,134
77,199,23,68,199,480,98,121
85,204,27,68,200,524,95,122
87,203,28,68,193,553,88,118
70,192,28,63,185,544,76,93
65,185,25,65,187,549,86,106
68,182,27,61,175,533,95,110
61,186,22,56,186,486,90,100
64,190,24,54,187,454,86,101
74,203,24,54,194,426,91,102
72,199,24,53,197,427,79,100
75,209,24,56,204,453,73,99
82,196,24,58,198,450,105,118
79,187,24,59,208,444,112,127
73,183,24,62,226,511,116,150
84,204,23,66,231,559,127,153
81,198,24,66,240,644,131,153
80,204,23,65,235,744,107,158
80,217,22,66,239,791,102,159
80,228,23,64,213,755,93,143
66,267,24,62,232,787,98,163
71,302,22,59,238,750,86,169
74,327,24,60,232,692,86,159
80,326,23,58,220,641,91,168
89,324,21,57,233,627,95,190
105,291,22,54,219,526,71,171
102,267,22,57,206,460,78,179
96,248,20,55,218,428,87,182
102,256,21,58,233,410,90,175
98,251,22,59,225,396,86,147
88,254,22,59,225,437,92,148
93,232,24,62,221,465,87,128
94,231,24,60,230,467,79,121
85,222,22,58,219,497,77,126
84,238,23,58,211,518,77,125
83,223,22,58,198,476,81,115
82,221,24,56,195,452,93,144
85,218,23,54,188,410,106,164
89,240,29,55,190,382,100,158
89,226,29,55,189,387,102,170
94,252,29,55,187,407,94,183
90,254,28,53,195,396,83,212
85,255,30,56,182,399,63,206
92,222,25,56,177,374,63,225
100,230,24,56,192,351,62,228
93,227,26,58,201,350,57,230
100,256,29,65,202,448,69,228
100,244,28,66,220,511,83,218
94,253,27,65,231,540,89,203
87,251,28,69,231,547,83,189
89,231,29,66,231,548,83,175
84,204,25,57,244,516,81,116
98,231,25,57,233,453,73,121
95,228,27,61,223,523,69,111
91,214,28,61,209,667,69,116
98,229,24,65,198,670,73,115
93,237,24,73,179,642,64,112
86,214,25,72,171,683,57,103
84,217,25,73,173,624,51,105
84,212,22,69,177,457,64,98
73,196,21,66,170,466,72,115
87,193,22,60,160,471,77,124
90,195,21,60,158,412,77,148
92,188,21,56,185,435,75,145
93,196,22,55,192,469,64,146
107,205,22,55,205,485,51,148
100,197,22,52,228,500,42,139
87,208,21,51,243,608,58,136
87,206,22,53,243,655,61,140
95,220,23,61,252,697,71,156
83,221,25,66,258,709,74,141
84,221,24,67,248,704,73,144
84,211,25,69,231,618,68,133
83,220,25,71,203,603,88,143
77,210,24,69,177,556,84,129
81,205,23,65,185,550,90,143
89,217,25,63,177,598,98,161
92,213,25,63,186,592,108,159
90,210,24,62,190,529,93,155
89,203,25,65,204,514,92,154
85,210,26,62,181,479,96,160
73,195,25,62,179,478,93,146
68,200,25,63,183,502,111,145
84,220,24,63,194,505,111,130
88,230,23,57,218,597,115,125
86,215,21,59,224,596,105,101
90,218,21,60,242,553,125,103
101,228,21,62,254,565,100,102
88,218,25,63,257,600,99,102
81,202,24,66,238,526,92,98
79,210,24,64,234,561,97,96
75,209,23,63,213,574,79,91
61,192,25,62,187,626,78,102
62,186,23,60,166,643,81,122
66,200,24,54,148,628,82,128
81,207,27,60,144,591,74,123
90,200,26,64,152,586,66,123
97,213,24,66,165,524,63,120
99,196,24,66,161,531,56,99
97,195,23,67,175,576,72,106
83,171,20,65,167,605,74,113
78,226,24,68,161,607,75,118
71,234,26,68,164,620,72,115
72,247,24,69,184,616,78,135
75,247,25,68,190,605,67,128
77,264,26,68,212,635,67,127
75,232,22,66,218,646,71,120
81,232,20,65,215,632,74,117
78,226,20,65,217,616,71,103
73,229,20,66,200,595,70,101
77,209,19,61,180,553,69,97
75,206,20,58,170,539,63,95
70,203,21,60,168,572,67,90
73,226,21,58,149,569,67,83
73,219,22,61,152,590,70,81
71,225,22,62,164,622,79,81
69,210,23,58,164,630,82,83
71,199,23,57,161,608,82,90
69,190,23,56,160,595,79,92
68,191,24,50,157,579,75,91
67,199,23,55,153,573,73,102
73,211,23,58,160,564,63,108
73,224,23,54,169,579,57,114
75,204,23,55,200,623,60,130
80,193,22,62,218,634,62,130
80,186,23,61,227,626,54,125
74,178,23,65,245,668,62,135
65,156,22,65,234,673,63,125
65,172,22,64,221,646,62,116
64,170,22,59,212,640,64,117
107,215,24,64,203,680,62,156
116,234,26,62,175,675,61,160
119,234,26,65,194,674,60,164
124,248,28,61,199,661,63,164
123,255,28,61,195,661,62,168
93,222,26,56,189,619,70,133
83,207,24,56,198,586,69,106
81,213,25,58,193,560,70,106
76,248,24,66,186,549,69,129
84,256,23,67,184,565,68,133
78,266,23,66,185,559,62,131
88,277,23,62,188,571,60,136
106,289,24,70,199,588,68,148
106,244,26,67,194,594,69,132
103,237,27,69,202,585,92,123
109,226,27,72,203,581,92,125
104,232,28,76,190,560,90,120
91,227,27,70,168,553,84,105
103,225,26,68,199,595,89,132
105,224,25,64,191,607,66,142
105,226,24,62,187,617,72,142
106,201,25,58,191,636,75,152
117,199,27,65,195,627,81,163
103,195,25,64,164,580,81,143
104,214,26,70,167,584,83,136
101,203,27,74,198,601,93,140
98,203,26,75,195,593,95,141
93,214,25,75,191,588,89,133
95,229,27,83,190,587,84,121
90,211,26,80,203,568,83,119
88,217,24,83,192,573,65,116
86,218,24,82,206,621,76,140
79,200,23,75,214,638,89,145
77,173,22,68,225,643,91,157
74,168,22,71,215,631,88,155
75,172,24,67,194,609,85,171
80,210,25,66,177,543,73,140
77,223,25,64,170,510,68,136
80,238,26,64,160,511,63,128
82,248,26,63,157,498,64,132
86,240,26,57,165,482,76,107
88,214,24,57,168,481,75,115
84,194,22,55,166,488,66,110
94,189,23,52,167,494,70,115
91,214,22,47,170,512,74,124
92,240,22,54,181,504,73,140
97,260,22,57,191,549,95,143
107,270,22,59,197,571,118,201
101,284,23,64,202,572,118,198
110,272,23,69,209,581,117,194
105,266,23,68,206,609,122,193
94,271,24,76,212,575,125,204
106,278,26,79,223,590,110,161
111,293,27,80,218,617,122,176
114,292,29,85,212,587,137,173
124,294,28,86,206,562,134,171
135,278,28,81,179,545,116,157
119,255,25,74,156,476,113,139
112,223,23,71,153,465,101,141
119,222,24,64,160,520,81,212
112,215,26,69,158,499,76,204
102,206,25,66,180,498,77,200
102,212,28,70,183,510,79,210
105,226,30,69,176,467,80,202
87,223,29,67,169,433,84,147
82,212,27,56,174,455,86,146
82,211,28,53,174,474,87,145
99,212,27,53,193,485,82,141
94,194,25,51,211,492,74,145
94,187,25,55,229,499,64,125
100,194,24,64,252,541,77,137
101,201,23,66,256,556,74,145
83,196,22,66,247,564,76,144
92,193,22,73,241,618,90,144
95,196,22,72,218,632,89,139
89,185,22,69,190,615,72,128
84,178,22,67,170,632,68,116
85,187,23,66,172,652,78,131
79,185,23,60,158,599,62,111
79,188,22,58,166,645,60,111
89,208,23,57,161,691,58,124
90,204,22,58,166,672,69,137
95,220,22,63,178,681,64,116
93,228,21,62,207,725,63,120
93,244,21,64,229,679,67,123
94,240,20,64,251,633,72,125
106,265,21,61,269,636,74,119
108,276,20,62,279,626,70,116
104,271,22,59,274,594,73,113
105,255,24,57,268,594,73,131
106,252,27,58,261,610,67,115
99,238,27,64,251,613,57,120
88,206,28,61,227,614,56,116
88,223,27,60,210,622,53,117
81,214,26,60,200,621,51,110
68,221,24,57,190,642,56,108
56,209,25,53,173,682,54,95
57,204,24,51,171,683,50,93
58,188,22,53,173,658,50,88
69,213,22,61,167,639,49,62
90,213,23,61,167,573,53,107
95,226,23,63,173,531,62,109
99,233,24,63,178,548,68,123
104,233,23,70,180,555,74,125
101,219,23,64,184,549,78,142
84,203,23,67,195,573,79,120
91,205,22,67,202,529,78,116
87,206,23,71,214,491,73,104
91,215,25,70,223,528,74,108
95,224,26,72,227,527,79,102
96,260,25,71,215,553,74,114
92,259,24,71,213,639,86,118
90,251,24,72,195,618,92,117
78,248,23,69,178,572,90,112
79,233,23,67,175,593,92,111
84,214,23,68,178,542,90,96
76,195,24,68,174,436,75,90
79,203,24,67,178,471,66,101
82,208,24,64,195,470,77,99
85,205,25,65,198,585,79,93
88,188,25,59,190,624,83,99
97,220,28,63,196,630,106,125
104,247,29,65,197,652,117,121
110,246,29,72,182,670,112,130
106,257,29,69,185,553,121,162
100,270,29,75,196,536,121,159
118,255,26,73,203,555,103,145
113,225,24,66,206,506,98,142
113,231,24,62,221,498,95,134
119,234,22,64,208,504,74,117
115,235,22,65,216,566,84,122
89,239,22,72,213,621,85,116
88,249,24,72,215,652,88,120
93,275,22,70,227,697,100,123
77,305,23,83,275,764,104,96
75,294,22,84,268,719,98,90
80,298,23,76,262,649,103,93
80,313,23,79,274,618,96,89
71,278,23,81,256,538,80,90
70,236,23,69,223,429,71,88
72,236,23,65,219,378,64,92
76,227,22,62,221,376,51,86
81,207,22,63,199,357,60,101
79,219,23,61,200,499,61,98
78,214,23,58,190,543,65,97
77,220,23,52,196,571,65,83
69,218,24,57,212,591,65,83
71,227,24,56,228,598,58,67
75,224,24,53,236,510,59,86
78,244,23,59,235,468,69,98
87,228,23,63,229,451,75,111
87,249,22,63,218,451,81,116
89,237,21,60,212,440,81,117
86,242,19,62,201,423,88,136
86,238,19,57,207,427,76,133
78,247,21,66,213,407,73,126
80,232,19,64,225,387,70,145
74,236,19,66,224,423,74,163
80,220,19,67,226,441,71,144
78,206,20,67,216,418,78,148
84,206,19,55,212,426,82,166
90,210,21,54,197,411,77,152
86,199,20,50,187,403,70,133
74,209,21,58,189,411,72,124
75,208,20,58,199,432,71,117
74,206,22,65,207,460,64,86
58,181,23,67,200,529,61,73
76,184,24,68,194,526,67,70
81,182,25,62,189,497,61,77
79,189,26,65,181,496,55,66
79,184,24,58,165,463,60,74
87,198,23,54,166,380,62,74
82,192,25,59,168,357,61,77
78,175,22,57,168,362,56,75
86,163,21,53,160,325,60,90
83,165,21,53,164,319,67,88
83,167,22,54,165,337,69,94
71,166,18,47,172,341,66,88
68,172,19,50,174,350,66,98
63,176,20,55,184,416,58,89
60,165,20,56,193,435,46,84
50,149,20,54,216,475,39,73
68,160,21,60,228,559,40,75
71,172,22,58,239,552,47,68
71,180,23,56,251,519,51,65
69,196,23,60,245,544,50,68
75,198,25,65,223,500,54,72
63,190,23,66,205,416,53,69
75,186,25,64,186,421,47,60
79,207,23,64,162,442,48,68
79,196,26,63,162,434,54,79
77,215,26,63,162,471,65,81
82,222,28,62,164,460,65,81
78,230,29,68,171,481,65,81
91,224,30,67,172,477,86,77
99,229,27,72,168,457,86,68
98,237,27,71,172,546,90,68
96,237,26,73,176,567,91,65
92,224,24,68,174,586,92,58
84,229,22,71,177,594,97,59
84,224,22,63,192,596,94,60
83,220,21,63,208,521,83,67
80,210,21,60,220,549,82,70
75,217,21,62,243,564,84,73
63,200,23,59,236,554,59,71
55,215,24,59,230,563,58,64
50,197,23,53,207,601,54,56
52,204,23,51,186,563,53,53
63,210,24,49,140,545,56,51
60,195,23,48,148,553,51,50
57,181,22,53,179,609,51,50
57,189,23,54,188,566,55,59
65,212,22,53,194,582,57,67
54,194,20,51,202,606,50,65
55,208,21,54,204,648,49,63
58,226,23,52,172,649,47,63
62,221,23,52,175,634,41,48
62,203,23,54,186,665,46,40
72,219,23,55,203,678,55,64
76,209,21,53,216,692,62,72
76,202,21,58,221,660,61,77
85,220,22,61,243,680,61,81
79,221,23,61,232,654,60,87
78,222,23,63,213,618,50,79
74,228,25,66,192,569,38,74
73,216,24,60,181,577,39,70
63,194,23,57,139,570,38,67
64,188,23,57,136,593,37,66
66,189,24,56,138,621,40,79
67,203,22,53,151,636,47,82
67,201,20,52,158,623,47,83
69,210,21,53,168,652,50,83
69,215,22,52,174,625,51,79
63,204,24,48,174,589,58,61
62,192,23,49,165,581,58,57
65,202,24,51,173,592,56,53
62,187,24,51,176,542,54,51
59,175,23,49,191,564,52,47
57,176,21,53,208,609,42,42
57,196,23,52,223,611,40,38
52,191,22,49,224,609,44,35
75,210,23,52,221,625,48,44
74,212,22,51,209,628,45,52
79,220,22,51,187,595,71,86
87,215,22,50,166,579,73,100
91,212,23,50,160,569,82,119
73,198,23,49,153,566,82,117
73,196,24,47,143,549,82,118
72,187,25,45,162,529,60,102
63,163,25,42,174,548,58,93
62,173,26,51,176,570,40,78
59,162,25,51,177,595,35,87
62,182,24,58,181,597,39,92
56,179,23,57,188,614,39,92
53,178,23,57,172,611,34,91
48,171,24,50,176,575,32,82
51,182,25,48,191,563,32,71
48,154,24,44,195,563,25,56
62,158,24,44,188,546,25,44
66,156,24,45,204,555,23,46
64,150,24,46,193,587,28,61
61,148,24,48,181,584,29,63
74,180,23,47,174,597,35,78
61,169,23,50,167,613,37,79
57,165,23,53,160,595,39,75
56,173,22,57,165,589,38,65
63,171,21,59,163,585,48,85
49,153,20,58,173,563,46,75
49,160,21,56,181,557,45,72
53,170,21,53,186,563,45,72
56,174,21,49,188,545,47,71
49,171,22,50,188,542,35,43
47,174,24,51,180,541,35,36
46,180,24,50,170,531,46,79
42,184,22,52,202,567,47,81
38,176,22,51,209,572,44,85
44,185,19,53,226,571,43,88
48,188,19,53,236,593,45,88
51,181,18,56,238,601,35,57
51,180,21,55,209,540,41,63
52,194,22,58,205,543,43,68
47,189,23,54,202,545,44,66
48,185,24,56,192,514,42,67
44,180,24,51,191,521,42,65
42,174,21,51,188,534,35,61
41,162,21,48,181,539,36,53
47,154,20,50,165,535,36,63
60,158,19,49,177,561,51,73
61,178,21,50,177,565,52,76
67,178,22,49,174,575,66,81
69,200,21,47,174,551,71,90
66,212,22,44,178,534,73,83
66,210,22,47,168,506,74,77
70,195,21,49,172,493,76,82
67,192,23,55,179,506,70,86
67,164,22,57,195,539,81,90
67,162,22,59,198,563,83,95
55,163,23,59,202,596,76,98
47,175,23,60,197,580,76,92
44,177,22,56,193,552,71,87
39,184,22,54,173,517,52,72
35,178,22,52,162,493,46,67
29,168,21,48,155,435,40,65
31,159,20,43,152,419,36,66
29,157,20,39,141,424,33,56
26,156,22,41,145,446,33,59
35,154,21,42,160,448,33,56
55,175,22,43,161,462,35,59
57,174,24,44,165,465,35,60
59,176,24,44,177,458,39,62
60,166,24,43,181,460,39,61
56,200,24,45,214,490,39,60
38,190,22,46,227,532,44,52
33,188,22,49,240,557,46,46
31,194,20,52,266,586,45,46
33,209,22,58,279,630,52,47
33,186,21,58,255,630,63,50
34,195,26,62,253,600,61,50
39,202,25,62,241,585,60,53
51,223,25,60,210,575,63,65
52,228,24,56,201,577,58,62
51,217,23,57,190,573,45,59
49,224,20,52,191,594,50,62
46,225,23,53,201,614,50,64
39,215,24,49,198,597,54,66
35,208,24,47,191,556,54,74
50,231,24,48,208,581,65,89
50,210,24,49,205,612,61,85
51,214,20,49,200,614,59,84
48,202,20,56,207,624,52,72
49,205,19,57,209,621,60,69
33,196,21,55,213,569,50,54
35,209,20,57,225,581,59,65
39,207,22,62,239,603,60,66
36,221,23,62,252,635,60,68
40,226,25,63,350,658,54,63
51,225,25,63,339,675,61,69
51,226,26,65,326,624,53,61
53,229,24,62,326,596,53,64
57,225,23,60,318,556,55,64
54,219,23,61,208,535,57,65
48,219,21,57,221,565,65,78
50,214,21,54,222,550,72,85
45,224,23,50,201,541,72,84
44,216,23,46,200,550,70,84
47,203,22,42,190,514,67,85
49,209,23,48,181,472,54,65
47,213,23,48,195,512,49,60
49,193,20,50,199,497,48,58
46,197,19,52,206,488,50,55
48,221,19,54,220,549,49,70
44,211,19,53,236,562,48,73
44,207,19,53,240,534,41,76
43,213,19,54,250,562,39,79
43,201,21,55,240,556,37,81
42,190,20,53,228,516,39,68
40,186,20,51,198,510,34,63
38,185,20,50,172,504,33,54
43,174,20,48,151,486,32,59
52,204,19,48,159,530,44,72
53,230,21,53,177,571,44,76
62,249,21,54,201,591,48,82
62,243,22,55,224,615,54,83
61,250,24,58,227,622,61,87
60,231,23,56,227,606,54,81
58,209,23,51,228,586,52,78
48,183,23,51,217,549,52,71
48,182,22,50,328,520,47,75
43,166,23,49,654,496,39,72
40,172,22,49,665,478,37,68
50,181,22,52,716,456,40,68
51,190,21,53,821,477,37,69
53,193,23,52,844,478,35,71
57,199,21,50,654,474,37,64
55,213,22,50,648,463,35,63
45,191,22,47,590,455,32,64
50,198,21,46,444,507,32,64
48,226,22,48,316,599,35,53
49,250,22,51,268,648,34,64
45,267,23,53,258,665,42,65
48,267,23,54,245,658,44,60
45,262,22,51,223,586,46,107
47,238,21,50,195,463,49,115
47,206,22,48,167,376,50,119
47,185,20,45,160,347,46,119
42,192,21,51,190,349,51,125
40,205,21,54,202,386,52,93
39,208,20,58,233,439,52,87
38,218,21,61,264,447,55,74
39,198,20,63,270,452,57,72
43,194,20,64,269,464,51,65
42,187,23,64,264,451,54,61
43,184,24,58,240,422,50,68
46,183,24,58,219,415,47,68
48,185,26,59,206,385,50,71
51,183,25,53,181,367,64,121
55,177,24,52,174,359,66,132
57,187,24,54,180,346,70,131
55,197,25,58,170,372,70,138
56,198,24,56,166,414,66,141
57,207,24,57,177,413,53,102
54,198,24,57,188,431,49,86
56,197,26,63,232,474,57,93
58,184,24,58,235,460,59,86
54,176,23,59,241,434,60,77
48,160,24,58,237,428,60,85
51,178,22,56,226,413,56,86
49,172,18,50,200,380,44,76
43,171,20,48,209,409,39,70
49,172,21,45,219,407,36,84
51,177,21,51,225,410,33,71
48,171,23,54,234,442,34,70
45,187,23,55,229,454,35,74
46,186,22,53,219,443,35,77
42,186,21,53,202,447,34,70
39,185,21,49,193,461,43,71
38,180,20,47,192,428,48,70
43,224,20,46,184,465,48,62
49,228,23,51,215,476,52,71
49,233,22,53,210,475,55,69
49,230,23,53,218,457,50,67
50,242,21,53,224,488,51,69
46,180,21,54,219,440,47,69
41,192,21,54,216,456,43,56
39,184,21,51,231,472,41,68
42,187,20,49,230,498,45,75
40,174,21,54,231,514,39,75
43,191,21,58,257,547,43,80
43,181,20,58,243,519,43,89
43,183,21,57,236,507,40,80
41,191,22,59,229,496,38,74
40,184,21,54,212,450,39,73
37,168,22,51,171,391,34,69
41,161,22,52,165,409,41,69
43,154,22,54,166,396,42,62
46,172,22,55,169,408,38,63
45,182,23,55,183,427,40,67
49,199,22,52,186,442,39,68
48,219,24,47,181,438,31,68
61,231,25,47,195,479,40,80
62,214,26,45,201,456,46,80
66,219,27,48,194,453,43,79
65,211,26,49,199,469,47,76
71,187,25,50,207,466,47,75
58,181,24,49,213,502,42,65
55,185,22,52,219,532,40,62
52,182,21,56,231,551,40,66
53,182,22,57,239,570,42,92
41,188,22,57,253,587,47,92
41,189,22,56,233,537,51,95
40,187,21,54,220,539,53,105
41,177,22,49,220,530,52,101
35,175,23,47,205,486,49,78
39,179,23,45,178,475,46,75
40,176,24,53,197,487,40,77
40,190,24,52,212,462,37,67
40,187,23,57,192,453,52,69
42,176,21,59,200,483,52,65
47,176,22,61,211,494,49,63
46,173,21,54,207,486,57,83
49,148,20,55,195,544,55,85
50,151,20,52,207,585,45,83
53,163,21,53,208,611,46,85
52,167,21,52,208,614,50,93
53,167,21,52,212,637,42,71
54,176,21,53,218,621,50,79
52,183,21,54,255,652,46,80
59,184,21,56,249,642,57,78
57,193,22,53,235,649,58,68
55,193,22,54,226,632,59,63
55,198,22,54,218,622,55,51
56,218,22,52,168,575,59,52
43,218,22,47,161,566,48,61
46,202,21,51,170,561,43,57
49,202,21,52,166,563,42,63
47,186,22,53,162,549,38,77
46,149,23,51,162,534,43,84
48,140,26,51,178,532,46,79
47,131,26,51,189,523,47,82
51,138,26,51,193,532,50,88
50,143,25,50,203,547,52,83
54,174,23,58,230,564,48,78
53,178,21,64,223,583,50,89
56,227,23,65,218,595,66,92
90,245,24,69,248,633,67,86
95,267,24,69,257,652,68,75
94,254,27,65,229,650,71,78
99,260,25,63,227,623,111,88
101,221,24,58,217,602,107,85
76,219,25,54,179,562,109,96
80,206,25,56,156,521,111,101
79,200,23,61,157,498,114,100
73,184,24,58,167,518,79,101
69,193,24,61,176,537,80,105
61,167,23,58,176,542,81,96
56,153,21,59,186,558,82,103
63,173,22,55,190,560,74,112
66,188,22,57,196,567,68,104
67,190,22,57,190,570,62,109
76,202,23,57,194,574,59,117
77,227,24,55,193,567,57,105
73,233,23,59,203,615,59,100
80,230,21,58,199,614,79,108
82,238,21,58,205,621,79,103
76,233,20,63,216,628,85,125
85,209,22,68,214,640,83,132
88,195,25,65,211,606,89,132
81,214,28,66,211,605,73,120
77,206,30,65,205,606,73,119
87,201,31,62,195,580,70,87
75,206,30,55,203,568,74,87
76,210,29,52,193,558,73,87
79,187,27,51,184,533,83,93
81,194,26,52,199,518,81,108
71,196,26,52,200,509,87,111
73,190,27,51,186,502,90,106
74,181,25,52,202,517,84,110
74,183,24,54,203,517,74,105
71,172,24,57,196,522,74,97
74,183,23,58,197,548,60,98
68,176,21,62,208,555,52,96
71,186,23,68,289,548,52,85
70,201,23,66,287,570,52,92
72,200,23,65,278,574,52,92
74,192,26,66,278,561,57,95
75,214,27,63,276,562,56,95
75,211,27,56,174,563,70,116
74,197,27,56,178,541,77,118
75,196,28,52,196,526,75,110
68,197,26,49,184,519,73,104
72,184,24,53,215,573,70,104
65,185,24,52,213,555,76,86
60,192,23,49,211,547,72,76
70,193,20,55,225,543,78,83
67,181,21,54,234,542,74,77
63,172,21,51,211,481,75,74
61,165,22,51,216,488,58,68
64,155,23,54,234,504,72,65
50,148,22,50,214,499,68,55
54,166,21,53,208,506,81,70
62,175,22,53,216,515,79,72
73,200,21,55,220,533,78,92
77,197,20,53,213,529,62,93
86,199,21,51,224,528,60,93
87,198,22,51,230,511,57,101
83,200,22,48,215,493,61,102
82,172,24,48,207,459,58,91
78,169,26,47,197,444,61,91
65,173,27,54,187,450,65,96
70,168,28,53,183,466,54,80
71,166,28,52,178,479,58,85
64,173,28,51,186,500,59,75
70,179,27,56,191,516,63,75
83,189,25,51,189,518,57,68
85,194,25,52,201,519,65,83
85,201,24,53,206,527,64,82
87,206,24,59,214,538,67,83
82,219,25,58,222,515,87,84
89,201,25,60,232,497,89,87
81,195,25,64,236,487,93,79
82,217,24,65,240,452,90,76
81,211,24,62,229,434,90,75
82,190,23,62,236,484,68,71
63,190,24,65,220,487,72,70
61,212,25,61,211,494,58,61
54,179,26,60,206,538,61,62
50,170,25,59,202,540,58,76
44,183,24,58,175,509,57,79
39,220,22,58,204,572,50,75
40,223,23,62,211,608,51,74
39,224,23,63,218,597,47,68
39,224,22,63,227,596,55,59
45,217,24,62,237,598,56,77
48,204,23,57,240,559,57,84
51,186,21,54,237,530,56,85
57,183,21,51,229,512,56,86
65,195,20,54,237,503,51,85
64,205,20,57,249,543,52,67
61,188,23,55,247,534,47,57
61,196,22,57,242,522,45,57
61,212,22,63,242,547,47,60
53,222,22,62,231,576,44,65
52,220,22,58,215,577,41,70
53,232,21,59,199,610,50,80
50,220,21,61,197,625,56,78
46,210,21,57,188,620,53,72
46,197,21,58,189,622,56,63
52,196,22,60,190,602,61,68
50,185,24,62,184,576,62,65
55,204,23,60,191,585,67,81
57,208,23,61,212,576,72,85
65,242,24,61,225,563,71,87
64,240,22,62,248,588,72,94
64,243,21,64,267,598,66,105
62,222,21,63,285,601,56,96
62,211,23,64,286,633,52,94
53,164,24,66,310,648,52,96
50,168,26,68,288,641,48,84
51,165,25,69,274,642,51,61
50,171,25,67,253,618,52,57
58,210,23,67,243,609,55,56
66,215,21,65,203,614,53,59
65,222,20,59,203,583,49,55
64,223,19,56,203,555,45,57
69,226,19,57,194,571,47,69
62,204,20,55,195,551,39,69
58,207,21,53,192,521,40,69
60,194,19,52,200,522,43,75
67,195,19,53,303,537,49,74
60,192,19,51,359,520,48,68
58,180,17,51,358,514,53,79
53,174,18,52,371,516,52,84
54,186,19,52,388,526,49,79
48,196,20,49,327,524,39,83
49,196,21,53,287,555,42,79
49,212,22,57,304,589,46,74
60,218,24,56,296,600,66,73
65,232,23,61,271,597,72,80
67,221,23,63,254,597,92,85
72,225,22,62,240,568,99,88
76,275,22,61,230,588,107,88
67,308,23,61,228,612,97,81
75,302,23,60,224,609,94,79
78,305,22,62,223,592,87,76
83,313,22,62,206,573,84,76
80,270,21,57,184,491,70,77
87,233,18,63,172,409,82,79
82,227,19,59,192,391,85,78
85,223,19,63,186,386,72,76
80,213,19,68,230,405,72,90
86,218,22,71,241,413,73,87
81,231,22,70,249,426,86,101
79,230,23,83,263,463,84,110
71,227,25,79,265,478,87,117
74,230,25,77,247,458,94,110
68,226,24,75,243,456,92,112
69,219,24,74,237,451,75,104
73,208,23,64,210,400,103,101
75,222,22,66,213,394,101,93
71,213,21,63,216,407,91,86
84,204,21,71,216,465,90,93
94,212,21,68,209,512,92,93
93,252,20,64,204,520,67,92
93,238,21,65,200,511,68,99
94,265,21,65,183,504,72,99
85,270,21,60,177,445,78,97
79,266,22,71,171,370,72,103
70,227,23,71,178,344,67,101
72,236,22,68,176,343,66,95
70,204,25,79,175,336,67,95
71,191,25,76,183,331,61,88
63,173,23,67,198,350,59,74
70,189,23,70,201,375,55,65
71,185,24,72,207,384,54,63
71,202,25,61,221,406,43,59
72,218,27,65,214,415,45,60
78,223,28,64,211,408,46,69
77,213,26,60,213,430,68,94
87,208,27,56,204,422,73,101
84,183,25,54,183,384,74,101
83,175,22,52,187,395,76,104
76,177,21,52,181,397,83,99
74,194,23,51,164,401,69,91
59,198,22,53,170,481,65,84
64,218,22,58,180,513,69,87
68,217,24,59,183,520,71,90
69,210,24,57,187,534,62,107
67,205,22,61,202,519,64,104
73,218,23,65,207,464,67,105
77,231,21,63,203,476,63,105
70,224,21,64,208,444,58,99
77,236,19,66,209,442,57,79
116,255,20,69,210,460,58,69
120,242,19,65,202,427,53,64
121,224,20,61,202,393,59,63
125,236,20,58,207,443,60,70
124,235,21,55,195,421,62,78
95,209,20,49,192,402,61,95
89,205,22,50,190,433,66,102
89,207,24,51,186,435,62,103
86,194,25,55,170,412,64,101
79,167,23,55,178,439,61,94
75,161,25,56,166,421,57,83
70,175,23,53,172,419,52,75
63,162,23,52,194,437,49,79
57,156,21,48,190,415,44,75
60,174,22,48,190,451,43,76
67,189,22,49,214,513,41,68
65,172,24,50,224,506,38,66
70,190,22,54,235,549,41,62
71,196,23,58,257,615,37,65
72,187,22,59,274,618,42,67
60,195,23,59,273,612,42,78
59,280,21,60,266,707,43,78
58,281,20,60,241,707,47,78
58,282,23,54,213,685,53,78
56,286,23,58,208,659,50,73
60,276,23,56,187,651,50,76
68,212,23,55,182,569,51,76
63,201,23,60,183,526,53,79
69,210,21,60,185,516,61,88
69,208,20,53,160,533,71,97
84,211,19,57,177,541,85,104
96,216,20,61,184,579,87,110
97,211,19,53,200,608,86,106
91,206,19,54,222,629,78,96
92,205,19,57,256,643,69,88
89,214,19,52,244,636,51,71
71,195,18,53,261,643,44,62
71,198,20,54,264,627,39,66
73,192,22,56,259,617,49,68
78,206,23,58,225,618,58,76
66,192,25,60,221,628,57,76
67,198,26,56,193,604,57,75
64,198,27,54,166,604,57,71
67,196,27,53,157,611,58,73
59,183,26,47,153,595,59,96
61,174,25,46,154,565,62,99
58,159,24,52,148,543,69,109
57,186,22,51,153,527,76,109
54,187,21,51,161,499,72,110
63,182,22,51,166,486,68,85
60,195,21,54,209,531,70,78
60,201,21,54,226,535,69,69
67,181,22,59,251,558,69,78
64,188,21,61,254,579,66,74
66,211,22,63,264,616,64,84
68,226,23,63,256,609,62,87
70,226,23,58,264,617,60,83
66,221,24,57,240,624,55,81
78,225,24,58,227,609,60,91
79,245,25,58,216,576,61,78
76,220,23,59,192,548,62,74
76,222,24,58,168,522,70,94
75,219,24,59,172,497,78,92
68,208,25,57,164,515,74,86
65,177,24,59,162,495,73,92
66,184,25,57,155,522,70,88
62,192,24,61,177,546,61,66
70,211,24,60,197,598,59,74
70,231,24,59,225,626,62,75
66,232,24,56,236,660,61,70
65,229,24,57,266,645,75,74
87,246,23,58,262,688,82,87
84,238,22,55,260,674,78,78
95,225,22,61,250,640,75,100
106,265,22,68,248,643,83,97
107,287,24,69,224,653,71,95
101,278,25,64,216,606,71,95
100,301,27,63,198,583,71,94
88,307,26,59,205,590,69,63
79,268,24,50,193,560,62,69
88,270,24,47,197,568,71,78
77,257,24,51,192,570,70,73
76,232,21,54,195,558,83,83
82,218,23,55,185,539,89,86
84,216,25,56,191,548,89,94
78,184,22,57,181,520,81,94
79,194,23,53,187,513,87,96
84,194,24,56,185,527,72,90
80,194,23,56,196,547,67,85
71,196,22,55,210,555,68,72
79,212,22,60,211,569,76,87
88,215,21,64,213,562,62,86
81,201,21,63,223,556,60,91
79,196,22,65,217,553,59,91
81,200,22,66,208,543,59,95
80,193,24,68,208,535,59,80
71,174,24,70,199,539,60,77
71,178,24,68,190,533,70,80
80,193,25,67,191,520,73,83
87,189,24,67,175,526,73,101
79,202,24,64,170,550,70,99
99,216,23,63,185,572,66,98
102,231,24,67,179,579,57,100
100,230,25,64,168,560,51,99
91,231,26,64,187,555,49,81
93,212,24,65,192,521,50,89
66,216,23,59,189,476,51,86
69,238,22,59,237,467,51,83
64,226,22,61,237,497,53,91
69,234,21,60,238,507,62,86
64,242,20,59,251,517,57,88
84,260,21,62,244,542,57,95
86,236,21,65,224,558,58,91
88,256,20,64,226,563,61,88
92,249,21,66,239,578,52,95
105,255,24,64,227,571,53,100
96,237,24,67,226,554,57,94
94,236,23,60,208,532,54,97
101,237,24,59,215,503,59,103
96,232,23,61,190,454,58,96
79,236,22,65,184,466,55,81
73,226,22,65,187,469,53,85
72,220,22,67,200,462,56,82
65,210,21,68,192,480,63,75
64,207,23,65,188,498,64,82
70,185,22,63,197,481,65,83
104,182,22,61,551,482,69,86
116,197,23,61,791,496,75,83
123,194,24,69,842,477,61,81
127,210,20,91,845,456,59,81
126,224,20,130,851,459,56,81
110,234,20,165,684,441,59,93
119,237,18,170,438,465,55,96
110,229,19,172,337,466,60,91
111,214,18,179,346,486,60,90
115,254,21,203,478,519,67,101
111,244,22,188,484,534,61,89
100,234,24,192,715,517,56,93
105,238,23,227,747,540,51,100
111,244,24,221,751,530,54,110
109,212,22,185,668,501,45,100
104,215,23,202,663,525,42,99
96,207,22,209,335,533,43,97
92,204,21,197,245,515,56,99
88,203,22,239,231,540,58,98
88,177,23,276,252,534,59,100
92,173,21,263,340,498,62,108
97,203,23,319,366,526,58,110
97,217,25,331,372,525,49,122
92,206,25,309,370,510,44,117
90,211,24,277,363,545,42,113
87,206,25,274,284,556,37,103
76,172,24,200,521,516,38,97
69,175,23,148,588,541,42,89
67,179,23,138,658,535,41,91
69,192,23,139,665,491,42,91
77,197,23,133,693,493,45,110
75,199,22,129,529,488,50,115
74,198,22,134,451,441,43,100
90,238,23,195,392,452,47,109
101,242,23,200,464,454,48,110
102,246,22,209,423,445,46,98
109,257,22,217,417,465,45,96
110,256,19,223,422,483,45,98
100,226,20,175,370,480,41,89
85,213,20,176,258,532,41,89
81,210,21,170,249,543,49,87
91,243,22,165,238,546,50,93
106,253,22,150,230,574,50,92
102,245,21,132,216,572,48,82
99,248,23,110,194,537,47,81
93,252,23,98,232,526,40,73
80,200,23,83,228,501,36,59
77,184,24,80,218,451,37,66
82,187,25,87,248,440,36,70
88,178,22,84,281,443,38,89
89,183,22,88,255,432,36,86
101,204,21,99,298,436,35,88
92,202,20,107,350,459,36,95
87,209,21,102,348,453,37,94
82,211,20,103,328,441,40,80
79,206,20,97,326,448,43,83
61,202,22,91,309,469,53,94
60,224,21,81,264,472,53,84
67,219,20,81,241,513,60,85
82,223,22,87,251,538,62,81
84,225,21,88,326,553,65,85
84,214,20,77,324,554,69,75
89,194,22,73,319,542,87,89
93,200,22,68,327,502,85,90
82,193,20,62,325,478,81,101
82,281,22,78,273,572,80,101
83,335,22,87,269,608,72,99
72,346,20,92,268,631,47,86
75,353,23,93,276,629,44,90
74,362,23,94,279,617,47,77
75,307,23,82,268,511,41,76
95,257,22,74,265,437,64,79
95,245,22,71,271,379,65,76
93,229,22,77,260,368,66,69
98,221,22,74,253,380,65,69
98,251,25,78,263,408,66,62
101,285,23,81,276,439,46,54
110,287,25,86,310,496,42,55
106,293,25,82,315,542,45,81
108,309,25,81,318,552,49,87
109,286,25,78,304,524,46,90
97,264,26,77,288,489,41,92
114,279,25,75,239,440,45,92
151,313,26,83,234,391,50,76
157,281,25,82,213,375,45,70
160,290,25,79,203,376,66,78
166,284,26,77,219,387,71,87
157,276,28,76,241,381,74,88
132,293,25,63,227,372,74,91
123,313,25,65,238,354,84,94
122,300,24,63,243,336,75,86
107,324,25,61,231,308,70,91
97,314,24,53,208,324,69,93
79,262,24,57,213,319,68,84
74,238,24,57,213,331,56,92
66,230,23,57,204,344,47,89
59,191,20,56,206,367,48,77
61,201,21,58,221,368,43,76
61,187,21,55,249,426,33,75
82,234,21,57,248,439,34,57
88,232,22,57,246,449,41,68
84,238,22,58,237,482,51,73
89,235,21,60,244,486,49,72
89,237,21,56,204,447,50,73
78,210,18,51,205,458,60,72
74,209,19,54,205,440,56,61
76,190,20,48,234,405,46,48
67,184,20,45,225,405,49,54
72,195,22,51,231,398,52,58
76,199,22,51,232,404,43,60
85,260,23,50,234,432,50,68
89,297,20,55,202,439,51,70
92,310,20,58,196,456,61,83
87,312,21,56,204,485,60,83
85,321,22,57,214,459,69,82
84,289,22,58,215,448,74,97
85,258,23,58,267,499,76,109
89,245,24,57,267,476,77,96
92,245,24,60,280,458,76,96
99,249,24,60,286,461,67,97
101,240,22,58,305,453,56,79
96,233,24,58,270,417,56,93
131,260,25,59,544,430,47,98
137,267,25,65,578,436,48,103
132,245,24,66,600,468,51,103
130,243,25,67,586,495,50,104
152,266,23,75,585,527,49,84
122,231,22,74,342,533,47,91
118,218,21,64,270,542,47,87
139,226,21,64,192,568,48,94
133,223,22,67,201,538,59,104
114,198,23,55,213,495,62,111
133,214,21,59,216,538,62,104
134,214,21,62,213,554,62,103
106,208,22,63,223,552,61,95
113,207,21,61,223,588,53,96
119,229,20,60,207,608,47,84
96,213,21,71,205,564,46,75
89,196,21,68,194,545,43,73
90,209,21,66,188,520,37,72
86,212,21,64,192,499,31,48
71,183,20,66,193,465,30,43
64,183,20,53,187,469,25,43
75,193,20,56,197,473,23,44
99,178,21,59,192,462,24,70
103,179,20,59,191,481,24,72
104,188,21,59,201,521,21,71
122,212,23,61,214,581,26,88
163,230,22,66,231,618,29,131
211,238,21,63,246,647,30,190
239,239,22,67,246,686,32,206
295,296,24,81,243,683,33,218
329,357,25,87,263,660,32,244
350,383,26,82,258,669,35,266
364,464,28,93,240,670,42,227
405,577,34,112,258,649,54,243
396,573,34,108,260,661,61,258
439,543,33,108,231,644,69,362
518,528,34,114,209,605,70,489
556,460,35,105,212,604,69,517
537,309,29,83,176,620,64,522
523,261,27,74,163,656,57,521
466,230,27,65,165,678,43,446
347,198,25,54,160,683,39,272
224,191,21,51,176,659,40,236
164,173,21,51,178,602,34,204
168,176,22,51,171,536,34,179
161,191,25,48,189,533,44,162
143,208,25,50,216,534,44,158
130,209,25,51,227,538,41,148
121,222,24,54,248,587,40,129
71,223,24,58,278,635,40,125
60,218,20,63,281,647,30,123
59,227,21,64,281,674,28,114
69,226,20,66,275,715,29,79
74,228,22,65,258,716,34,106
79,225,23,60,231,684,35,112
75,214,21,53,210,648,35,108
73,207,24,51,183,612,36,104
61,203,25,57,159,572,33,104
54,194,24,55,179,602,30,80
46,192,23,56,180,609,29,71
70,191,26,61,178,628,30,75
73,174,23,66,186,637,27,71
71,158,21,56,192,626,25,54
75,145,20,57,173,593,31,81
74,137,19,58,185,582,31,83
59,138,18,54,200,567,33,94
53,137,20,46,209,563,34,96
65,149,22,53,220,559,35,103
60,160,21,54,238,546,28,88
63,162,22,56,238,541,30,90
57,162,24,58,239,553,28,74
64,174,23,57,239,569,29,82
56,164,24,54,224,571,28,78
57,171,27,54,214,560,27,69
54,169,27,53,204,555,25,62
54,162,25,54,184,542,26,57
53,170,26,58,175,515,29,43
52,183,25,57,177,513,38,75
51,177,23,55,158,505,39,87
52,178,22,54,162,479,40,94
51,205,24,52,164,518,41,95
55,186,22,49,161,522,38,94
70,186,22,49,160,545,28,94
70,186,21,49,184,576,27,84
72,185,21,49,180,623,25,78
77,154,19,48,202,626,29,89
77,168,18,47,231,645,28,93
62,160,17,49,235,663,29,79
64,157,19,52,237,656,28,77
60,172,21,56,253,644,27,76
56,179,22,55,238,614,21,65
55,166,23,56,208,587,25,82
53,171,24,55,205,571,25,70
50,168,23,52,181,559,25,70
50,153,22,48,151,543,25,72
46,147,21,52,160,552,25,71
36,143,21,50,172,552,24,54
47,136,22,49,178,511,25,54
48,139,21,48,197,499,26,53
47,133,23,47,197,506,26,49
47,150,22,48,195,475,25,51
46,153,21,48,204,466,23,44
41,153,19,52,194,466,26,49
41,154,18,55,179,476,25,51
47,163,18,57,203,471,27,55
48,147,19,54,200,494,31,78
49,146,19,58,199,514,32,77
50,158,19,54,222,529,30,75
48,155,20,54,224,566,30,75
42,174,18,60,214,566,27,74
43,181,18,60,214,551,22,47
43,183,19,57,207,551,22,57
45,179,20,59,192,531,27,76
53,186,21,59,202,468,27,78
53,183,22,53,202,462,30,80
51,196,22,51,201,462,29,79
49,192,22,57,206,441,31,78
51,189,23,56,207,467,25,71
43,183,23,55,201,485,26,70
43,171,22,55,189,484,23,69
44,164,25,57,191,503,24,70
53,166,23,55,190,503,22,63
54,171,22,56,201,509,24,56
56,175,22,61,212,504,23,52
58,179,21,63,222,502,24,55
58,173,19,63,225,474,23,56
49,175,23,63,245,482,25,71
43,178,22,62,244,466,23,67
37,178,21,57,236,464,23,72
35,166,22,54,235,501,23,68
41,162,20,55,235,522,23,76
40,156,17,51,209,513,20,59
38,139,17,53,201,531,22,63
38,135,18,50,198,532,22,63
47,142,20,50,248,487,22,68
41,148,20,47,242,498,22,58
45,187,19,53,248,551,23,61
44,193,21,55,247,558,19,58
45,199,21,56,252,583,19,50
35,210,19,53,206,605,17,53
44,205,20,58,213,586,21,67
41,177,20,60,212,569,21,65
41,177,21,73,228,581,21,63
52,184,21,77,231,577,24,65
53,172,22,82,238,596,24,56
50,180,21,82,255,620,20,40
58,184,25,80,252,604,29,59
59,187,24,65,257,601,29,60
81,184,24,67,264,592,28,62
80,186,25,62,256,571,28,63
88,188,24,60,233,589,29,67
86,189,22,59,235,610,24,74
88,208,24,61,215,604,34,85
72,213,24,54,204,625,36,90
77,217,22,53,208,628,39,110
66,218,24,53,227,600,44,128
64,213,23,50,228,601,43,119
63,194,24,51,227,609,37,112
51,186,24,51,232,594,35,107
47,192,24,56,239,603,31,87
46,192,23,53,244,618,25,53
62,198,24,55,263,609,26,59
57,205,22,55,274,608,24,56
58,196,22,56,288,625,26,66
65,188,23,54,296,624,31,75
65,191,22,56,281,624,30,76
59,179,23,56,258,616,33,71
59,182,21,54,242,592,35,84
59,203,20,55,225,575,36,86
50,205,19,53,200,565,34,87
65,199,22,56,187,533,35,86
59,210,20,57,189,523,32,80
60,201,22,60,184,514,29,69
61,187,23,57,185,519,32,66
61,192,22,57,190,531,29,67
45,190,21,56,198,546,28,69
59,189,21,54,195,525,27,74
59,181,20,51,227,533,28,75
58,176,20,51,213,501,22,74
58,166,21,52,228,482,22,62
59,165,19,51,345,472,22,57
56,165,22,57,348,507,21,57
55,180,22,57,333,498,22,59
53,181,22,60,338,502,27,47
58,190,21,60,329,492,26,55
62,190,22,61,201,476,24,89
56,229,20,58,259,571,27,89
57,248,20,59,267,608,27,88
58,280,20,57,256,616,26,91
55,287,20,54,250,612,26,91
55,283,19,51,260,602,29,60
48,254,19,45,212,484,28,60
53,226,19,46,206,410,29,62
57,186,19,47,211,398,26,57
56,170,20,52,223,401,26,59
58,171,22,52,218,404,31,67
59,174,22,53,220,414,29,65
57,183,23,51,222,439,28,60
56,180,23,51,230,418,28,60
61,177,24,51,244,429,29,52
59,180,23,53,247,436,20,40
61,179,23,55,273,425,23,49
61,171,23,55,265,450,21,52
61,181,21,54,271,480,23,62
67,178,22,51,247,462,25,79
62,187,22,60,246,477,29,79
65,188,22,60,207,480,32,74
65,188,22,63,198,429,33,73
63,188,22,60,175,392,34,64
56,199,22,60,188,382,34,42
64,199,22,49,173,341,32,59
58,200,22,44,279,318,29,56
55,219,23,39,835,339,28,56
55,210,23,43,869,347,29,60
61,197,22,41,1003,348,30,66
58,187,22,42,1112,364,30,65
60,174,22,46,1139,375,28,64
60,157,22,48,852,389,26,63
59,168,21,50,831,428,22,61
55,182,20,56,670,467,19,59
64,179,20,58,478,517,21,49
65,184,20,59,346,549,21,58
68,183,20,61,275,542,23,63
69,172,20,58,236,522,24,63
77,164,22,55,203,503,28,72
68,171,22,51,187,458,26,68
69,162,20,47,173,423,30,62
66,151,21,39,166,434,28,59
66,151,22,41,165,410,27,83
56,139,21,40,168,380,27,77
59,135,20,43,170,372,26,78
58,146,22,46,187,370,23,82
62,152,20,49,189,389,22,85
63,157,21,49,198,429,23,63
60,160,22,46,216,450,22,69
56,157,21,48,221,488,22,71
58,158,21,47,225,512,21,68
56,154,21,49,244,487,21,64
55,143,20,50,244,466,21,66
51,155,21,52,236,475,19,51
53,178,21,54,234,451,24,88
51,173,23,55,221,448,26,88
65,174,25,53,209,446,26,88
69,179,24,53,193,436,27,88
69,168,24,52,186,423,37,94
64,143,24,48,183,435,34,58
63,149,21,46,175,422,32,61
48,144,17,50,170,424,34,58
46,146,19,51,184,453,36,57
61,148,19,55,198,442,26,49
64,143,19,54,194,486,26,61
65,139,20,54,216,484,29,60
67,145,23,50,212,476,29,64
86,146,22,47,219,471,29,73
93,159,23,44,222,502,31,75
114,163,24,48,233,474,31,65
113,158,23,47,231,499,28,61
113,157,20,49,247,522,29,58
99,155,22,55,244,545,26,69
86,153,21,56,233,553,24,70
54,157,21,54,224,550,24,73
52,155,23,56,210,545,24,74
46,150,26,55,192,528,26,75
41,160,25,53,192,516,24,53
35,138,25,49,194,523,25,63
38,143,23,49,188,516,25,64
43,153,23,49,200,497,26,64
42,150,21,49,201,557,24,66
46,140,20,46,196,570,27,70
48,154,19,47,192,566,25,57
43,141,20,45,192,575,26,56
50,139,18,48,183,599,26,55
56,148,18,48,188,564,24,66
52,138,19,48,189,558,24,69
53,137,19,50,191,543,29,76
56,143,17,59,207,557,28,74
47,131,17,57,215,552,29,76
46,134,18,56,218,557,29,64
49,154,17,58,222,582,27,62
49,156,18,54,219,593,22,65
47,153,20,44,206,587,25,77
50,163,20,44,190,593,25,77
49,160,22,43,190,602,28,80
51,149,22,39,184,583,27,77
48,142,22,47,192,586,33,67
49,139,22,46,197,569,31,50
44,147,22,47,200,552,32,44
41,144,21,48,199,540,30,48
37,140,20,51,200,522,29,47
38,141,20,47,199,508,22,47
37,148,21,48,198,530,24,55
38,133,23,48,215,548,23,55
36,149,23,50,225,557,21,49
32,156,23,51,240,594,27,59
36,202,23,51,255,612,28,60
37,214,24,53,271,616,28,59
40,217,23,51,256,617,27,65
40,209,24,50,245,597,27,63
41,218,24,47,221,603,24,62
36,180,24,47,197,574,24,65
41,156,23,42,162,546,24,62
41,155,24,39,170,521,23,58
43,155,24,40,171,537,23,55
40,135,24,41,179,488,21,50
40,135,26,41,186,497,19,48
37,153,25,46,216,517,18,48
35,148,25,50,213,529,19,46
34,164,24,50,222,519,21,49
34,165,24,51,236,544,20,43
32,162,22,50,242,547,22,40
40,156,22,48,235,550,24,51
53,153,20,47,246,553,25,56
54,139,19,47,252,560,27,58
55,150,20,48,249,560,29,60
59,157,19,50,259,617,27,57
54,154,18,49,255,607,26,49
50,173,18,48,244,607,29,46
51,174,21,52,221,607,24,61
52,172,21,48,208,588,23,63
51,166,22,44,181,522,29,76
52,164,22,46,168,525,30,76
44,153,24,48,161,513,27,76
46,153,24,43,179,505,30,61
45,152,23,46,173,516,33,84
42,151,23,47,179,524,27,74
37,149,24,47,189,530,26,74
43,142,22,45,196,537,27,74
44,135,22,46,197,544,25,73
48,133,23,47,214,538,22,46
50,128,22,48,220,546,23,43
51,139,22,51,237,547,23,45
49,147,21,52,258,565,23,54
53,149,21,53,272,574,28,66
50,155,21,56,275,571,27,61
47,160,22,55,268,570,27,61
50,150,21,54,253,557,26,60
46,155,21,53,229,538,25,50
39,156,21,52,204,534,24,37
38,152,20,49,184,532,24,45
45,158,18,49,184,528,24,47
55,177,17,49,187,526,25,46
57,169,19,46,184,524,24,45
59,165,19,46,191,514,18,44
58,162,19,41,197,513,20,36
57,160,20,42,195,511,19,34
61,151,21,44,193,503,18,35
68,164,19,47,206,503,19,36
69,165,20,49,205,509,19,31
79,171,21,55,211,504,20,35
87,178,21,56,229,504,20,36
89,177,23,54,229,528,21,35
83,181,23,59,246,536,21,32
94,186,23,63,250,525,22,34
100,181,22,60,240,523,21,31
115,177,23,62,222,497,21,37
114,173,22,61,231,477,25,38
124,163,22,56,197,466,23,39
131,154,20,53,198,455,25,45
143,169,20,54,204,440,24,46
132,167,21,52,200,467,24,41
133,176,22,53,185,469,19,41
126,172,24,53,202,463,23,43
115,177,24,53,194,481,21,40
90,168,24,50,195,496,23,37
83,165,23,50,206,472,24,37
72,158,23,50,210,464,25,32
71,160,21,50,212,455,23,30
67,163,23,48,226,432,22,31
64,161,22,48,230,430,22,34
60,164,21,47,224,436,21,34
59,163,19,49,232,421,22,35
53,174,22,50,235,458,22,34
49,175,22,52,223,488,23,31
50,179,22,52,226,490,23,36
58,186,24,55,233,519,22,37
64,205,23,55,236,583,21,38
68,194,22,54,227,596,19,37
70,208,21,57,234,619,19,34
78,205,21,60,246,641,28,29
73,193,21,57,258,628,29,31
69,164,21,54,244,607,29,33
67,170,20,54,258,594,30,34
61,159,18,50,258,574,31,36
46,165,18,48,251,572,24,36
45,165,18,49,238,569,23,37
43,164,20,53,244,545,22,33
39,166,19,52,233,542,21,37
66,155,19,50,229,533,23,41
69,166,18,49,228,521,21,39
75,186,18,47,241,548,25,47
75,203,20,46,242,556,26,49
87,203,20,47,243,543,26,46
70,212,23,47,241,544,24,45
70,197,23,47,226,540,28,45
62,189,25,50,208,512,24,35
59,176,21,48,200,498,25,36
41,166,21,48,190,500,28,49
36,155,20,48,183,489,30,52
30,158,21,53,190,473,28,53
37,150,19,53,203,472,29,56
39,154,20,56,204,489,41,64
38,160,20,56,206,488,38,65
40,163,20,60,210,508,37,63
44,166,19,66,204,540,39,68
72,192,22,117,217,564,47,79
74,190,23,123,217,571,39,75
83,186,24,129,230,584,43,93
113,189,23,133,252,592,48,114
115,201,23,143,267,588,49,127
101,191,22,107,254,571,45,129
106,194,21,100,250,557,42,131
105,199,22,98,240,546,40,117
85,200,22,92,229,505,35,100
78,193,22,72,221,480,40,80
74,177,22,71,217,468,38,64
64,173,22,71,219,452,41,57
61,177,22,68,229,432,39,53
66,170,22,69,220,446,38,53
70,166,21,64,211,440,29,50
79,168,22,68,212,438,32,67
80,171,21,72,218,453,30,70
90,170,20,68,205,439,29,74
77,171,20,65,211,440,30,73
76,170,21,66,228,462,30,79
67,167,20,63,243,450,25,69
67,169,21,63,259,439,25,68
51,156,21,62,268,463,25,65
46,163,22,64,282,475,25,86
42,169,21,64,271,444,25,102
44,232,22,61,262,493,24,101
44,273,21,59,246,559,23,112
49,307,21,58,252,578,24,115
61,302,20,51,229,548,28,101
91,302,21,50,237,548,28,87
95,264,18,56,247,494,28,93
101,216,18,51,250,412,29,88
107,172,19,55,246,370,29,83
103,177,18,59,255,369,26,81
81,165,19,61,248,349,30,79
82,163,20,53,224,369,30,78
72,166,20,54,224,358,30,71
62,162,20,52,224,360,30,73
57,166,21,51,235,445,28,73
56,187,21,58,240,467,23,67
49,205,20,60,261,478,25,60
49,238,21,62,276,519,23,62
46,250,22,60,268,504,23,67
56,253,21,61,246,437,25,68
52,246,20,55,230,442,26,67
52,231,20,53,203,421,25,63
51,204,20,48,194,368,27,62
52,190,18,48,190,373,27,67
41,181,20,45,188,367,26,67
48,168,22,42,195,350,26,73
46,170,21,45,198,355,26,75
44,161,22,48,174,349,29,73
44,161,22,49,188,337,30,68
45,158,22,48,196,338,34,75
39,175,20,53,199,323,34,72
41,162,20,56,206,324,37,67
46,170,19,55,217,370,34,69
48,183,20,55,223,387,35,71
48,184,20,57,239,412,30,65
54,174,21,54,258,453,33,72
55,184,22,53,276,457,28,73
54,184,22,54,268,446,29,72
50,171,23,53,258,447,26,82
52,182,21,52,243,439,27,79
47,175,20,53,222,417,23,73
55,180,20,53,193,422,24,81
61,182,20,51,196,417,25,86
61,181,19,49,183,410,25,73
62,164,20,51,175,407,27,86
62,170,21,49,176,398,30,86
55,159,19,43,182,393,31,80
64,163,20,49,191,389,30,72
82,173,21,50,196,393,30,78
82,182,21,49,210,408,30,63
111,186,21,53,217,423,28,65
120,186,22,54,217,410,30,66
113,185,22,50,217,403,32,77
114,174,20,52,224,440,30,68
113,178,21,58,237,468,30,67
92,175,22,58,260,469,29,63
83,183,21,63,258,483,27,64
87,170,22,64,259,483,25,65
72,169,23,64,256,460,24,67
82,166,24,57,236,428,23,70
73,163,22,55,202,458,24,70
74,158,23,48,199,442,23,67
65,156,23,48,188,448,28,75
68,156,23,46,175,461,28,95
61,150,21,50,167,445,29,97
64,159,23,51,190,424,30,98
65,163,22,52,206,443,31,114
69,169,23,51,204,485,26,100
66,186,23,53,223,490,28,85
71,187,23,54,221,521,28,81
70,176,23,54,211,523,29,78
77,176,22,55,229,543,35,67
84,182,20,55,241,525,35,70
84,182,21,54,228,533,36,62
91,188,22,57,252,543,34,61
111,212,22,56,241,568,33,77
110,215,25,59,224,547,26,67
105,212,25,60,211,535,27,69
119,204,25,64,244,562,24,71
111,195,25,60,230,541,31,76
95,180,24,62,238,524,30,77
87,165,22,63,230,557,29,81
87,165,21,70,235,571,29,79
77,174,22,64,209,547,30,77
80,176,20,61,208,597,26,75
75,176,20,73,202,587,26,90
97,196,20,76,209,587,24,87
101,190,22,73,209,672,25,89
99,180,21,76,198,704,27,93
106,191,22,78,211,675,25,104
110,183,23,71,221,668,26,78
116,195,25,69,219,647,26,77
114,203,24,68,222,573,26,77
125,196,24,67,230,538,29,86
118,186,24,65,215,532,29,75
115,194,23,61,210,600,29,75
90,170,21,60,202,609,31,74
88,164,21,55,196,600,30,72
72,172,21,59,192,588,26,57
70,176,21,64,192,585,26,60
67,176,22,61,176,551,25,70
68,178,23,55,185,549,25,77
75,176,22,59,190,529,26,77
71,176,22,52,188,543,28,83
69,177,23,53,194,568,27,77
73,163,21,54,202,555,27,77
74,165,21,56,202,557,26,71
62,163,21,54,196,556,25,70
72,160,22,54,197,587,22,66
79,168,20,54,211,586,24,66
80,179,22,57,231,606,27,56
78,177,21,58,228,612,29,60
85,175,20,57,232,617,31,63
84,179,20,60,229,576,32,66
87,171,20,58,216,543,33,65
90,177,19,57,197,509,34,70
91,201,20,55,202,521,35,74
96,214,22,62,195,526,36,100
91,225,23,60,200,539,37,110
83,224,24,60,193,563,40,122
78,218,24,58,189,569,43,125
80,195,23,57,186,550,42,126
72,188,22,59,194,568,41,109
68,166,20,57,205,556,39,97
70,175,18,55,220,552,36,82
69,180,20,61,232,562,31,73
67,175,20,68,241,552,30,61
61,174,19,63,236,532,29,61
63,180,20,64,222,550,31,60
64,169,21,69,233,554,28,55
60,175,20,71,243,560,27,55
61,204,21,67,228,588,26,56
78,200,22,66,228,596,25,47
76,223,22,70,233,577,27,46
86,232,22,63,200,568,27,52
89,224,24,57,168,534,28,51
94,202,23,56,168,503,27,48
84,197,23,60,165,508,31,54
83,165,24,52,155,506,28,58
69,160,24,53,166,503,30,68
72,167,21,52,171,512,29,72
65,165,22,53,177,522,31,73
69,173,22,53,231,564,28,71
70,174,20,55,239,559,27,68
67,174,20,55,254,564,28,65
62,177,21,58,273,584,27,61
67,178,20,57,274,585,27,64
57,199,20,67,254,554,27,61
62,215,20,69,273,565,29,63
62,217,21,70,259,573,30,55
68,210,22,68,243,557,30,54
70,242,23,70,253,564,29,56
80,220,23,57,231,554,29,59
75,216,24,59,206,566,27,57
77,222,22,57,211,558,26,55
77,226,21,56,202,553,23,56
78,205,19,50,187,545,25,54
70,216,19,52,191,534,26,56
67,215,18,45,184,515,25,54
67,206,19,51,178,507,25,60
68,202,19,51,196,506,26,58
68,201,19,56,201,512,27,65
67,205,21,53,203,516,26,61
67,202,20,60,221,528,25,61
65,203,20,59,234,537,25,53
62,197,20,60,243,549,26,57
53,202,23,57,259,566,23,49
52,206,22,60,288,597,24,50
54,222,24,61,297,615,25,50
54,235,23,62,286,635,24,48
59,246,22,62,269,645,28,56
55,234,20,60,247,616,30,57
54,233,19,57,216,574,29,68
56,220,18,51,182,521,29,71
69,225,21,49,176,479,29,72
62,227,22,51,184,441,29,68
65,223,22,49,180,455,27,72
70,228,22,50,172,469,27,61
68,239,22,53,209,486,28,57
57,227,21,56,219,499,32,63
64,224,21,54,213,498,32,59
68,238,21,60,239,475,32,55
69,225,21,61,248,477,33,58
68,231,20,61,238,487,32,65
84,237,18,58,245,470,27,61
81,236,18,57,252,492,22,58
75,238,18,55,240,543,21,53
81,236,17,53,246,531,19,56
90,222,20,50,231,540,19,50
74,211,21,57,224,545,21,47
76,207,20,59,215,535,22,48
80,197,22,57,204,509,23,66
70,206,22,60,188,512,30,66
67,196,20,61,191,480,31,76
70,224,19,55,196,488,29,79
66,221,20,56,202,483,28,79
59,222,18,59,204,470,29,74
63,224,18,57,208,474,22,74
58,231,19,55,210,503,22,69
52,207,19,57,213,499,22,68
54,215,20,56,213,507,22,70
61,213,21,55,218,515,29,64
57,209,22,57,216,522,28,56
64,200,22,55,222,518,28,49
73,198,23,52,224,526,29,44
73,199,23,51,231,527,28,44
67,217,22,50,261,526,20,45
66,216,22,47,266,510,25,45
59,221,21,50,259,520,25,58
55,220,19,47,249,519,26,60
52,214,18,48,240,524,27,58
54,198,18,50,205,530,28,59
55,194,17,49,186,542,24,64
59,199,18,48,190,529,24,56
72,188,18,50,195,517,24,58
71,190,20,54,197,505,25,69
75,188,21,50,197,503,25,68
77,186,21,54,211,497,26,75
75,183,20,55,220,498,27,79
62,190,20,57,221,511,25,86
64,186,20,56,226,505,25,79
60,193,20,58,230,493,27,77
58,206,21,59,234,529,28,65
56,201,22,60,229,514,27,64
53,207,23,62,243,501,25,50
49,212,23,63,252,525,25,46
50,207,22,61,250,518,24,49
48,201,23,61,240,480,28,56
56,214,26,62,256,503,27,57
61,210,24,56,235,489,28,63
63,208,24,54,230,455,27,65
65,202,26,54,231,464,30,66
74,196,25,53,231,450,30,66
69,183,24,53,206,419,32,59
65,190,24,57,205,440,32,64
62,184,23,55,191,444,32,61
71,207,24,68,191,420,30,60
64,202,23,68,196,440,26,70
67,207,19,67,201,452,24,72
69,206,21,66,219,433,24,66
69,212,22,68,232,451,25,68
64,200,21,58,264,464,24,65
64,204,21,57,262,478,27,48
62,206,21,56,262,471,27,52
57,206,21,58,249,478,28,50
56,290,20,60,264,567,27,48
48,315,19,65,235,630,28,47
63,336,20,63,237,607,27,52
59,336,20,61,251,603,27,49
68,330,22,60,262,605,28,72
67,267,21,56,260,512,29,74
69,233,21,47,273,416,28,75
68,197,20,49,267,413,25,75
70,193,20,50,258,412,25,80
62,206,18,52,256,395,24,61
67,194,19,52,231,380,23,59
70,187,17,53,256,404,22,63
65,186,19,52,308,397,24,64
67,174,21,59,300,407,28,55
72,172,22,61,300,409,28,58
74,175,22,60,307,401,28,57
73,177,22,59,279,390,35,56
70,193,23,61,238,421,34,65
64,202,22,53,255,406,33,64
73,201,22,45,250,411,33,61
74,231,23,48,241,424,33,66
80,233,24,48,227,403,27,69
104,233,23,46,227,389,28,65
109,249,22,54,206,405,31,69
103,253,24,56,203,384,30,68
101,223,24,57,219,400,32,66
98,221,23,56,220,410,31,60
70,212,23,57,212,378,30,56
69,185,23,54,217,348,25,61
62,163,21,52,236,357,25,62
65,161,22,53,228,316,27,64
63,157,22,58,240,345,29,66
68,144,21,57,252,380,30,65
63,155,20,58,269,401,31,63
64,165,20,65,263,425,32,66
67,165,20,64,273,457,29,74
64,172,20,62,261,447,27,74
58,186,21,65,247,438,24,73
70,184,20,60,224,427,24,74
72,184,22,51,215,405,29,73
71,187,22,53,194,365,28,66
70,184,23,51,186,344,29,64
71,190,22,50,186,356,29,63
68,186,23,49,184,360,29,62
72,183,22,49,181,360,25,62
70,186,25,47,179,369,23,58
71,182,24,51,187,367,25,60
80,165,25,49,196,371,25,74
75,161,25,51,213,389,25,66
81,158,24,54,221,397,25,67
87,152,22,56,245,418,27,68
93,156,22,54,261,450,25,67
85,166,22,52,257,426,23,49
99,173,22,55,261,410,23,60
92,182,21,55,264,438,20,64
92,187,22,53,248,427,19,62
87,184,21,56,290,420,19,61
93,177,20,59,302,446,20,60
81,175,20,57,284,448,22,62
86,169,21,55,274,434,23,81
76,162,18,54,262,432,24,87
73,161,19,52,186,417,24,87
71,160,20,49,159,408,26,90
72,157,20,50,174,424,25,90
79,154,19,51,175,399,24,71
77,159,19,53,196,419,23,64
79,157,19,51,228,432,25,63
79,165,19,54,230,436,24,63
74,167,21,55,241,464,24,54
58,170,22,58,271,518,26,53
64,168,23,58,272,518,30,62
66,184,23,62,274,545,32,63
64,179,23,61,279,575,29,59
61,180,23,64,268,553,29,56
68,188,24,63,236,535,31,53
84,180,23,61,231,536,29,48
82,169,23,58,205,514,28,46
78,184,22,62,201,495,29,50
82,186,21,59,203,507,30,61
79,191,20,58,198,513,28,61
57,192,18,56,210,540,26,55
53,197,20,64,209,558,24,56
56,180,20,62,196,564,24,55
49,194,20,62,198,581,26,48
46,184,20,68,207,586,26,47
48,185,22,74,208,580,26,49
68,175,22,69,214,586,26,49
71,172,23,70,223,586,25,47
74,146,23,67,219,561,22,48
73,166,21,62,257,596,23,52
69,165,22,69,247,584,22,49
58,171,21,69,249,585,23,51
55,206,21,68,254,611,21,52
67,203,22,72,259,641,30,63
71,199,22,70,218,624,28,70
72,205,20,58,222,629,30,72
77,203,18,57,224,627,31,71
74,168,18,53,215,610,32,69
62,191,17,52,216,590,25,57
59,168,19,53,211,551,24,42
63,169,21,51,200,532,22,39
50,168,21,49,192,519,21,34
50,170,20,52,194,478,20,32
48,155,20,50,199,473,19,27
58,176,19,55,214,508,24,28
78,174,19,59,225,521,25,33
96,178,19,57,239,548,24,48
99,208,20,56,252,578,24,54
104,206,21,57,243,599,24,54
119,196,19,52,236,593,18,67
117,216,21,53,248,606,21,73
109,208,21,54,239,572,21,67
107,190,23,55,216,554,21,64
119,196,22,55,225,535,20,70
105,212,23,55,235,528,28,63
92,205,21,54,222,511,25,55
99,222,22,54,217,524,28,60
106,215,21,52,228,556,32,87
92,217,22,48,224,559,35,109
106,209,22,52,207,567,30,111
108,193,22,52,207,577,32,117
110,188,23,51,211,575,30,116
118,193,22,52,210,556,28,98
124,182,22,52,208,544,32,74
110,183,22,47,218,522,34,68
106,176,22,44,224,525,34,57
91,168,22,44,227,524,33,53
68,169,21,47,234,526,38,53
48,182,21,49,233,548,32,46
53,169,21,52,231,557,29,49
65,179,21,55,222,557,29,55
67,187,20,54,205,561,30,56
70,199,19,50,204,545,28,81
74,194,18,52,203,539,29,82
65,198,19,49,196,548,32,78
52,193,19,45,194,534,31,76
55,193,20,46,210,526,30,85
58,167,22,46,200,538,26,62
57,161,22,47,206,535,26,61
69,169,21,48,214,519,22,62
79,169,21,48,223,529,23,60
81,167,21,54,234,543,22,43
85,190,21,59,243,542,21,41
86,199,20,58,244,547,21,43
82,201,21,62,256,550,21,44
83,217,22,76,263,551,19,45
82,230,20,75,250,580,22,51
89,229,22,79,256,596,23,64
98,238,23,78,255,628,28,64
101,236,23,74,233,633,30,66
97,228,22,60,206,614,31,63
99,219,23,58,202,579,29,58
86,203,21,50,189,552,30,41
73,202,21,55,187,505,32,85
67,203,22,56,193,487,32,96
61,190,23,56,191,477,35,110
67,225,24,60,210,479,36,113
75,242,25,64,212,499,34,115
72,241,25,59,204,490,27,86
77,271,23,62,201,484,25,72
82,281,23,70,226,506,22,52
80,252,23,69,214,502,28,53
73,246,23,65,224,529,27,48
72,245,25,68,246,575,29,53
61,210,24,68,268,582,29,50
61,205,24,65,279,572,28,52
67,224,22,64,290,576,22,54
82,227,21,64,274,564,22,58
96,227,21,65,254,544,28,80
100,238,22,62,235,560,30,95
97,250,23,59,208,545,30,95
99,230,24,68,184,509,29,93
106,225,26,72,189,463,32,105
100,234,27,74,203,435,33,89
98,236,27,74,201,418,35,73
99,232,26,72,206,453,40,78
89,233,27,64,216,485,44,75
67,226,23,60,224,498,45,65
57,225,21,58,230,483,42,71
55,218,23,58,236,474,45,86
54,209,22,60,242,458,40,84
55,208,21,58,254,442,43,91
56,214,21,60,256,443,41,90
56,196,19,60,257,449,39,83
56,192,18,61,270,458,32,71
77,213,19,65,273,500,33,92
74,211,20,66,262,520,30,95
72,215,23,63,250,530,31,90
73,222,23,60,230,547,36,92
73,224,22,59,211,547,38,91
51,213,23,54,200,513,36,72
47,234,24,54,207,516,34,63
44,231,21,55,209,503,36,65
42,233,24,54,212,486,37,72
41,231,24,51,211,484,35,74
40,230,23,52,208,492,35,75
50,212,21,52,195,469,35,71
53,210,21,53,210,466,30,75
52,199,19,54,210,471,25,65
52,192,19,56,217,464,26,64
51,185,18,59,231,464,24,54
41,191,18,58,254,496,21,52
35,187,20,59,261,514,21,41
64,207,22,62,278,522,17,43
65,213,22,65,283,554,20,37
126,238,24,68,269,560,23,42
132,241,24,67,250,539,24,43
167,270,23,66,231,537,25,45
224,268,22,69,218,530,27,48
227,265,22,66,213,486,34,50
209,263,22,60,203,526,39,62
208,266,24,64,213,529,39,67
196,259,22,64,215,516,41,67
119,252,22,59,211,528,39,65
118,250,21,63,215,531,32,74
104,223,19,66,217,495,34,77
100,213,19,65,228,519,34,75
71,183,17,68,274,519,33,73
62,170,17,71,280,502,34,73
56,185,18,73,278,539,35,64
47,195,20,69,285,517,28,49
43,197,20,69,273,503,31,56
40,200,21,70,233,536,31,60
39,197,22,72,278,538,36,62
39,185,22,70,267,503,35,82
52,197,21,71,262,520,34,84
48,214,19,73,264,498,32,80
65,245,22,69,266,444,31,81
67,256,23,68,226,441,28,80
67,254,25,74,242,443,27,60
59,251,26,78,244,423,27,57
60,239,27,73,235,437,28,61
53,211,25,72,220,442,31,70
55,206,24,66,207,441,28,69
53,204,22,56,198,454,27,80
51,193,21,48,200,468,25,77
55,197,20,47,208,471,25,71
62,202,20,52,221,489,20,62
58,194,20,52,222,488,31,65
60,196,19,53,233,485,34,62
60,208,19,63,240,492,34,61
59,197,18,68,239,506,33,61
47,196,19,64,236,505,34,56
68,280,20,67,245,582,30,66
67,320,21,67,251,630,34,65
74,350,23,61,252,640,35,66
71,354,25,54,261,620,36,67
71,353,23,53,278,612,39,68
52,297,25,54,288,529,36,55
63,246,23,52,277,448,28,50
53,207,21,54,275,397,27,54
53,222,20,55,270,380,29,61
48,217,22,58,250,347,28,62
47,225,21,55,220,338,29,61
29,238,22,57,209,327,33,61
29,233,23,54,218,338,32,57
30,224,22,56,226,360,30,49
38,227,22,54,250,367,27,50
38,210,21,54,250,372,27,60
48,209,23,53,271,415,25,56
52,205,23,54,277,407,25,58
54,194,23,52,265,407,28,66
54,204,23,53,247,441,33,84
63,213,21,53,256,427,35,91
59,211,19,56,235,385,33,93
59,217,19,55,225,385,33,92
65,213,18,57,222,349,31,89
65,202,18,56,214,298,27,72
59,187,19,55,212,321,30,62
65,200,22,55,209,322,38,79
70,177,21,52,204,298,45,81
68,186,21,50,209,315,48,78
71,195,22,49,208,342,54,99
68,201,21,50,234,340,57,98
62,183,18,50,240,370,74,100
56,200,19,62,244,396,73,100
53,189,21,63,258,428,73,98
53,176,22,64,275,447,73,85
62,186,23,66,259,449,71,83
66,198,25,69,278,452,51,60
64,184,25,61,265,442,50,64
63,210,25,63,280,445,49,80
59,206,23,63,258,405,42,70
51,201,24,58,249,395,36,69
47,199,24,51,219,363,38,72
46,205,24,50,221,357,35,68
51,187,24,49,193,349,32,69
48,203,24,49,200,385,38,73
47,198,22,51,194,411,37,70
48,188,20,53,199,424,36,69
68,180,20,53,209,444,35,68
65,184,20,56,196,427,33,55
70,162,20,57,199,418,31,63
72,166,20,56,229,427,34,65
71,170,20,54,238,428,38,65
54,175,20,53,244,420,41,76
62,174,21,49,256,451,42,74
61,183,21,47,266,447,40,79
60,197,22,54,245,449,38,85
59,207,22,59,231,464,35,108
67,207,20,66,210,466,30,113
58,209,21,70,194,444,30,113
60,212,22,74,173,456,28,105
64,202,20,72,178,432,30,104
75,190,22,67,191,432,57,94
70,196,23,65,209,440,60,84
70,189,21,63,206,417,63,82
71,198,20,58,206,398,64,86
85,192,20,56,211,428,66,86
79,191,19,58,206,407,48,70
77,178,18,54,205,423,45,71
78,173,19,51,226,474,44,76
83,150,19,58,238,498,45,91
63,156,21,62,248,519,49,91
66,158,20,69,259,584,50,94
68,189,23,71,286,651,54,89
66,219,24,76,301,693,55,85
69,226,24,73,296,698,57,77
69,222,24,69,273,667,53,84
68,218,24,66,266,637,49,87
65,202,24,65,229,562,45,89
68,163,22,56,188,475,40,91
67,191,25,56,173,478,36,86
68,194,25,57,183,490,37,83
64,195,24,52,178,478,38,78
71,200,24,52,182,493,38,83
71,211,24,56,183,523,45,84
58,187,21,51,195,523,45,74
76,196,21,53,220,546,44,67
74,194,21,54,231,573,45,70
65,179,22,53,231,577,45,67
61,180,23,58,239,574,40,61
61,166,23,63,247,580,38,60
55,160,23,65,223,573,34,58
56,168,23,70,232,578,31,48
58,166,21,70,237,581,30,39
57,158,20,68,225,591,27,44
61,178,19,68,212,584,40,53
54,178,20,66,208,573,42,64
56,168,23,64,186,560,41,66
60,166,23,66,169,557,45,76
61,164,22,64,200,552,50,82
56,152,23,60,200,554,46,81
60,184,22,64,219,573,47,77
61,182,22,61,223,540,57,79
59,188,23,61,264,571,58,69
60,206,24,70,256,586,57,59
85,209,23,71,259,580,58,78
78,181,24,69,249,578,59,86
78,201,21,71,253,610,49,87
81,197,21,72,223,582,51,91
85,191,20,61,219,567,51,93
67,191,21,64,230,574,47,83
69,183,19,66,235,570,46,78
68,182,20,63,228,558,50,79
64,193,19,64,230,563,43,88
57,192,19,63,223,552,50,87
51,195,21,60,219,541,50,89
52,213,20,56,215,548,49,84
50,202,21,58,212,546,45,80
59,190,21,54,209,537,47,97
71,193,21,54,213,560,38,108
69,182,20,53,201,563,37,116
66,167,21,55,200,544,37,116
69,175,21,56,201,551,37,117
73,192,21,55,187,542,39,107
76,183,21,55,178,519,44,109
82,196,22,58,188,527,47,99
83,208,23,58,186,524,53,101
85,213,22,61,192,517,55,101
83,204,23,65,216,546,51,91
74,206,24,65,230,543,58,92
86,207,23,70,237,551,57,90
94,196,20,70,242,571,53,91
95,184,22,66,239,584,53,93
92,220,21,64,250,622,56,102
100,228,21,67,246,631,43,86
91,239,21,62,240,639,41,91
86,236,23,61,232,619,43,91
86,238,22,62,247,618,58,112
86,207,21,65,228,561,56,102
78,194,22,64,224,555,56,102
76,201,23,64,216,546,56,107
73,204,23,64,221,543,58,106
70,215,22,67,209,536,43,92
84,231,23,62,201,532,45,88
89,243,21,59,211,543,49,105
85,232,20,56,220,529,53,100
91,233,19,56,230,553,49,97
90,227,20,52,232,554,52,88
75,227,19,54,244,561,48,98
75,225,20,56,253,564,44,89
74,215,21,59,247,557,40,90
65,218,21,56,228,540,41,89
70,233,21,59,223,530,41,101
69,242,21,59,209,510,43,92
58,251,22,59,190,502,48,85
64,257,20,54,184,507,49,79
63,261,21,56,200,515,47,83
71,238,21,54,204,515,44,66
68,217,22,50,201,516,42,65
79,199,22,48,209,499,36,84
74,185,22,53,214,494,33,91
79,176,21,54,210,476,31,89
66,175,21,54,201,465,34,89
65,184,19,55,210,478,51,90
50,183,19,56,213,484,51,71
48,187,20,52,219,487,55,68
44,194,21,51,239,506,59,72
56,209,21,55,287,566,56,76
55,200,22,61,293,560,41,80
54,221,21,65,291,560,40,78
56,227,21,68,282,551,34,69
58,224,21,69,264,522,32,74
44,231,22,67,209,456,39,82
43,226,21,64,191,443,40,84
44,208,20,62,175,449,40,83
44,203,21,63,189,464,39,81
37,195,22,58,184,476,36,72
43,172,21,58,186,470,28,76
46,186,21,58,196,465,27,77
45,183,23,53,202,445,27,77
45,192,21,52,201,435,25,77
43,204,21,54,215,442,27,78
40,209,19,54,232,448,24,63
44,219,21,54,246,462,24,59
44,233,19,57,253,468,32,62
43,236,20,61,276,495,34,67
47,229,20,62,290,518,38,68
49,227,22,61,283,536,40,75
47,222,24,64,270,537,39,83
47,212,25,68,258,550,37,81
50,215,26,67,226,525,35,82
48,216,26,66,189,493,29,80
45,219,24,67,185,488,27,73
41,206,21,62,180,478,27,55
42,201,21,56,188,453,22,53
39,178,19,58,193,472,29,47
39,177,19,59,199,473,34,52
38,180,21,62,192,451,39,59
47,189,21,72,210,467,47,66
58,195,23,73,220,481,51,65
59,193,23,68,229,471,52,64
68,210,23,71,244,496,51,63
70,214,24,70,262,520,49,59
75,210,24,62,263,522,39,54
67,212,21,60,268,545,36,57
68,219,24,66,274,553,35,72
64,209,24,64,271,533,35,79
65,218,23,63,256,537,34,81
63,230,22,66,237,518,34,79
66,232,22,68,213,488,33,78
65,231,21,62,189,479,35,108
67,243,21,60,169,472,43,105
76,233,21,60,174,436,48,107
89,214,22,54,189,453,50,111
89,206,22,51,196,452,53,118
89,201,21,52,201,439,51,111
92,199,20,54,213,476,48,119
83,197,20,59,216,490,42,116
61,194,21,62,224,478,40,114
67,200,20,63,226,494,37,110
70,224,21,65,241,528,35,110
73,214,22,67,255,513,32,101
72,221,23,62,265,543,35,118
84,231,22,59,268,556,36,121
91,239,24,61,281,575,35,128
89,242,25,65,274,566,45,105
88,247,24,59,253,541,47,108
89,244,21,60,237,499,45,92
78,247,21,58,218,475,44,93
65,232,20,64,196,422,44,80
74,217,18,60,189,405,34,92
77,210,17,63,213,454,37,92
85,205,18,62,227,451,39,100
88,218,21,64,226,460,42,109
92,218,19,58,243,470,44,112
86,227,21,57,243,459,44,115
75,235,22,56,227,430,39,116
73,231,24,56,215,446,39,110
73,216,24,60,228,458,45,109
72,210,24,56,227,461,49,120
77,195,24,57,236,458,46,116
76,180,23,57,245,474,49,121
68,186,21,59,255,471,49,120
78,182,20,59,262,451,40,110
78,280,21,68,266,539,34,115
77,324,22,72,277,604,39,112
79,338,24,71,261,617,44,102
83,352,24,77,257,623,43,99
77,354,24,77,268,640,43,103
74,295,25,73,260,547,44,81
69,242,24,69,267,480,48,79
74,236,23,72,294,459,41,89
72,208,23,61,289,438,41,90
76,237,22,58,265,401,47,98
83,230,20,58,425,401,50,104
86,234,22,61,742,381,45,103
89,230,22,59,870,351,44,106
91,242,24,61,875,352,49,118
81,209,24,64,876,341,49,109
74,221,24,62,809,367,48,111
81,222,23,65,517,363,47,114
79,220,24,68,223,363,47,114
77,209,22,73,219,358,47,110
78,217,23,70,210,368,44,119
81,196,23,69,201,341,41,113
85,227,23,64,217,368,45,113
90,221,23,62,239,374,47,116
86,227,23,56,228,392,43,108
90,238,25,55,245,406,42,95
88,248,25,58,262,426,43,108
74,220,27,60,260,403,42,109
64,224,28,58,239,389,39,98
63,219,27,63,231,377,38,101
58,195,26,72,212,354,37,104
71,199,26,71,195,336,33,100
71,203,22,71,189,323,34,99
68,196,22,72,200,311,35,105
78,199,22,74,218,320,37,120
85,202,19,64,245,352,35,117
84,195,20,63,262,372,48,125
84,186,22,64,279,437,46,122
92,185,22,63,284,454,44,122
96,191,23,58,279,455,46,155
94,196,24,63,263,439,49,164
94,215,24,67,242,435,38,162
96,225,22,66,211,381,40,186
93,243,24,68,191,351,44,183
85,228,24,64,183,331,43,155
91,218,24,60,175,326,43,163
86,189,25,58,189,342,44,184
81,194,25,57,227,373,42,164
79,221,24,57,225,393,41,169
76,227,23,65,241,406,47,179
59,243,22,64,252,432,47,165
52,267,22,60,249,412,47,155
55,262,22,63,273,483,52,169
50,244,21,64,285,493,54,176
58,244,23,59,273,479,52,178
80,230,23,64,274,463,54,184
77,236,23,66,282,482,52,166
79,227,23,66,239,382,50,154
80,217,26,65,232,385,45,141
75,236,25,67,254,484,49,125
56,246,25,67,259,522,42,126
62,227,25,71,253,558,44,142
69,228,26,68,260,589,48,141
73,231,25,65,259,589,51,146
71,213,25,62,239,550,46,133
67,211,25,60,234,551,46,139
74,236,26,57,227,515,47,124
82,234,26,61,212,519,66,134
84,222,25,61,214,535,66,139
86,217,25,67,217,498,64,147
87,211,25,65,217,488,65,135
89,196,25,65,226,506,63,151
81,191,23,68,246,488,40,147
79,189,24,71,265,516,35,133
81,200,24,68,283,574,39,125
87,209,25,72,301,567,37,133
79,186,24,72,303,562,40,134
74,199,25,66,290,571,36,135
78,194,22,64,264,537,39,153
78,189,21,64,233,494,36,151
80,186,20,58,208,468,37,149
85,185,19,56,187,474,37,135
89,184,22,60,204,487,37,119
91,199,23,62,235,516,33,101
98,202,23,58,237,547,36,138
95,197,23,59,231,588,37,130
90,209,24,62,235,589,41,128
89,200,21,60,220,579,40,133
90,214,23,68,202,573,43,138
81,214,23,69,216,562,46,109
84,222,24,72,213,546,44,114
92,212,23,69,219,547,49,110
89,225,23,69,247,561,53,115
81,201,22,64,267,569,52,128
83,208,23,66,276,573,47,122
81,198,22,67,283,587,55,134
68,204,22,67,283,614,49,133
68,193,23,68,262,611,50,128
67,194,20,63,233,607,50,106
64,191,20,64,221,611,50,118
62,198,21,62,205,594,43,99
70,195,21,62,200,552,41,94
70,193,22,65,193,534,38,89
69,199,22,63,199,515,35,95
85,188,22,61,193,488,36,114
85,174,22,59,199,485,37,116
84,181,22,60,208,487,35,122
84,192,20,54,222,497,33,122
89,188,22,56,228,528,33,117
78,204,21,59,242,554,35,97
78,207,22,61,254,571,32,98
75,203,22,65,277,599,33,106
84,202,23,64,274,607,35,103
94,197,24,65,277,583,37,112
90,201,25,68,259,550,33,109
87,213,25,64,241,537,41,109
88,208,24,61,226,541,43,107
96,190,24,62,218,509,55,118
80,211,21,60,215,518,62,114
84,196,21,53,234,546,72,108
84,193,21,59,240,559,73,103
84,196,20,54,231,553,84,98
69,209,22,60,244,587,77,81
73,194,23,63,244,587,72,77
67,205,25,61,231,585,64,83
86,199,26,57,231,573,64,93
83,201,27,59,210,536,50,111
85,211,26,55,194,514,50,120
101,210,25,54,194,501,53,124
102,200,23,54,207,491,51,122
92,215,22,53,217,501,48,118
91,209,20,53,230,530,47,96
87,200,19,55,249,549,45,86
66,209,19,59,244,572,43,74
65,215,20,64,235,579,46,67
58,198,19,64,240,572,41,79
61,215,21,65,244,578,42,79
60,216,21,63,221,563,49,92
58,217,22,61,215,529,48,97
65,237,20,57,211,546,44,111
64,254,20,59,197,553,48,101
69,263,19,57,201,565,51,114
75,272,21,56,218,581,51,125
78,265,21,56,228,599,50,126
78,242,22,53,249,602,51,117
86,232,22,54,260,617,49,121
83,217,23,56,272,611,44,120
77,218,20,58,278,603,36,97
84,231,22,55,296,626,38,107
83,248,22,59,287,617,40,118
74,233,23,56,280,605,68,121
78,238,23,54,264,596,68,119
77,220,24,52,247,586,67,126
69,211,21,50,220,546,67,117
67,205,22,47,229,546,67,108
69,209,21,47,222,535,44,97
65,201,23,48,229,518,47,112
79,215,23,49,225,518,49,108
85,208,25,49,225,521,49,116
88,200,23,50,224,497,48,112
97,218,23,51,228,501,44,119
97,237,23,49,210,492,43,106
89,251,23,46,211,478,46,113
87,250,20,45,208,467,44,105
91,259,22,44,190,462,50,113
79,251,22,42,185,463,55,102
84,238,20,42,217,470,67,97
84,230,19,47,244,497,67,91
78,240,21,52,263,517,77,97
67,234,20,56,276,528,76,90
71,231,20,56,279,522,70,93
71,255,21,58,265,509,57,104
70,240,23,55,237,484,55,100
80,238,23,51,216,456,42,101
85,237,22,48,196,430,39,100
87,244,23,46,194,414,39,97
86,206,22,44,180,403,42,89
88,224,22,46,201,411,43,96
87,227,20,48,201,417,44,93
83,222,21,52,208,448,45,93
85,252,20,56,228,488,56,99
87,252,20,58,238,495,52,105
86,251,20,59,248,508,54,103
84,258,21,62,276,522,53,99
103,251,20,64,289,512,53,106
99,219,21,66,301,518,58,101
100,228,20,68,317,536,59,90
99,222,20,75,328,542,60,92
95,218,22,73,315,573,64,99
74,246,21,73,309,576,65,90
72,242,20,70,295,548,54,89
66,237,22,70,279,542,54,91
63,234,23,62,257,548,53,100
72,221,19,62,239,508,47,94
75,212,21,65,230,513,42,93
75,210,23,64,210,519,37,101
77,228,24,62,208,516,45,114
73,239,25,67,203,505,48,101
62,250,26,69,219,510,49,103
63,249,25,62,224,505,50,103
70,261,25,62,232,521,50,104
67,239,22,61,240,522,43,86
73,235,22,58,256,515,38,94
78,231,22,55,268,537,37,95
79,219,22,64,279,542,36,93
73,209,20,68,309,536,36,102
80,232,22,68,308,573,35,105
89,217,20,69,298,567,39,115
89,219,20,67,290,544,39,110
93,231,21,60,277,555,41,113
99,231,22,54,233,529,48,99
96,217,22,53,218,475,52,113
91,211,23,51,212,507,49,125
91,215,24,52,214,510,49,128
84,200,23,60,211,481,54,125
79,224,23,64,230,532,54,122
77,218,22,64,238,529,52,141
72,224,24,64,246,492,51,121
80,217,24,67,242,517,50,120
79,211,24,58,253,529,46,130
77,185,24,57,260,484,40,137
77,198,22,60,267,528,41,108
84,196,21,63,276,537,43,111
75,200,18,59,300,539,41,117
72,220,17,59,347,570,39,108
80,225,19,61,329,577,38,101
82,227,19,61,321,570,51,106
80,223,20,56,310,574,55,125
76,221,20,57,280,546,56,136
88,207,21,58,208,496,58,138
85,217,20,61,213,501,57,136
78,204,21,56,218,485,43,134
80,230,20,60,217,470,44,107
82,246,23,58,229,466,46,85
76,264,23,60,234,472,43,82
72,254,22,56,241,460,46,88
86,259,23,59,250,454,50,78
81,241,22,57,253,467,55,107
89,215,19,61,255,468,54,109
86,195,21,61,263,473,54,114
87,195,21,62,266,469,52,111
73,195,22,64,274,504,50,112
76,195,21,66,284,512,37,94
67,199,22,64,285,527,38,95
65,302,23,66,336,637,40,88
71,362,24,68,360,716,41,97
72,374,25,64,342,688,45,100
62,385,26,61,323,676,47,102
59,389,25,62,306,655,44,102
58,308,24,57,237,521,43,106
55,245,22,48,176,382,41,104
55,221,20,48,197,355,33,98
57,199,20,47,208,331,35,92
64,198,21,47,235,340,37,92
63,213,21,47,265,358,37,92
66,214,21,51,278,369,39,95
67,220,22,54,281,391,37,93
76,226,21,57,290,395,33,89
72,226,21,58,279,368,34,81
72,241,21,57,246,359,34,83
67,224,20,56,236,347,29,67
73,226,20,55,232,346,31,67
66,261,20,53,234,359,35,60
73,256,20,48,229,361,33,60
77,254,21,46,232,386,33,45
73,266,23,45,256,404,34,41
70,264,21,44,246,389,33,43
72,237,22,47,249,400,32,49
59,248,21,50,327,414,37,48
66,225,22,53,334,397,36,48
79,232,23,54,327,381,39,52
79,238,25,54,323,395,38,51
75,221,24,52,303,361,34,48
76,202,25,50,219,339,28,56
65,198,24,49,197,327,29,56
50,170,21,48,174,317,25,54
42,156,20,49,186,300,25,51
57,165,20,48,199,309,27,49
57,181,21,48,213,324,29,48
58,205,22,50,237,350,33,57
62,211,23,49,267,384,38,64
69,230,23,53,285,404,38,66
61,224,22,54,276,407,38,70
58,221,22,53,269,436,38,64
57,210,21,52,257,435,43,61
53,211,21,51,224,410,41,58
45,195,20,48,198,400,39,56
40,198,22,46,199,395,40,54
39,181,20,46,194,365,40,53
45,173,21,47,202,375,35,49
44,170,20,50,229,390,34,43
49,160,22,51,231,411,38,41
50,166,21,52,248,444,42,56
59,209,22,55,255,451,41,63
55,221,21,56,248,453,39,66
56,234,21,55,238,477,39,67
57,253,20,54,234,453,36,71
54,247,23,55,223,424,30,61
45,220,22,54,224,432,42,59
50,240,22,53,229,406,39,53
59,238,26,54,239,389,39,63
52,230,26,55,247,449,41,63
58,237,23,52,248,444,42,76
62,236,24,49,237,463,39,77
56,218,24,53,234,501,39,79
46,206,22,51,212,485,40,74
51,206,21,50,197,452,39,73
49,207,21,51,197,476,43,66
48,210,19,50,230,467,35,64
53,199,19,44,223,434,36,68
50,203,18,45,237,452,34,66
46,185,18,44,242,426,34,67
46,175,20,45,244,432,28,71
48,203,20,49,235,436,30,72
51,193,21,52,240,457,33,68
53,192,21,53,255,491,40,68
56,199,23,61,269,541,39,70
50,202,22,63,279,556,38,64
50,188,24,66,283,564,42,64
45,200,24,65,290,592,49,68
66,195,24,64,274,560,44,72
67,232,22,56,253,569,46,85
73,250,22,55,235,567,48,82
74,254,20,50,209,568,48,81
80,261,22,47,205,558,48,83
68,264,23,51,206,577,52,93
65,235,23,49,208,539,53,80
59,217,22,47,210,544,53,80
62,205,23,46,212,535,53,80
81,206,21,49,219,524,49,78
80,208,19,43,220,556,45,63
81,208,19,45,218,572,46,62
89,227,21,47,222,567,46,68
89,246,20,50,235,566,42,73
82,246,19,48,232,620,40,77
86,257,19,49,233,606,40,78
87,257,20,51,269,624,36,76
82,244,19,57,285,642,34,73
76,225,22,56,281,679,34,75
60,211,24,58,286,642,35,67
51,189,24,62,274,633,34,65
49,181,23,61,246,636,34,71
53,178,23,56,228,651,39,70
55,172,22,52,217,644,39,63
57,176,21,51,194,630,36,67
61,208,22,45,190,629,40,71
59,210,24,43,187,594,43,65
51,201,23,41,184,542,38,57
49,205,22,40,184,502,35,59
51,199,23,42,190,504,34,55
52,166,21,45,768,511,32,49
60,175,20,49,875,526,26,52
60,186,20,51,1088,610,27,59
61,187,21,55,1197,657,29,57
58,195,20,56,1234,679,29,56
58,207,21,56,1000,691,26,63
55,212,20,55,915,690,26,66
55,209,20,53,645,639,27,62
56,223,20,54,404,595,34,60
54,215,21,49,270,567,34,60
52,219,21,49,202,539,35,67
45,201,23,48,149,534,34,63
45,197,23,48,142,518,34,62
46,174,23,43,154,501,28,63
45,178,24,45,147,544,31,70
54,171,23,45,170,567,33,64
57,171,20,47,190,583,33,63
58,179,20,48,202,580,31,62
56,189,21,49,202,594,38,64
57,215,20,50,221,591,42,60
47,232,19,49,225,613,42,65
46,244,20,49,223,597,43,76
55,252,20,49,270,646,42,81
54,252,19,49,280,659,36,78
54,224,19,50,287,625,31,82
55,222,20,51,299,602,30,74
54,215,20,52,300,620,35,80
47,210,20,55,274,578,38,80
45,211,22,58,265,571,38,80
43,217,22,57,245,568,37,73
41,236,22,57,222,602,36,77
42,248,22,55,216,602,32,63
36,246,22,55,199,585,33,62
36,251,21,53,205,608,33,60
38,260,21,59,229,635,33,72
43,235,21,57,229,595,31,69
40,226,22,57,238,591,30,66
42,228,23,54,249,626,30,66
42,218,22,55,253,609,35,67
40,216,22,50,250,600,36,55
36,224,22,50,254,612,36,54
37,249,22,54,264,636,36,51
40,247,22,54,257,619,33,56
41,265,22,54,274,632,28,56
52,284,21,53,256,615,27,56
52,288,21,52,252,587,28,53
52,278,21,49,257,553,28,59
52,289,21,49,242,533,27,50
54,282,23,47,216,497,28,56
47,274,21,47,224,502,28,61
50,260,21,49,220,508,29,68
53,258,21,49,199,499,28,64
49,250,20,49,222,507,29,67
54,273,19,49,246,559,29,61
49,289,20,47,241,589,30,55
48,290,19,46,237,590,37,62
44,288,18,47,238,585,36,61
46,284,20,46,222,583,38,60
42,253,22,47,191,538,39,63
42,217,22,47,215,474,37,63
38,218,22,51,227,518,30,50
40,261,22,52,243,535,33,60
45,261,20,54,256,549,32,56
41,267,18,54,277,557,32,54
47,280,18,57,272,575,32,62
51,281,22,54,270,530,34,65
51,241,23,52,257,510,31,55
47,260,24,53,246,488,33,58
46,273,24,50,226,513,35,67
39,276,25,46,203,513,35,62
49,268,22,45,208,508,32,60
48,269,22,42,193,518,33,62
52,255,23,41,194,512,29,61
51,255,24,42,220,460,25,52
53,236,23,43,237,455,25,52
61,251,24,44,235,442,26,58
61,239,23,48,256,415,26,64
60,243,20,50,267,417,27,68
61,223,20,50,261,437,28,81
63,243,19,50,267,449,28,81
42,236,20,52,278,505,29,76
41,245,21,56,283,541,37,77
37,238,22,56,284,554,41,75
38,241,20,56,271,565,40,63
31,231,21,58,253,562,40,66
35,225,20,59,236,515,40,63
33,235,20,55,223,505,40,55
37,233,20,53,201,496,35,53
52,236,21,53,201,469,37,61
53,227,21,50,212,458,36,57
56,227,19,46,213,479,37,68
60,217,18,46,215,449,31,68
58,218,19,48,233,469,29,72
49,215,20,50,235,487,27,66
47,209,20,51,247,490,30,65
48,221,21,55,255,499,32,55
43,215,22,55,275,517,29,58
47,211,22,53,288,510,31,58
42,211,21,55,301,540,29,56
42,224,20,55,306,567,29,56
35,218,19,56,319,561,26,59
37,222,18,55,295,583,30,56
37,232,18,54,272,575,31,52
37,225,18,51,252,539,31,55
41,213,19,50,229,518,31,56
50,206,20,47,197,499,30,54
54,211,21,47,193,450,28,54
48,211,21,51,193,463,24,49
52,226,20,52,190,453,23,41
49,239,20,52,199,466,23,40
42,249,21,50,206,489,26,45
39,244,19,51,216,501,30,45
48,230,20,53,235,495,31,50
45,212,21,56,258,518,31,55
48,196,21,59,268,511,31,54
48,187,21,62,282,518,35,57
50,192,21,60,292,546,32,55
42,197,20,58,293,560,32,56
40,203,20,56,297,580,38,55
39,220,21,56,302,571,41,63
47,231,19,55,289,569,37,55
50,228,20,59,275,550,36,59
52,231,21,57,267,531,36,58
55,230,21,56,243,486,29,63
56,225,20,53,224,483,27,55
52,223,21,54,217,450,36,61
49,251,21,52,253,492,35,59
50,276,22,57,255,525,34,61
49,270,21,56,259,531,34,57
46,276,20,57,271,536,32,61
41,280,21,56,289,562,23,53
43,296,21,59,285,549,23,52
48,267,22,56,292,540,26,50
46,280,23,57,310,560,27,47
49,280,24,60,313,562,26,54
53,275,25,61,314,553,28,55
53,231,25,61,308,525,27,60
45,321,24,61,311,615,39,63
56,358,23,63,300,643,39,66
56,397,24,66,292,656,46,60
56,408,23,65,275,641,47,61
52,423,23,63,265,636,56,63
51,386,22,63,243,533,48,65
42,359,22,60,224,479,47,62
37,315,20,52,217,449,43,66
39,320,19,55,233,468,45,69
40,293,19,55,220,473,33,63
41,265,20,54,249,464,33,57
38,264,19,58,281,478,35,63
40,262,20,59,291,485,32,58
36,236,20,58,288,481,27,54
44,267,20,55,297,475,34,65
45,269,20,57,276,483,34,72
44,274,19,54,262,477,35,67
46,271,19,53,242,461,36,66
46,271,19,50,238,466,38,67
41,247,19,53,230,466,35,61
37,243,20,53,231,445,33,50
40,208,21,52,215,412,32,49
43,213,21,52,225,426,31,48
42,202,22,51,222,409,29,44
40,190,21,50,218,406,27,40
46,190,20,48,230,422,34,51
52,201,21,49,232,439,34,51
50,185,21,47,229,422,37,51
52,190,21,47,224,392,42,55
54,188,22,47,218,401,43,55
55,193,22,45,199,382,39,54
50,200,22,43,209,360,38,56
50,250,23,47,209,411,37,59
45,253,22,46,217,418,33,58
45,259,23,50,237,420,33,57
42,253,22,50,242,426,35,47
46,283,22,54,243,424,41,45
49,256,22,53,252,402,52,45
56,262,23,60,251,427,61,46
59,258,22,58,245,410,64,49
57,262,24,60,240,416,63,51
63,240,23,58,233,439,66,58
63,258,21,57,218,400,57,62
57,241,21,51,210,377,46,63
52,250,21,51,207,377,43,61
53,247,20,52,208,363,48,65
45,224,20,53,213,364,40,66
40,194,20,52,226,411,44,61
40,212,22,54,229,420,46,60
41,214,21,55,226,447,47,60
54,217,23,52,229,460,43,56
50,226,23,52,225,435,41,43
51,214,23,50,206,427,40,48
54,217,22,52,210,444,40,65
57,212,23,51,202,404,37,67
44,201,21,54,203,396,37,67
43,200,21,58,216,426,38,69
44,213,21,60,226,408,35,62
58,218,21,57,224,410,34,55
63,223,21,57,235,445,38,69
63,225,20,56,231,441,36,74
69,237,20,52,218,458,35,75
69,241,19,53,225,488,38,77
57,234,20,56,221,499,42,90
53,242,20,54,208,495,41,81
73,261,21,54,206,503,50,78
75,244,20,53,198,464,48,79
73,231,20,52,186,451,46,78
73,223,20,48,199,456,45,57
74,206,21,53,205,448,48,65
56,186,20,53,216,462,38,63
56,206,21,57,247,541,40,63
60,212,21,58,246,597,40,61
57,219,23,60,252,597,41,77
59,230,23,56,260,617,35,72
62,227,23,56,259,614,36,72
58,230,22,56,237,572,34,68
53,253,22,58,271,578,33,68
56,237,21,55,253,557,29,50
54,252,20,57,242,542,27,45
54,258,20,57,239,540,32,55
52,246,20,51,237,553,36,61
53,255,20,50,227,531,37,70
56,255,20,54,242,593,36,67
55,229,21,54,244,623,37,69
60,237,22,55,256,642,32,62
65,242,23,55,266,640,32,57
67,203,23,52,245,627,31,46
62,216,25,51,238,584,33,42
60,220,24,51,250,572,32,39
57,211,22,49,242,569,33,39
48,209,21,50,240,563,31,49
48,228,21,56,246,557,31,49
46,213,19,57,251,575,30,53
44,226,20,58,252,588,36,55
36,228,22,58,247,592,40,65
38,215,23,57,240,609,39,62
33,222,24,53,225,610,38,63
37,232,26,52,215,612,37,61
43,220,24,50,197,595,33,66
44,219,22,50,184,578,28,57
44,234,21,51,184,569,28,60
45,219,21,49,192,551,27,60
41,229,19,47,187,516,26,66
34,216,20,44,202,514,31,60
32,199,21,43,214,503,31,59
36,188,21,44,222,484,34,56
34,174,21,45,241,500,43,58
36,145,20,47,262,523,43,94
37,177,19,51,269,532,39,98
40,197,18,54,266,566,42,100
37,196,19,55,276,585,40,97
38,209,19,55,274,584,31,94
50,217,20,58,273,580,30,50
60,209,21,61,257,557,29,50
58,204,21,58,253,528,25,46
58,197,20,55,229,502,26,54
58,192,20,55,215,496,33,58
66,200,21,50,203,492,33,65
60,195,21,50,196,500,34,59
61,189,22,52,206,509,32,63
61,199,23,51,213,523,38,58
71,186,22,50,200,521,33,57
54,178,20,50,197,511,36,53
54,172,21,42,198,513,37,58
67,185,20,41,194,504,37,58
67,180,19,44,201,485,34,63
57,206,21,46,217,489,36,67
57,265,22,46,224,500,38,63
58,261,22,50,237,506,37,61
43,254,21,55,256,534,38,59
45,252,23,58,281,562,35,76
50,245,22,59,283,575,31,71
54,190,22,60,282,580,30,81
54,211,21,58,271,583,31,80
51,210,22,53,253,578,29,78
50,228,22,49,210,568,30,63
53,228,21,46,199,543,29,64
50,220,22,45,186,511,28,54
46,210,22,48,186,502,28,53
55,213,21,51,181,477,33,67
57,212,20,54,225,521,36,63
53,219,21,56,234,540,43,68
57,225,18,59,243,565,46,65
59,229,20,60,257,577,50,67
55,249,23,60,278,598,53,56
52,244,23,59,259,563,50,50
55,239,22,59,260,553,50,53
55,252,25,58,270,554,50,77
53,245,24,55,256,541,47,76
51,223,22,54,238,518,42,77
58,226,22,53,232,509,46,80
57,225,22,49,210,494,40,76
56,206,19,47,194,484,35,63
54,220,18,46,209,498,35,61
61,245,18,46,206,503,33,61
56,235,19,44,208,509,33,62
57,251,18,47,225,533,33,64
52,245,18,45,222,529,31,62
55,239,19,48,216,509,30,62
45,223,19,46,221,497,29,59
44,223,20,46,211,480,26,59
36,211,22,45,202,453,26,61
39,246,22,46,211,449,35,55
38,239,20,46,198,453,36,60
39,245,20,48,207,464,40,62
40,257,17,52,232,476,38,58
44,260,20,54,236,500,40,52
40,236,19,56,250,505,34,55
39,249,20,55,271,506,32,49
39,251,20,56,270,508,26,47
46,258,22,52,259,487,25,49
43,264,20,52,253,461,25,46
44,261,22,50,246,458,25,44
56,260,22,48,230,444,28,60
57,248,22,46,228,423,29,60
53,236,21,44,223,442,28,59
51,226,20,45,234,447,27,64
52,238,21,47,226,439,28,63
40,232,22,50,228,457,26,52
42,233,22,48,232,472,32,60
40,231,22,51,224,448,33,64
45,232,22,50,221,450,31,61
44,225,20,47,231,452,31,64
43,219,21,50,239,439,33,63
40,232,20,52,246,465,26,86
45,223,20,55,259,510,32,85
40,225,19,56,265,514,35,89
42,244,20,57,266,558,38,87
50,267,18,55,259,573,40,91
48,253,19,53,252,548,39,61
43,261,18,50,249,540,39,63
47,253,19,48,236,534,39,59
46,231,21,48,230,485,36,56
38,237,21,51,252,527,35,47
38,260,21,53,254,575,35,49
48,265,20,57,252,582,39,46
45,277,21,70,259,600,39,41
52,295,20,71,269,629,44,49
56,276,21,70,247,598,42,50
64,269,20,69,246,585,42,58
59,260,22,68,257,584,38,58
57,242,20,56,272,579,35,58
52,237,21,58,272,590,29,49
47,229,21,58,292,602,28,49
41,218,21,59,301,591,27,40
42,233,19,57,298,604,27,44
43,242,19,59,293,609,31,45
46,239,18,62,287,587,31,46
46,264,19,64,270,591,31,45
46,259,20,65,250,572,31,42
43,251,21,63,243,532,28,39
43,244,22,62,232,518,24,37
42,236,22,55,219,503,25,43
46,212,22,52,223,474,26,46
42,217,21,46,228,475,27,48
44,217,20,48,226,477,26,44
46,213,21,51,237,488,27,44
42,218,20,48,247,498,28,36
39,210,22,48,248,503,27,48
40,213,21,49,252,507,29,50
41,208,20,50,264,515,31,57
40,219,20,52,270,520,29,64
43,205,20,57,273,526,36,71
42,211,19,57,297,548,39,67
43,220,21,62,301,562,40,66
36,217,21,60,299,560,38,61
38,219,21,58,284,540,38,52
36,228,21,55,274,526,29,45
46,241,21,55,246,487,29,52
52,235,20,55,233,462,33,54
54,237,20,54,213,463,34,58
55,226,21,53,216,459,34,61
60,246,21,55,214,455,33,62
53,231,20,53,202,456,31,61
49,237,20,49,207,440,25,62
47,240,22,52,231,466,27,59
45,255,21,54,260,513,28,67
40,247,20,54,266,539,30,65
40,250,21,59,276,571,31,63
35,239,22,58,320,610,29,59
38,237,21,57,322,583,25,60
37,243,24,58,321,565,27,49
40,300,23,58,337,642,32,50
41,349,24,58,362,678,31,50
45,381,23,60,325,672,31,49
42,387,23,61,306,669,31,45
46,385,21,55,273,634,32,46
45,327,23,54,240,508,31,47
44,265,22,49,189,398,30,38
45,211,22,46,189,358,37,39
48,200,23,43,191,331,38,39
46,187,25,44,210,341,36,37
48,200,25,47,226,356,32,57
51,197,25,48,231,348,32,57
46,209,25,48,232,331,27,57
45,200,26,51,239,347,27,58
52,196,24,55,239,326,26,59
50,201,24,51,242,328,29,39
47,216,24,51,246,350,30,37
48,208,24,57,246,349,29,46
50,210,20,57,250,358,28,46
40,210,19,53,259,404,28,45
42,208,20,56,260,405,26,46
43,223,19,55,267,415,24,45
43,242,18,57,276,442,26,37
41,249,20,58,270,439,24,33
47,253,20,59,265,428,27,37
47,249,18,60,260,430,30,33
46,223,19,60,252,403,32,34
45,205,20,55,229,364,31,32
45,211,18,53,225,362,32,34
42,202,19,51,209,339,30,28
38,199,19,46,205,310,26,41
36,211,19,45,202,333,23,45
39,207,19,43,209,333,24,51
40,192,21,45,232,337,24,55
36,193,20,48,247,359,27,61
42,201,19,48,259,388,26,60
42,196,19,52,266,409,27,56
41,203,19,54,281,440,33,56
40,211,18,53,274,431,34,58
40,208,19,52,263,426,32,53
38,197,20,53,249,440,34,52
41,204,21,52,234,407,34,55
38,199,21,54,201,372,27,51
37,197,20,52,184,375,27,42
43,207,21,52,187,357,28,40
37,199,20,52,192,332,24,31
39,198,20,52,214,364,24,35
40,203,20,52,225,391,25,36
42,202,21,53,233,423,22,36
38,191,20,52,238,451,23,40
39,196,21,52,230,449,25,40
36,195,21,50,214,440,24,36
39,196,23,50,223,470,27,44
38,201,22,48,214,429,33,46
38,207,23,46,211,434,32,44
42,211,24,50,225,433,31,46
43,200,24,50,244,425,31,44
44,204,24,49,248,438,31,52
44,215,24,52,262,475,25,51
44,210,24,54,253,454,24,53
40,200,21,51,244,475,24,51
39,201,22,54,248,503,24,60
37,190,21,52,238,459,23,50
43,184,23,52,218,439,23,52
42,188,21,51,228,467,23,51
53,208,23,54,224,475,22,53
56,208,22,57,203,441,29,44
55,207,22,57,198,436,30,40
51,188,22,58,198,433,30,38
51,186,23,59,202,427,31,42
44,178,22,59,216,416,33,39
39,171,22,55,222,450,26,38
39,186,23,59,234,499,26,39
38,197,21,55,258,521,28,42
39,189,22,55,260,541,32,50
33,218,21,56,260,599,32,50
31,238,21,55,264,624,32,50
35,237,23,50,255,614,34,49
40,253,23,53,237,620,32,45
38,258,22,55,243,615,28,27
39,230,22,51,234,584,27,26
46,224,23,52,230,560,26,27
47,224,21,54,237,564,20,27
49,206,23,56,235,578,21,34
49,207,22,55,221,583,24,38
51,234,24,56,240,584,28,43
47,249,23,60,238,613,29,43
50,246,22,61,230,603,29,42
44,249,19,57,236,596,30,39
47,256,20,53,238,587,29,46
45,230,20,55,246,597,25,44
45,212,21,55,249,577,24,43
46,201,22,54,262,585,24,45
53,232,21,55,273,585,22,47
52,236,20,57,303,616,22,37
53,247,20,57,292,619,20,39
55,253,18,54,288,613,20,38
49,257,19,55,284,642,21,37
41,230,21,55,265,646,21,32
41,217,23,56,218,610,21,33
46,211,22,53,198,580,24,39
42,193,23,51,193,568,27,48
40,191,23,47,174,506,27,50
43,192,21,45,174,471,31,53
49,203,21,46,189,497,35,62
48,202,21,45,195,496,36,68
49,210,21,46,193,509,46,72
54,210,20,50,216,541,57,75
53,217,20,51,234,571,58,75
49,213,20,59,244,574,63,71
54,214,21,58,263,596,65,61
56,222,21,62,283,598,67,50
54,225,23,63,280,599,58,46
55,231,24,65,284,585,55,50
53,224,25,57,278,563,47,46
46,217,26,60,251,530,44,46
50,212,25,56,223,508,28,48
48,212,25,51,216,498,26,46
47,195,24,46,193,485,28,38
48,186,22,48,176,492,29,43
49,216,20,48,199,519,27,42
48,218,20,50,209,546,26,39
49,216,18,50,207,543,26,39
47,216,20,56,217,561,24,36
48,214,20,52,221,549,25,36
45,189,20,48,201,520,27,36
38,196,19,46,197,502,27,34
38,203,20,49,195,496,28,35
36,198,18,43,209,492,30,38
37,218,20,44,236,509,27,33
38,216,21,46,257,533,25,32
39,219,21,46,283,555,25,44
38,224,21,51,300,594,26,50
41,235,23,51,287,599,21,49
38,232,23,57,281,595,22,48
38,257,24,58,274,596,22,48
41,250,24,58,242,577,24,38
41,241,24,53,217,523,23,32
40,236,23,56,212,510,24,32
39,227,22,47,186,498,28,32
38,206,20,47,175,471,27,40
42,220,20,44,187,466,25,42
39,214,20,44,189,482,28,44
38,228,18,41,188,498,29,45
38,246,18,43,208,519,24,48
39,241,19,45,208,525,29,43
37,224,19,47,229,529,30,50
43,237,18,53,247,542,28,50
45,229,20,53,255,532,27,50
45,216,20,57,253,515,26,48
44,235,19,57,267,529,21,45
38,246,19,59,253,538,20,35
40,249,20,58,236,522,19,39
42,257,19,60,229,511,19,40
45,265,19,57,243,556,19,40
46,262,20,59,236,556,20,46
46,270,20,57,250,553,22,47
39,266,20,53,243,553,23,41
43,263,20,51,247,563,22,37
45,267,22,52,248,525,24,45
54,267,23,47,237,525,25,45
57,267,24,48,206,499,26,43
58,272,22,48,218,494,27,45
58,273,22,48,210,478,27,56
78,268,21,44,186,465,30,57
76,263,19,42,208,443,29,57
74,253,18,40,231,470,28,59
80,255,18,42,240,481,29,71
89,246,19,44,262,487,31,70
71,242,18,48,274,497,27,68
66,237,18,51,363,506,27,66
69,236,19,53,421,486,33,69
66,226,21,51,457,479,31,60
46,233,22,51,460,476,30,53
50,241,22,47,456,452,31,55
58,256,23,47,378,445,31,53
55,246,22,48,303,442,23,47
49,247,21,51,239,429,23,41
56,246,22,52,213,437,22,39
54,304,21,54,232,502,29,42
46,294,21,55,240,515,30,45
45,307,21,56,255,537,31,50
48,322,22,57,254,552,33,56
45,314,19,55,259,553,36,63
58,265,19,57,250,508,35,58
58,265,20,54,254,511,37,55
74,262,20,50,267,527,45,54
77,273,20,48,291,568,44,50
78,274,20,55,300,585,45,46
67,263,21,55,316,600,47,53
68,273,22,57,318,608,46,56
58,263,22,58,296,586,39,56
59,233,21,59,267,542,39,56
56,251,21,57,260,539,36,57
59,241,20,57,251,508,31,66
59,230,19,58,245,484,37,66
55,236,19,57,251,503,38,65
52,224,19,53,259,506,37,65
53,205,19,52,259,472,38,61
49,221,18,52,234,492,36,44
52,227,17,50,235,496,27,44
52,226,16,53,238,485,27,47
49,230,19,52,228,498,28,49
46,236,18,52,233,524,27,47
46,233,19,52,244,531,29,46
42,242,18,54,258,544,34,46
38,244,19,54,268,557,33,50
41,254,20,59,285,555,33,56
40,249,21,57,277,553,31,58
39,255,21,58,268,563,31,57
47,247,22,55,254,549,29,55
55,250,22,52,236,529,34,54
54,247,20,47,223,526,36,47
63,268,21,49,250,557,37,44
77,255,20,47,261,575,35,49
75,261,20,52,282,610,33,54
72,255,20,54,286,620,30,51
72,246,22,61,284,631,27,51
66,223,19,58,272,607,31,55
60,222,21,58,265,585,31,53
68,210,21,55,245,562,31,55
68,210,21,53,245,575,29,53
68,238,19,49,255,571,30,53
68,241,22,53,264,573,28,49
60,242,21,55,272,591,27,48
54,251,21,57,285,596,27,38
67,252,21,58,300,592,27,42
75,245,21,56,298,576,28,50
74,228,19,56,282,587,29,57
80,244,19,55,270,568,32,59
78,233,20,53,254,565,34,60
78,251,20,52,249,534,32,60
73,232,21,55,233,542,33,56
77,248,21,55,235,518,31,49
76,227,21,54,236,490,29,47
76,238,20,57,244,476,35,59
66,222,22,56,239,493,41,80
63,219,22,54,265,486,38,82
57,215,23,52,258,486,45,86
57,252,24,59,285,536,46,87
51,237,24,57,295,525,42,80
49,253,22,59,310,526,41,54
47,269,23,67,315,546,45,51
55,270,23,72,343,551,42,49
48,310,22,74,365,617,43,59
49,326,23,78,368,637,44,63
52,339,25,79,347,631,42,65
52,340,23,73,323,616,42,62
43,334,24,68,293,595,43,88
47,274,24,59,220,478,42,85
59,272,23,52,187,436,45,91
65,223,20,48,188,426,42,91
70,224,21,45,211,409,41,98
71,221,21,47,221,425,37,75
69,235,20,48,245,416,36,71
67,244,19,50,255,427,34,59
58,273,22,55,275,429,34,59
60,263,22,54,273,421,38,66
64,266,22,53,261,405,40,63
76,259,22,54,259,395,38,62
68,228,22,53,273,383,38,70
71,207,20,54,260,391,38,71
70,226,21,57,252,376,35,59
70,233,20,59,268,385,34,60
71,239,21,59,280,412,34,69
77,247,21,64,258,394,32,71
84,262,24,61,252,381,32,70
81,252,24,59,250,409,29,70
92,250,23,57,243,381,25,71
90,230,24,55,219,351,33,64
89,230,24,48,212,379,32,60
87,203,24,45,198,363,32,60
90,202,23,44,196,336,35,60
84,202,24,42,180,345,39,59
81,216,24,44,177,336,35,60
84,220,22,46,193,319,35,54
78,219,21,48,202,321,46,57
74,212,20,48,212,331,44,58
72,206,21,51,225,352,44,59
71,190,20,50,258,399,42,59
68,193,21,51,271,406,42,71
70,191,21,52,280,422,31,68
75,203,21,59,316,477,33,75
71,226,20,59,320,475,30,75
70,238,21,62,293,447,36,82
70,238,21,60,277,461,41,77
71,255,19,63,267,465,42,76
67,258,19,59,227,458,45,72
69,246,20,59,210,471,51,72
63,247,20,55,222,486,49,68
64,248,21,57,230,483,49,63
60,237,22,53,242,487,49,62
62,230,23,52,235,446,45,58
63,251,24,51,246,437,39,58
65,243,24,50,244,450,36,57
74,246,23,49,240,431,29,59
73,236,25,52,228,402,29,59
73,229,25,49,225,404,29,60
71,203,24,49,226,382,27,64
69,207,23,48,236,354,30,61
55,189,25,51,246,393,29,57
58,202,24,46,257,415,29,57
56,198,24,50,260,431,30,53
54,209,23,51,259,478,29,43
55,203,25,50,247,488,25,61
53,220,24,54,226,474,26,63
51,224,24,55,221,471,27,65
52,231,24,52,216,470,28,65
48,221,23,52,203,440,27,65
48,233,22,54,209,436,29,53
51,210,21,45,215,437,28,55
47,205,20,47,200,435,30,52
42,204,20,47,208,426,32,55
45,198,20,47,212,449,32,60
44,194,19,46,204,462,30,58
38,213,19,47,220,481,32,53
40,211,19,49,237,512,29,52
39,204,19,52,242,520,28,51
36,202,18,56,249,530,31,49
36,192,18,56,258,534,33,48
44,204,19,59,251,517,33,52
48,209,19,59,244,495,37,56
52,208,18,58,233,494,33,55
55,241,20,55,238,473,33,51
59,258,22,59,227,479,32,52
54,239,21,57,220,501,33,63
51,236,23,55,217,528,30,62
49,250,23,58,230,548,31,62
47,216,21,60,238,593,31,62
42,206,20,58,235,605,32,60
42,211,19,61,241,610,30,51
38,211,17,59,239,599,31,53
40,205,17,55,222,584,28,51
39,242,18,53,221,601,31,58
38,251,18,50,222,594,29,64
36,261,18,47,229,610,28,59
40,258,19,50,265,644,27,55
34,248,20,53,285,659,26,54
34,224,19,52,286,644,24,45
42,222,19,57,301,661,26,34
44,206,20,57,306,663,25,43
43,211,20,55,276,633,29,55
50,233,20,56,279,628,30,63
51,230,22,55,262,602,29,66
45,217,23,51,240,565,30,65
51,217,23,50,220,529,30,68
58,209,22,52,241,556,34,63
52,189,22,47,214,533,34,63
51,209,22,47,223,548,35,71
55,205,21,49,236,559,34,73
49,207,21,48,241,568,37,69
44,207,21,47,224,566,34,72
48,208,22,48,235,575,33,66
49,188,20,49,242,569,32,58
46,201,20,46,243,582,36,61
55,197,18,48,250,572,33,69
54,213,20,49,243,539,33,67
56,210,20,51,257,553,34,66
59,230,21,55,252,530,32,65
60,224,21,55,246,503,27,65
54,242,24,56,239,513,31,62
50,226,22,56,235,503,30,58
47,237,21,56,214,507,31,62
45,232,21,55,200,528,30,61
43,232,21,56,193,535,32,57
43,216,19,57,194,533,33,55
46,228,21,56,201,550,35,54
42,227,20,55,193,522,34,56
43,224,22,51,190,503,35,57
48,223,24,50,190,508,35,60
45,236,25,48,184,488,32,67
52,244,24,48,198,479,30,70
53,239,23,47,231,510,30,67
49,220,23,52,258,532,29,73
47,227,20,55,290,545,26,79
48,217,19,56,296,590,27,75
38,202,19,61,312,600,28,78
38,208,20,63,308,592,28,77
42,222,21,61,284,595,30,75
43,225,23,59,250,574,30,72
40,232,23,57,241,539,30,67
54,247,24,55,198,521,35,67
55,242,24,51,162,504,35,69
52,249,23,49,173,482,34,67
52,243,22,47,184,492,36,60
53,242,22,47,190,494,33,55
58,241,21,43,210,519,33,55
58,238,22,43,213,522,34,52
63,230,24,45,221,530,35,47
64,237,23,50,239,525,32,46
66,239,23,50,239,533,32,56
51,231,24,50,237,530,26,46
57,258,23,57,451,540,27,50
57,258,22,60,744,541,27,49
59,265,22,58,848,548,28,53
55,272,23,60,851,551,28,48
57,274,23,59,846,541,28,52
51,255,23,54,761,543,27,53
48,266,23,53,475,539,28,59
42,264,23,50,206,530,29,56
45,261,22,49,188,507,32,60
41,263,22,50,202,497,33,60
48,270,22,49,173,472,40,64
46,261,22,49,165,450,42,62
48,257,23,51,202,424,44,71
46,250,22,46,508,438,42,66
51,256,20,47,674,428,41,70
42,260,21,47,708,441,34,68
42,261,22,46,720,462,33,67
40,266,21,47,717,488,34,59
42,279,21,52,567,540,36,60
40,265,22,54,366,555,38,55
42,265,22,59,315,572,37,52
46,270,21,61,320,569,37,52
51,273,21,61,317,573,33,50
48,270,23,59,278,508,30,61
46,283,23,60,263,485,27,64
42,269,23,52,239,439,34,65
52,266,22,49,192,409,36,68
49,256,21,47,183,366,37,69
50,243,21,51,176,367,42,67
63,254,19,47,180,388,43,64
64,264,20,49,206,404,38,63
56,259,22,50,218,434,35,60
58,246,21,51,228,450,36,63
57,235,22,47,247,439,32,53
61,231,23,49,248,446,36,61
62,268,22,52,273,498,37,57
63,273,21,55,279,519,38,56
62,290,22,56,293,573,40,51
70,313,21,57,294,615,39,55
61,305,20,57,303,626,36,43
59,266,21,57,283,620,39,46
62,256,20,59,282,612,41,52
64,245,20,58,266,574,42,57
55,234,20,58,266,564,41,54
51,239,22,60,250,564,39,57
54,238,20,58,243,542,37,59
50,249,22,54,237,547,33,63
51,252,21,55,242,553,27,59
51,240,20,54,233,551,25,62
49,242,20,52,241,558,27,60
46,240,21,54,240,564,26,55
50,257,19,55,254,553,30,50
50,279,21,57,274,576,30,50
51,284,22,57,277,583,29,47
51,279,22,59,281,569,30,45
50,292,21,59,292,573,29,46
43,275,21,58,314,593,23,40
41,253,19,55,291,570,25,37
42,266,19,57,300,556,25,52
44,269,19,55,318,564,25,52
48,262,21,57,303,548,26,55
49,265,22,57,269,539,28,57
48,271,23,61,279,551,25,57
47,248,23,59,264,550,28,49
47,227,23,57,235,526,26,49
51,238,21,56,246,546,26,51
51,227,21,58,251,527,30,54
51,222,21,55,246,540,30,57
51,246,21,57,258,576,32,51
52,254,21,58,263,600,35,53
43,238,22,57,278,602,34,47
44,252,22,56,274,627,32,48
43,250,22,56,271,598,36,61
44,269,21,57,277,577,33,60
41,270,21,56,277,576,30,60
43,275,18,54,253,557,30,62
46,274,18,56,266,532,30,57
44,262,17,57,280,552,28,41
41,254,19,59,288,564,27,39
40,261,18,62,292,541,27,42
42,267,20,63,295,563,29,46
37,263,21,61,286,545,29,48
39,269,21,61,283,522,30,46
40,242,19,57,261,497,31,52
42,228,20,54,252,488,33,60
42,220,19,54,255,458,31,58
40,206,16,54,249,478,33,58
37,197,17,52,240,472,30,60
50,188,18,52,244,449,32,67
53,212,19,52,243,466,30,59
52,204,21,51,238,459,33,58
59,213,23,53,250,439,34,70
60,219,22,53,250,449,37,74
53,272,22,55,277,519,40,66
48,344,21,61,339,617,43,69
48,365,19,64,369,668,43,69
46,386,19,69,374,687,39,60
49,407,21,72,376,683,36,54
48,376,22,69,348,622,28,52
48,299,21,63,275,490,26,43
48,273,21,58,222,411,23,40
41,228,20,47,187,356,22,30
37,177,19,41,180,329,22,28
40,186,18,42,188,323,27,35
39,177,18,40,201,341,30,39
44,190,19,44,210,351,30,46
47,207,19,45,226,348,31,49
48,206,20,53,221,338,31,49
43,201,21,53,223,343,27,43
43,205,22,54,218,330,24,38
43,206,23,52,221,318,28,33
38,194,25,55,217,326,27,34
42,208,24,49,223,335,26,43
43,225,22,53,253,368,24,49
57,232,21,53,276,408,30,57
54,235,21,56,294,419,26,62
57,250,20,57,305,447,27,60
52,256,21,57,304,466,30,53
59,245,23,54,283,444,31,51
47,246,22,55,264,416,26,50
48,264,22,52,239,419,28,48
45,250,21,46,219,392,27,52
50,243,21,46,205,363,26,53
43,242,21,42,186,354,26,62
40,236,22,38,172,334,25,60
47,297,21,44,201,412,25,59
48,314,22,45,210,426,26,57
45,325,21,45,239,436,23,57
50,321,20,48,249,447,23,56
51,321,20,50,269,464,22,51
43,235,20,47,257,392,22,48
49,228,21,52,284,414,19,49
48,219,23,55,270,440,21,48
42,240,24,58,283,452,20,44
41,258,24,61,289,480,21,56
42,267,24,61,291,496,20,56
35,285,24,59,254,478,23,58
42,293,23,58,252,460,28,58
40,283,24,53,229,448,30,69
46,275,24,51,206,415,30,63
61,298,24,54,198,394,32,64
63,271,22,53,207,391,31,61
59,255,21,51,200,388,26,60
59,241,19,51,203,386,25,47
59,228,18,51,210,400,27,42
44,191,18,45,203,400,23,40
45,191,20,46,228,419,24,39
46,191,20,45,229,415,24,39
47,226,20,47,255,413,24,42
44,251,21,48,251,400,25,51
42,266,21,49,267,408,25,55
38,268,20,50,268,419,27,56
39,267,19,55,280,444,27,56
38,250,20,57,278,473,29,49
42,227,19,55,284,500,28,46
47,213,20,56,271,516,31,55
47,210,22,54,254,501,29,57
46,217,23,52,242,498,30,57
45,213,22,48,212,470,27,58
40,223,22,48,199,457,25,53
40,213,20,45,191,441,25,44
37,207,18,45,179,415,27,42
40,201,19,44,191,406,26,41
42,196,20,45,200,424,26,38
41,185,21,47,219,431,28,40
41,194,21,52,240,457,26,42
42,192,23,52,250,493,25,43
45,199,20,54,253,508,22,42
55,214,20,55,262,530,24,45
54,214,20,55,254,558,27,47
50,204,18,52,244,549,30,44
60,238,18,53,244,549,31,46
56,229,20,54,234,552,32,50
51,274,19,53,233,590,33,54
68,315,20,54,235,624,31,68
71,322,23,58,244,643,29,70
65,308,22,56,242,653,28,69
68,319,22,61,256,681,27,71
66,292,23,63,246,647,24,67
48,249,22,63,245,618,27,52
45,267,21,63,246,621,28,47
48,286,21,65,249,635,28,53
43,276,22,59,238,605,29,45
39,261,21,56,239,605,28,46
40,264,23,56,241,591,22,46
39,231,22,55,227,553,22,45
40,209,21,53,218,518,24,45
42,207,23,58,216,521,22,47
43,196,21,58,221,526,22,57
47,190,19,55,238,549,23,56
48,195,20,57,259,588,25,56
42,177,22,57,260,622,21,48
40,189,20,55,269,637,23,53
55,210,22,55,265,633,22,46
54,209,23,53,236,605,21,45
52,225,22,52,214,579,22,46
52,244,21,51,210,566,22,54
58,262,21,48,212,588,22,49
45,247,21,46,226,603,26,46
40,250,20,50,232,606,28,48
42,245,21,48,239,616,26,48
52,248,20,50,251,617,26,50
52,223,21,50,247,587,29,49
52,219,21,52,239,573,27,49
55,220,22,55,249,589,25,49
56,214,22,56,247,577,25,47
49,188,22,55,227,550,25,38
51,218,21,58,240,551,24,46
53,226,21,58,238,536,28,54
52,230,21,51,232,507,30,56
50,231,20,51,247,533,33,57
51,253,21,50,258,534,32,59
44,288,21,50,253,580,29,55
44,301,22,53,252,610,26,50
41,312,21,54,258,651,25,48
39,322,21,55,249,665,22,47
42,315,21,55,247,687,23,44
43,269,21,52,238,660,23,41
39,266,19,48,232,650,24,38
40,255,20,48,219,624,25,50
43,239,20,45,216,585,24,56
39,235,20,47,215,564,24,55
41,226,20,49,208,548,25,55
43,213,21,51,213,544,22,56
45,202,20,51,223,544,20,51
47,201,19,56,227,569,22,46
49,199,19,56,242,599,24,51
45,212,19,56,263,614,24,52
44,227,19,56,270,633,24,53
43,249,19,57,275,650,23,56
42,261,20,54,256,634,26,55
40,267,20,51,245,608,24,52
40,260,19,46,219,580,25,52
43,256,19,45,200,543,28,57
46,237,20,43,167,507,30,52
50,225,20,41,185,518,27,52
53,217,20,42,178,525,27,51
55,217,21,42,177,536,26,52
53,210,21,46,201,566,24,68
51,217,21,49,230,594,22,67
45,238,20,51,244,601,22,68
40,231,21,53,260,617,22,70
50,237,21,56,271,626,20,72
50,255,21,52,266,632,21,51
48,256,22,49,261,611,22,53
47,251,22,50,254,596,21,56
51,284,22,47,255,598,21,52
42,283,22,47,255,583,26,51
47,286,24,52,267,568,24,52
48,298,23,54,258,578,23,53
53,306,22,53,248,572,26,54
49,284,21,54,236,545,27,75
45,289,20,52,227,555,25,70
43,272,17,49,213,540,25,74
43,266,18,50,214,527,24,73
38,262,19,49,218,525,25,72
36,255,21,47,223,497,24,54
45,250,22,49,221,471,25,58
40,264,23,46,216,462,27,57
45,274,23,48,232,454,29,57
45,265,23,50,234,457,26,59
46,274,22,52,231,494,24,56
40,278,20,54,257,511,21,52
44,262,20,58,277,527,22,51
44,263,20,55,284,542,27,57
43,267,20,57,302,551,29,55
44,268,20,57,306,544,31,55
44,275,22,56,287,541,31,53
41,287,22,54,257,513,29,51
34,268,22,52,231,488,24,48
36,278,23,47,201,474,22,42
33,275,23,47,179,452,23,46
36,266,20,44,171,435,27,46
38,253,21,42,185,448,30,50
39,254,20,45,216,477,30,59
37,235,23,46,219,463,31,60
39,241,25,45,226,478,31,62
38,231,26,46,245,487,27,66
33,228,25,47,253,491,25,70
34,230,25,48,251,495,23,59
37,232,23,53,264,537,23,57
34,222,22,56,276,547,24,55
31,241,20,57,284,584,26,57
36,269,21,61,296,609,24,57
45,266,21,61,298,609,27,57
44,280,20,59,291,608,25,57
43,290,19,59,278,606,22,54
46,275,19,59,261,569,20,59
45,283,19,58,260,580,24,52
38,296,20,57,246,567,26,50
38,292,20,55,247,541,26,50
50,286,20,54,253,529,26,57
48,290,20,52,248,534,25,50
49,256,20,48,235,488,23,48
46,237,19,47,247,500,17,48
46,270,20,53,265,534,18,60
36,276,20,53,267,550,16,56
45,283,22,58,282,563,19,54
44,300,21,60,292,588,23,56
52,300,22,64,284,590,24,57
56,260,21,60,274,585,24,48
56,255,23,60,280,598,24,50
52,245,21,60,279,601,23,58
50,243,24,60,276,602,21,56
43,257,24,56,275,609,21,56
41,271,25,58,267,597,22,55
38,275,24,59,261,587,25,51
35,281,24,54,253,590,26,39
36,268,22,55,242,573,24,41
42,263,23,55,247,557,25,41
43,257,22,56,256,568,27,39
42,251,22,60,253,560,24,37
42,262,23,65,262,566,23,40
43,281,23,61,266,584,23,38
35,267,22,62,261,571,22,36
32,264,21,60,258,560,21,33
34,264,22,57,260,575,23,41
36,245,20,52,253,551,22,37
32,229,19,58,258,537,24,37
32,239,19,61,268,575,31,42
36,244,19,61,271,572,29,43
39,260,20,62,282,573,28,37
37,280,20,64,291,601,30,44
37,271,22,62,291,600,29,41
37,272,23,59,290,580,22,36
32,273,23,57,290,594,22,41
30,250,23,59,274,573,22,40
30,228,23,58,258,544,19,34
31,228,23,55,251,543,22,41
31,224,21,54,243,524,21,42
35,226,21,61,235,512,21,41
34,280,21,60,248,540,24,43
33,280,21,60,256,523,25,41
33,293,20,59,271,520,25,34
32,312,21,60,273,534,29,34
31,291,20,52,272,511,30,28
32,243,20,48,271,480,30,24
37,261,20,48,274,508,30,24
37,327,18,52,324,581,29,27
57,352,19,55,351,628,26,33
54,366,21,59,350,624,35,35
56,381,22,61,346,611,35,36
57,384,23,65,332,580,35,39
58,311,23,60,258,470,35,46
43,255,23,56,214,378,34,42
45,241,21,54,214,369,24,41
41,208,21,52,218,372,24,41
35,196,23,53,240,400,25,39
31,197,22,57,244,403,25,30
26,211,23,61,255,409,26,29
19,228,23,65,266,434,27,28
20,232,22,68,259,430,24,26
31,227,18,69,259,410,21,27
42,242,19,68,260,414,21,29
64,233,21,64,245,389,18,47
70,222,19,59,233,372,18,51
70,224,20,54,240,394,19,51
67,214,20,52,228,388,21,51
66,200,21,52,242,397,19,54
44,197,20,54,257,432,19,40
34,196,21,54,255,417,18,35
35,187,20,55,243,390,17,36
34,184,23,52,246,405,16,35
29,194,24,53,239,403,17,29
34,192,23,49,222,374,16,37
66,188,24,48,210,382,19,57
71,202,23,49,211,380,21,68
86,229,22,51,209,365,22,85
84,227,20,46,198,356,23,90
84,230,22,52,214,369,24,88
66,229,20,52,224,376,22,80
67,215,20,52,234,384,23,83
54,195,19,50,243,400,27,72
81,258,20,55,263,419,28,70
86,273,18,52,266,448,40,85
94,286,21,53,276,464,49,112
129,294,22,60,295,498,54,111
145,300,23,63,294,516,54,115
140,268,23,62,291,507,54,120
141,267,23,64,275,472,46,129
148,264,22,64,259,455,39,130
120,268,22,67,229,415,36,137
99,255,20,67,219,362,33,135
86,228,21,64,200,356,31,134
84,222,21,63,206,370,31,118
60,235,23,65,219,386,30,104
51,254,23,57,252,432,26,92
57,262,23,53,246,483,22,88
57,276,22,54,236,495,23,83
49,262,21,51,243,485,22,85
45,264,19,49,249,499,20,68
42,235,19,43,227,460,21,62
27,229,19,45,236,418,22,57
27,217,19,48,273,425,24,49
26,227,22,55,272,434,23,38
27,200,24,56,287,436,22,32
29,207,25,59,291,472,18,43
29,207,24,59,298,486,18,42
31,230,23,61,293,541,15,53
31,244,21,57,290,563,18,55
28,253,19,58,264,543,18,55
26,263,19,57,247,534,19,43
