21,37,60,68,906,862,31,56
21,31,55,69,928,900,32,56
22,30,58,73,949,898,26,36
22,29,60,71,851,766,28,31
22,42,52,71,864,783,29,32
22,62,51,71,877,788,28,29
24,68,53,79,814,719,28,29
23,69,44,68,801,719,38,29
25,69,41,61,802,710,37,32
24,60,49,63,761,687,37,30
24,38,48,68,744,676,38,30
23,25,50,64,727,648,37,30
22,21,51,65,701,624,31,29
20,22,52,65,692,626,30,26
21,25,44,62,688,596,28,25
21,25,46,62,697,614,26,24
22,23,43,49,757,672,28,24
21,23,41,48,779,673,29,22
21,22,41,50,788,706,29,20
20,22,45,56,805,742,31,22
18,23,47,53,829,745,32,23
21,22,55,68,866,771,31,24
24,23,61,71,905,800,27,23
23,23,63,69,903,764,25,23
24,25,62,67,887,736,27,22
25,26,64,69,878,732,26,21
23,28,57,60,800,665,25,22
21,27,50,59,750,633,29,23
20,29,46,59,753,638,32,26
19,24,48,65,764,657,29,25
20,26,44,71,729,643,30,25
20,25,47,72,740,636,30,25
20,25,47,69,751,637,30,26
23,23,46,73,768,646,30,25
23,25,46,77,771,626,32,25
23,21,44,69,779,629,32,29
25,21,47,75,777,638,32,30
25,21,50,77,785,650,30,30
22,22,49,82,769,651,28,30
22,22,47,73,782,666,30,34
24,23,53,73,843,740,29,32
22,24,50,69,874,785,30,31
21,25,52,75,879,774,31,31
21,24,53,66,914,787,30,32
24,23,55,79,933,817,28,30
22,25,51,102,890,761,28,29
22,26,51,97,991,922,27,31
23,25,46,91,1024,1004,30,29
23,26,47,91,1003,1036,30,27
20,26,46,81,991,1044,33,27
21,25,55,67,973,1042,33,26
21,23,54,70,809,852,34,22
24,22,53,72,706,756,31,23
23,22,55,78,655,683,29,23
24,23,57,80,610,625,25,22
22,22,48,62,596,625,26,25
23,22,52,73,636,658,23,25
19,22,55,73,665,659,24,27
21,23,51,64,666,674,29,28
22,22,47,67,659,672,31,29
22,24,50,77,656,648,30,26
20,22,46,64,621,624,32,27
20,23,45,62,596,608,33,25
21,22,50,71,579,582,29,23
22,24,50,66,563,572,28,23
22,23,47,58,551,568,28,25
23,23,46,59,548,562,27,28
26,24,43,62,547,567,23,27
25,23,45,50,565,591,24,28
23,21,49,67,576,588,21,25
23,23,50,63,580,592,23,23
22,24,48,63,580,591,25,23
21,23,50,77,593,588,25,25
22,24,52,87,597,589,26,29
23,25,50,78,611,633,30,30
23,23,52,80,608,628,32,34
24,24,53,81,624,642,31,33
22,23,52,67,620,652,31,33
22,24,52,85,632,647,32,29
22,25,52,86,640,625,29,30
22,26,51,86,678,641,26,26
23,24,52,88,705,642,28,24
24,28,53,91,727,645,28,27
24,28,44,67,733,640,27,27
24,27,40,58,714,617,28,27
25,28,43,57,684,594,27,27
24,28,46,52,646,574,27,27
26,26,45,50,616,550,26,25
24,24,49,48,588,535,26,24
25,24,52,52,576,525,27,25
23,22,49,57,572,531,28,27
24,23,45,59,581,548,28,26
22,22,49,57,581,550,29,25
21,24,46,58,595,553,29,27
21,25,44,63,616,583,27,26
21,26,41,56,616,582,26,23
23,27,43,53,614,566,27,23
23,27,39,48,625,562,25,21
26,25,44,53,599,545,27,21
25,24,47,51,580,512,29,22
25,25,55,53,593,513,28,24
23,24,62,62,580,507,27,23
23,25,65,66,554,502,29,26
19,24,64,63,577,519,30,24
21,25,61,63,582,535,30,25
19,26,65,69,558,527,28,24
21,23,63,60,568,534,29,24
22,23,62,58,564,525,29,25
23,24,59,57,535,505,24,27
23,23,61,52,539,497,23,26
24,23,48,43,525,482,23,26
23,24,42,52,501,462,23,27
23,26,41,55,524,473,24,23
22,25,45,65,517,478,26,24
21,25,40,63,500,464,26,24
18,23,42,63,518,483,28,24
18,23,39,55,519,484,29,22
18,21,37,54,499,480,27,23
19,21,34,42,517,489,24,22
18,21,43,43,522,500,24,21
20,20,44,45,512,488,23,22
22,21,45,45,545,516,21,23
22,22,42,42,549,539,21,23
23,24,42,60,542,543,23,21
25,25,36,60,548,559,25,25
27,26,48,58,557,562,25,26
27,27,54,60,521,547,26,25
26,26,61,60,524,547,26,26
27,27,64,78,535,559,28,28
25,27,67,80,543,551,28,26
24,27,60,80,562,583,28,24
23,25,58,83,582,591,26,25
25,28,53,81,588,576,26,25
27,26,54,56,604,591,26,24
27,26,49,55,602,593,24,25
27,25,46,57,591,573,24,24
26,26,43,53,589,579,24,23
26,23,45,55,604,587,24,24
22,26,41,46,579,556,22,22
22,25,44,45,575,551,24,22
22,24,48,42,587,559,26,23
24,24,47,46,593,559,26,24
21,23,46,44,583,553,26,22
23,23,45,43,614,562,25,23
21,25,52,52,611,557,22,21
22,27,50,49,594,544,27,25
20,30,62,49,589,527,27,27
20,30,63,54,574,518,28,27
20,29,65,68,553,517,31,28
21,29,57,68,573,528,32,29
19,28,57,79,581,527,27,25
21,25,42,76,593,541,27,23
21,27,41,75,633,563,29,24
21,26,40,68,645,566,27,24
21,25,41,71,642,562,26,23
22,27,40,66,665,583,26,24
22,28,42,66,647,563,29,25
25,25,46,71,628,549,31,24
25,25,46,70,630,538,31,25
25,25,49,59,602,511,31,25
25,23,52,59,585,480,31,23
27,21,53,64,608,509,31,22
27,23,50,58,580,495,29,23
25,24,48,56,555,487,30,21
26,25,46,61,593,517,30,22
27,24,42,55,571,511,30,21
23,24,44,52,557,494,30,20
22,24,46,55,588,514,28,22
24,23,48,65,603,528,26,22
25,21,55,61,578,515,26,21
23,22,55,61,611,536,26,21
23,24,59,59,598,537,25,22
25,24,60,68,598,532,26,24
26,22,60,60,606,528,26,24
24,24,54,62,603,516,26,26
25,24,55,70,608,507,26,27
25,25,48,69,611,497,24,28
21,24,47,55,576,476,28,25
19,25,44,55,569,470,29,28
19,24,41,54,634,556,31,26
19,24,42,49,626,595,31,27
20,22,50,63,640,610,33,25
23,21,45,64,637,610,29,24
24,21,46,67,594,577,28,22
24,20,46,67,492,474,26,24
22,21,47,73,454,397,26,22
21,22,44,66,417,371,27,25
20,22,47,67,406,358,29,27
20,23,47,63,439,398,29,27
19,26,51,61,502,454,28,29
21,28,51,50,495,456,29,30
20,30,49,52,517,442,26,28
23,34,56,57,563,468,28,28
22,33,59,58,566,453,31,30
23,32,54,60,509,400,32,29
24,30,58,60,503,389,30,29
23,27,54,55,471,372,32,29
24,25,52,63,411,334,29,28
23,26,50,67,385,324,24,24
23,26,53,70,386,335,24,26
22,25,44,72,377,334,23,26
23,27,46,80,386,365,25,27
20,25,46,91,409,418,25,27
25,27,45,88,414,419,30,30
26,77,45,84,446,436,32,28
26,93,47,82,476,461,32,30
26,99,46,90,475,447,31,31
29,101,41,71,473,404,31,31
25,101,44,76,483,415,26,27
26,71,45,76,451,389,24,26
26,49,49,87,486,409,24,24
26,33,48,71,483,406,23,24
22,28,50,71,479,424,23,27
24,24,51,70,484,427,25,27
22,27,56,76,512,431,24,25
21,22,52,59,474,414,24,25
20,23,53,60,491,429,23,24
21,23,53,59,493,419,22,21
22,24,53,63,476,412,23,22
22,21,53,57,477,423,24,22
24,23,58,61,463,411,25,24
27,24,61,63,437,398,26,27
26,25,59,67,434,401,26,27
24,23,61,66,438,402,24,28
26,23,56,66,402,380,25,29
25,25,52,66,428,399,25,26
25,25,48,64,444,403,24,25
25,26,48,68,493,434,25,25
24,27,46,65,540,480,26,25
22,27,48,69,584,511,30,25
24,26,53,67,558,481,29,26
22,26,56,72,554,487,28,25
24,25,58,59,542,468,27,26
23,24,64,69,489,434,31,26
24,25,66,66,444,417,28,26
23,24,62,78,488,455,28,29
22,23,61,74,490,455,28,27
27,24,61,76,474,456,29,31
36,26,57,60,550,506,27,42
35,25,62,60,561,510,28,42
37,28,70,64,568,515,27,43
38,28,69,68,587,530,28,45
34,29,70,67,574,522,32,42
26,27,71,77,547,492,32,34
30,29,76,80,574,513,31,36
26,26,85,75,531,498,32,33
28,25,91,75,542,508,32,32
28,24,99,78,583,533,31,34
28,27,99,72,576,537,29,31
24,29,99,71,584,536,29,29
25,30,96,67,623,557,29,29
25,31,98,73,617,567,28,29
23,30,95,73,637,580,28,32
23,29,101,71,680,623,29,31
25,27,93,71,658,617,29,30
23,26,89,66,668,611,31,32
20,24,81,57,673,587,31,30
22,25,75,48,624,563,28,26
20,22,61,53,585,525,30,27
23,23,68,59,600,523,29,28
23,23,73,58,574,527,28,28
27,27,79,65,580,553,27,28
26,28,83,83,644,589,27,27
27,29,88,79,659,604,23,27
24,28,85,74,682,640,24,26
27,28,78,72,717,669,23,24
23,26,70,68,750,721,24,24
22,27,66,47,735,714,26,25
22,26,58,48,727,699,27,25
21,27,55,49,702,676,27,23
20,25,46,76,683,669,30,26
23,25,64,83,643,615,32,28
24,24,66,85,619,616,30,26
25,23,68,85,598,603,30,26
26,24,69,89,616,604,31,28
26,25,69,67,632,602,29,25
23,25,71,58,630,601,27,23
24,23,68,59,650,604,26,26
24,24,65,59,688,635,25,24
23,24,67,55,689,650,29,22
23,23,65,53,686,634,31,21
23,25,49,52,677,628,31,21
23,28,51,51,655,630,31,19
21,27,49,49,640,614,34,22
22,29,43,45,644,613,30,23
21,30,50,52,634,641,26,25
19,29,53,61,650,661,28,26
19,27,54,59,670,660,28,28
22,28,59,62,650,661,29,27
22,28,61,64,627,645,30,25
22,26,61,59,632,625,30,26
25,25,53,53,610,601,32,25
24,26,55,59,565,572,32,24
22,24,49,57,557,550,29,24
23,22,47,58,551,561,31,25
23,22,39,57,508,551,32,22
21,23,40,52,515,549,30,22
22,22,35,49,523,562,29,23
22,23,38,48,529,579,30,24
21,23,39,45,529,572,27,23
20,24,47,73,522,589,28,25
20,23,48,79,568,615,30,28
19,26,47,77,614,632,32,24
18,25,44,78,651,648,30,25
20,27,47,80,663,654,30,25
24,26,50,70,679,635,28,24
23,27,52,64,645,616,25,23
23,26,58,67,607,594,29,28
25,28,61,69,549,564,28,26
25,26,60,73,536,555,28,27
23,26,54,65,521,542,28,27
23,26,55,72,514,535,28,26
26,25,52,73,511,536,27,24
24,26,54,70,530,553,30,25
23,27,56,66,552,563,30,24
24,27,55,59,555,565,29,23
25,26,56,53,576,585,30,28
22,27,59,45,591,597,26,25
24,25,68,49,595,595,27,27
23,24,69,49,599,594,27,26
22,24,71,51,616,601,29,29
21,23,68,50,619,589,27,25
23,23,63,54,641,595,31,28
20,24,51,50,655,600,27,25
20,22,48,47,666,608,25,23
20,23,44,48,669,615,27,23
20,22,43,45,662,613,27,23
22,21,42,48,640,599,24,23
24,20,39,47,631,590,26,23
25,21,37,50,611,578,28,26
25,21,38,49,632,629,28,26
24,21,39,65,615,615,29,26
23,22,43,65,605,609,29,24
21,23,44,64,611,613,29,24
21,22,46,70,586,598,28,21
23,20,46,70,565,540,26,20
22,23,51,65,594,563,28,22
21,22,48,60,624,577,30,25
20,21,52,69,616,583,30,26
21,24,52,68,664,610,34,27
21,26,51,67,667,609,34,28
22,25,55,62,663,608,32,28
23,26,54,64,655,603,31,24
23,27,58,62,642,578,30,27
21,25,56,56,635,568,26,27
21,23,62,57,616,556,25,30
21,23,54,57,587,528,25,28
24,22,54,57,554,500,23,29
24,20,49,50,556,502,24,29
24,20,49,46,503,481,26,29
25,21,45,44,494,476,28,29
26,23,43,48,504,484,28,29
24,22,43,51,514,498,32,31
25,24,38,50,499,480,31,29
25,23,37,54,527,482,30,27
24,21,35,59,501,462,28,24
23,21,38,55,481,446,29,27
22,22,39,50,472,429,24,25
21,24,52,80,495,461,28,25
23,25,53,80,503,473,28,26
22,25,53,78,547,501,28,25
23,24,51,78,575,513,28,21
26,24,54,79,572,520,27,20
28,23,47,54,563,511,28,22
27,23,47,48,546,498,28,24
26,23,53,51,534,495,29,24
24,24,53,47,527,512,29,23
22,25,50,51,545,548,30,25
21,24,48,46,546,553,31,24
22,24,46,48,566,583,34,22
25,25,42,47,568,590,33,23
26,25,44,53,561,582,34,26
25,26,45,52,548,566,32,24
24,24,46,51,565,570,31,25
22,23,47,51,551,542,29,25
21,26,47,50,544,534,29,25
22,24,45,46,562,542,28,22
23,23,44,45,567,529,30,23
22,23,42,45,556,526,27,22
24,24,42,44,579,560,27,22
22,20,42,44,595,572,27,21
22,22,44,46,586,570,26,22
21,24,49,49,611,585,27,22
20,23,49,61,618,590,26,25
21,23,49,62,603,571,26,25
23,22,52,64,619,584,29,26
22,23,53,64,626,581,28,24
23,21,53,66,619,578,28,26
25,20,51,55,628,583,29,24
23,23,51,54,619,570,29,23
24,25,44,51,605,559,27,24
24,24,42,56,616,576,28,27
22,25,37,62,603,560,26,24
21,27,38,61,602,562,25,24
21,23,37,61,637,591,25,26
17,23,42,64,633,577,26,25
20,23,43,60,629,562,26,23
20,23,41,45,660,578,27,27
21,21,43,50,644,556,29,28
23,20,43,51,616,531,28,27
25,22,41,47,642,549,27,28
23,23,42,54,616,526,26,28
24,24,47,58,609,520,27,27
23,24,51,58,628,535,26,27
23,24,55,59,618,524,26,28
21,23,55,58,572,493,25,26
21,22,53,61,605,515,26,26
22,22,49,61,585,508,29,25
19,22,40,57,551,488,29,24
21,23,38,58,563,497,29,23
21,22,48,64,571,499,32,24
21,23,48,53,537,481,31,24
22,22,48,50,548,483,29,24
22,22,51,50,555,483,29,25
24,21,52,48,579,497,30,24
24,25,46,45,615,541,28,23
25,23,50,53,623,554,29,25
24,26,55,63,635,566,26,25
26,26,55,73,658,581,30,25
22,27,52,74,624,561,30,30
23,25,61,79,598,526,31,30
22,24,63,75,596,513,30,29
21,23,66,82,568,497,32,28
19,21,66,73,554,486,29,29
20,21,68,71,599,541,30,23
20,21,62,66,620,589,33,27
22,21,65,69,624,595,33,26
25,21,58,50,604,572,33,27
25,23,61,51,568,537,31,27
25,22,63,54,497,466,31,28
25,22,62,51,435,374,29,23
22,23,54,47,399,349,29,24
19,23,60,51,396,362,29,23
19,23,56,64,432,403,28,25
20,25,53,62,498,438,29,25
22,24,51,68,519,455,29,27
22,24,51,67,545,469,30,27
24,25,43,63,570,471,28,27
24,25,43,48,547,459,30,24
25,24,45,48,494,419,26,23
26,25,43,45,483,396,27,22
25,24,41,51,442,356,28,24
24,22,42,52,399,325,29,22
26,22,39,55,406,310,27,23
24,22,37,55,461,400,29,25
23,21,37,48,449,401,26,26
24,23,45,42,480,427,27,27
24,22,47,46,480,431,26,29
21,24,54,51,481,443,28,29
22,24,57,50,447,377,30,27
23,26,57,54,471,393,33,29
22,26,54,52,458,385,33,29
22,27,50,47,482,404,34,29
22,25,47,54,500,410,32,28
20,26,47,57,483,403,29,29
19,27,54,57,467,391,27,32
20,29,54,58,452,391,28,31
19,27,55,59,433,378,27,30
20,26,49,44,446,441,27,31
22,25,51,45,436,434,27,30
23,22,43,40,443,447,29,26
22,19,43,46,469,466,27,26
22,19,48,48,477,471,31,28
24,21,54,49,435,395,31,28
22,20,51,51,431,399,33,28
21,22,51,53,435,392,30,26
23,23,56,48,400,367,28,25
23,24,60,49,395,372,29,24
21,22,62,50,441,411,29,23
23,22,60,46,446,417,29,23
25,20,64,55,464,436,31,25
24,21,61,55,549,498,33,25
26,21,53,56,555,511,33,24
27,22,49,56,575,527,35,29
27,22,61,62,608,544,34,29
25,24,56,67,586,525,32,29
25,23,59,73,535,478,32,30
22,22,61,71,581,489,30,28
19,23,65,81,534,441,29,24
21,22,59,82,509,438,30,27
20,21,60,73,528,455,32,26
22,23,57,69,504,439,35,26
23,23,57,69,474,436,32,27
26,23,58,62,515,462,31,28
24,22,61,70,510,451,30,25
25,21,59,69,539,481,29,26
27,22,66,71,599,527,28,30
26,24,72,70,569,507,28,28
24,23,66,66,562,522,29,28
24,25,74,55,601,542,29,31
25,26,77,54,557,519,31,30
22,26,79,52,531,507,30,29
28,24,75,62,587,552,32,30
30,26,86,78,566,539,32,31
30,26,80,75,562,539,34,28
29,26,79,78,597,550,32,28
28,26,74,81,600,562,30,27
33,28,93,91,610,585,27,28
32,26,84,75,629,591,28,26
34,25,81,78,611,583,26,28
34,24,76,74,610,588,26,27
39,27,90,75,616,585,27,29
31,26,69,55,573,538,27,29
31,28,71,67,577,547,24,30
27,29,69,67,585,528,25,29
25,30,73,69,580,524,24,29
18,28,60,66,589,525,23,27
20,25,67,68,607,568,29,28
20,27,78,64,635,608,30,27
20,26,80,70,681,682,35,27
22,27,81,71,715,703,37,28
23,27,79,75,728,712,37,28
24,28,75,73,741,701,35,24
23,25,61,68,726,666,35,24
23,25,61,60,687,616,31,24
22,23,62,58,649,593,28,24
24,22,67,61,613,576,30,23
22,23,72,60,598,556,30,26
22,23,72,59,576,548,31,25
25,24,76,58,594,561,31,24
25,24,75,64,623,578,34,25
21,26,71,58,638,595,34,27
22,25,65,58,674,651,33,27
22,25,65,62,711,674,33,28
20,26,60,62,710,686,32,28
22,27,61,66,689,678,28,25
23,26,60,60,678,663,25,26
24,24,57,62,626,620,25,25
23,24,68,77,597,609,23,26
23,23,66,75,599,599,21,25
21,24,73,68,587,601,27,28
23,25,75,68,590,606,29,27
22,26,75,66,617,609,28,26
25,27,67,44,600,601,28,26
25,29,66,46,588,593,34,28
25,26,65,50,623,611,31,29
29,25,60,49,605,605,29,28
29,26,76,58,576,589,33,32
27,26,78,61,569,578,40,33
27,23,79,60,549,577,37,31
28,22,87,58,516,555,39,31
21,23,99,56,518,548,40,32
31,24,93,49,515,553,38,34
31,26,92,48,539,577,32,35
32,26,95,54,574,593,31,35
34,27,85,62,574,589,27,35
35,27,72,69,613,634,29,36
27,26,69,70,654,664,30,32
27,24,71,68,659,661,29,29
27,24,67,64,641,650,30,33
25,25,67,52,635,647,32,33
22,25,70,45,607,608,28,28
22,24,70,47,550,559,29,27
21,26,69,65,552,554,33,29
20,27,73,65,538,544,32,26
22,25,74,68,561,563,32,26
22,24,73,73,569,574,32,25
20,24,73,70,594,599,30,26
21,23,68,56,587,606,27,27
19,22,70,60,611,610,28,27
18,23,69,62,597,597,30,28
19,24,69,60,603,602,30,29
21,25,73,61,593,583,30,28
24,24,79,72,617,577,32,32
25,25,79,76,612,585,34,32
25,27,78,73,623,598,32,32
25,28,73,77,637,600,35,32
24,27,71,81,652,606,35,34
23,28,70,74,668,620,33,29
23,28,64,69,665,612,32,30
25,26,68,72,675,617,30,29
24,27,73,66,668,603,25,31
24,28,78,65,663,609,28,28
22,28,75,62,612,573,38,29
24,27,79,59,598,557,38,29
20,28,75,53,574,650,39,29
24,25,88,61,554,695,39,27
26,24,81,55,529,770,39,29
26,25,84,54,551,850,33,27
26,25,87,57,550,907,33,27
27,23,85,57,558,864,33,27
25,23,65,46,571,852,34,26
25,22,68,58,597,795,33,25
25,20,63,62,617,729,34,27
25,20,55,62,644,678,34,27
26,21,74,69,651,643,34,26
24,22,76,68,668,652,34,25
23,21,73,59,647,611,37,26
25,22,78,63,588,575,31,25
23,22,76,60,551,542,30,25
19,24,61,52,512,506,31,26
21,24,62,53,461,438,30,30
22,24,64,79,460,443,28,30
21,25,56,76,497,471,27,29
20,25,69,83,498,488,25,27
22,25,75,83,501,495,25,26
23,26,79,87,504,492,24,23
21,29,76,60,516,501,26,23
22,26,80,56,500,479,27,22
23,28,72,48,517,480,27,23
24,26,69,52,519,475,25,23
23,25,67,61,538,480,29,25
25,23,73,62,544,491,28,25
24,24,71,70,551,502,30,27
23,24,75,70,551,499,30,27
22,24,71,75,563,516,32,25
21,24,68,67,563,518,33,24
20,26,64,66,545,492,31,25
21,26,64,57,552,494,30,25
22,26,64,60,559,498,29,25
21,26,72,60,546,481,27,24
22,26,74,59,542,504,30,23
23,25,78,62,573,554,34,23
23,25,80,61,565,560,35,24
21,25,76,68,568,575,36,25
22,28,79,62,600,604,37,27
20,27,75,62,591,587,33,28
19,27,81,62,566,579,29,28
20,27,81,65,582,592,27,26
22,26,90,58,579,586,28,26
22,26,90,55,570,592,27,23
22,27,97,61,584,609,27,23
23,26,90,59,600,600,26,21
25,26,95,64,585,583,28,22
25,27,88,62,599,587,28,23
24,25,80,61,570,560,29,23
25,25,85,62,557,541,27,24
23,27,81,63,569,542,28,26
20,27,72,64,569,542,27,26
20,26,72,61,546,523,27,27
20,26,73,64,589,543,33,29
20,27,59,65,576,530,35,27
21,25,62,63,558,521,34,25
22,24,73,54,581,537,38,29
21,25,79,60,563,525,38,28
22,25,80,60,542,506,35,28
22,24,100,78,570,518,33,28
21,24,100,78,559,516,34,29
20,25,97,81,545,505,29,27
22,24,87,77,606,541,31,27
23,24,100,85,608,542,29,27
23,24,80,62,599,540,31,29
23,24,85,66,664,563,31,27
26,25,77,72,684,582,31,24
26,25,89,74,656,570,34,27
24,26,87,64,679,588,34,29
23,25,87,74,676,584,34,27
23,25,88,78,617,556,32,29
20,24,93,70,606,545,32,28
21,23,85,68,590,533,30,27
21,23,75,70,588,517,27,25
22,26,89,73,602,527,27,25
24,29,90,68,608,518,28,23
25,28,87,70,623,523,28,24
23,29,92,72,646,541,25,21
22,29,88,77,619,530,26,21
23,27,81,65,634,538,26,22
24,21,72,62,659,549,25,26
24,22,69,64,653,553,25,25
23,22,65,63,647,546,26,27
22,22,70,59,661,553,26,25
21,23,61,55,644,544,29,26
20,26,70,65,620,540,29,23
19,26,72,60,585,509,31,24
19,27,71,64,561,485,30,22
21,25,65,70,552,485,33,23
22,25,63,75,533,468,32,23
21,24,63,70,516,458,32,24
21,23,64,71,528,463,30,23
23,26,66,70,610,578,30,23
22,27,69,63,642,608,29,24
22,28,69,58,664,626,27,25
22,27,62,61,660,624,27,24
22,27,70,62,642,604,27,27
19,23,63,65,574,502,28,26
21,25,67,61,528,448,25,27
20,25,69,61,491,430,25,28
21,26,77,67,475,424,27,28
20,27,70,66,491,445,27,26
24,28,77,64,515,458,28,27
22,27,82,64,485,442,29,26
22,26,81,66,490,426,29,24
23,25,73,54,515,424,29,26
23,25,75,57,493,408,35,28
22,25,68,58,462,383,39,26
23,24,59,63,501,390,37,26
22,26,69,63,492,377,36,26
19,27,77,69,465,358,36,25
21,27,79,67,496,380,32,25
21,28,79,66,527,425,27,25
21,27,77,58,498,423,29,25
21,26,69,61,506,442,29,26
23,25,64,53,506,457,29,24
22,25,62,54,497,459,29,25
24,24,70,53,466,425,29,29
25,23,67,61,473,429,29,28
26,23,71,62,489,426,28,28
24,23,68,66,512,436,27,27
25,23,68,62,531,432,26,31
22,23,66,64,508,409,26,30
22,24,66,58,499,405,26,31
21,23,71,54,466,388,28,32
24,24,69,50,438,369,29,34
25,24,69,54,434,386,28,30
27,25,65,51,455,403,29,28
26,25,70,68,465,408,28,25
25,29,64,65,471,410,29,26
25,28,62,66,506,430,30,26
24,28,62,65,473,400,30,27
23,27,59,60,435,373,30,28
25,27,55,40,448,393,30,29
25,24,56,46,453,408,28,28
25,25,61,67,431,406,32,28
25,26,60,66,502,464,33,26
23,27,66,67,536,481,33,26
22,27,63,66,539,484,34,27
23,27,61,70,566,492,37,27
23,27,60,49,583,502,32,26
21,25,58,51,587,494,30,27
22,24,61,67,601,510,31,26
22,24,65,71,575,481,30,26
22,23,61,66,534,459,31,25
22,22,63,67,530,446,32,25
23,21,64,69,466,401,34,26
22,23,60,57,414,375,33,24
22,25,65,55,455,403,33,23
22,24,64,54,448,398,32,24
21,24,68,50,469,437,30,23
23,24,70,47,523,482,27,21
27,25,72,45,535,501,27,25
27,22,77,53,537,517,27,25
28,24,77,53,583,541,26,26
27,24,80,56,565,525,25,26
25,24,79,58,579,532,25,26
22,21,76,62,654,567,24,27
22,22,72,51,646,563,25,27
20,21,72,51,641,575,23,27
25,28,66,47,645,566,24,26
25,31,66,57,623,559,24,26
26,33,64,51,572,527,26,28
26,33,62,50,576,522,31,27
25,33,60,50,563,514,33,25
24,32,55,55,579,539,36,26
26,33,57,55,589,538,38,26
27,33,56,55,575,537,40,24
28,34,55,58,575,547,36,25
30,34,70,70,594,554,36,27
27,31,72,64,578,549,33,27
25,29,73,68,560,547,32,27
24,30,76,68,570,546,28,26
22,32,75,65,610,568,28,27
21,45,64,55,620,575,25,26
25,54,65,58,666,596,29,27
25,88,60,40,695,625,30,25
25,88,57,67,712,643,33,25
25,87,59,67,686,618,33,23
23,82,57,71,685,614,35,23
20,78,65,79,651,595,30,22
22,44,70,79,637,569,32,27
24,44,68,57,621,549,29,29
24,45,65,58,607,562,29,30
25,48,69,53,612,565,28,33
25,46,57,46,640,568,31,32
22,50,54,51,626,560,31,34
23,59,57,55,650,579,32,34
26,59,57,56,687,593,33,35
39,74,58,57,663,589,32,36
60,107,68,52,637,577,30,36
68,113,66,50,645,582,29,33
69,117,69,48,699,719,28,31
70,121,87,61,902,953,26,28
64,118,87,85,1005,1086,28,25
45,90,89,99,1200,1332,33,27
47,86,99,116,1389,1535,38,30
49,76,102,128,1559,1630,39,31
51,76,89,123,1512,1585,40,32
53,77,91,113,1500,1534,39,32
54,91,88,106,1366,1363,37,31
44,94,86,90,1184,1140,31,26
39,96,80,78,914,917,31,27
41,105,78,75,777,754,31,28
38,104,78,74,665,671,32,29
38,100,71,66,630,613,30,27
38,92,65,62,565,574,27,25
38,90,66,55,526,550,26,25
29,87,89,58,549,564,23,21
32,82,87,50,563,578,21,21
33,73,91,53,551,572,22,23
30,70,91,50,584,593,22,29
29,67,94,52,596,594,24,29
31,56,80,49,572,580,24,29
29,52,78,52,577,584,26,28
26,48,88,48,575,579,25,30
29,48,83,48,560,567,26,25
32,51,115,61,534,549,26,28
30,43,118,66,517,541,25,29
30,39,122,76,511,528,25,31
30,39,117,76,512,523,24,31
26,37,118,78,514,515,23,31
21,33,83,73,542,532,21,26
21,31,79,68,563,542,20,28
21,36,80,57,549,524,19,24
20,33,84,57,556,522,19,22
20,33,87,57,590,570,20,24
20,36,89,53,643,617,20,24
22,38,81,55,663,628,21,21
22,32,76,53,661,644,19,22
23,31,77,54,674,659,21,23
23,30,97,54,666,638,20,22
23,25,97,52,621,600,20,22
21,25,102,49,621,597,21,24
23,27,106,49,644,605,22,24
23,27,98,48,632,595,24,23
24,26,81,57,616,593,26,26
26,27,84,61,626,597,24,25
27,29,91,65,603,592,25,26
26,29,87,65,573,571,24,26
28,30,88,64,580,579,20,26
28,31,88,65,567,555,21,21
28,29,99,65,532,530,24,27
33,27,93,64,536,514,22,47
36,25,97,65,537,517,24,73
36,26,111,71,527,515,25,79
36,28,111,64,525,527,22,80
39,28,102,65,533,546,22,82
43,44,99,66,546,564,23,83
43,47,99,67,568,581,23,63
43,50,92,69,583,585,25,59
45,53,91,66,606,587,25,60
42,53,89,63,633,592,24,57
35,41,91,62,632,587,23,42
36,41,107,67,614,561,22,42
35,37,105,60,600,542,22,40
33,31,110,67,572,518,23,36
32,33,111,74,525,492,22,33
30,34,119,81,507,486,23,29
25,31,101,75,503,488,24,27
24,32,102,78,483,478,23,24
23,33,100,74,479,474,21,25
24,34,100,66,492,467,21,27
25,33,92,59,508,469,20,25
25,33,99,67,506,475,20,24
24,31,98,65,548,544,21,26
27,30,92,63,563,556,21,31
27,28,93,63,565,565,21,30
30,27,95,70,558,561,36,34
34,27,95,62,585,576,36,38
33,28,88,63,559,523,35,39
30,26,91,68,584,545,34,35
32,24,92,69,572,530,34,36
31,25,84,59,558,520,20,35
28,26,85,59,544,489,21,33
30,25,90,59,525,469,19,31
29,29,99,58,479,432,23,32
26,32,116,64,507,452,23,32
24,32,123,64,513,457,23,29
25,31,118,65,501,483,22,31
25,30,116,64,530,511,23,30
27,30,112,63,541,530,22,31
26,26,93,57,520,532,22,27
25,26,121,79,537,552,22,29
22,27,123,85,546,547,21,26
22,33,132,93,533,537,21,29
20,31,134,93,551,544,21,27
20,32,133,91,557,544,21,29
20,32,105,74,554,549,21,28
22,31,106,68,577,561,22,27
19,27,109,70,577,575,23,25
20,28,110,70,558,561,25,27
21,29,114,71,582,570,25,25
21,29,116,72,562,545,25,23
21,29,119,71,539,534,26,26
22,27,107,57,570,543,26,27
23,26,113,61,569,547,25,24
22,27,108,62,550,531,26,24
23,27,110,57,599,566,25,27
22,26,106,58,600,564,23,25
22,28,107,55,571,542,23,25
23,28,93,52,611,560,22,23
25,32,105,53,611,560,22,25
23,32,94,56,575,542,23,23
24,35,105,59,593,559,24,23
25,33,109,61,600,557,23,25
23,35,108,60,560,526,23,25
24,31,107,60,593,552,22,29
23,30,107,57,592,537,22,27
23,29,89,51,601,532,20,27
21,32,83,54,613,541,20,26
21,30,88,49,622,551,21,29
21,30,89,46,613,536,19,25
23,33,109,55,633,553,20,25
23,31,114,61,600,527,22,26
23,29,111,60,595,522,21,25
23,32,117,68,618,528,21,23
22,31,117,67,590,509,23,23
22,30,100,62,569,488,22,25
23,31,96,56,583,493,20,25
23,31,108,55,575,480,21,26
24,30,99,47,551,469,21,25
23,29,102,49,569,485,22,27
21,28,105,51,586,495,21,25
20,30,110,52,587,508,23,24
19,29,97,51,589,507,23,22
18,27,89,56,606,522,22,24
20,27,73,52,614,529,22,23
20,29,74,57,606,519,23,24
21,26,66,55,595,511,20,24
23,27,80,56,593,513,20,27
24,30,91,53,585,506,20,26
24,31,89,54,556,479,19,25
25,29,85,51,551,486,19,24
24,31,98,59,552,479,20,24
20,31,94,60,554,482,21,22
20,27,94,59,610,551,22,22
20,30,97,58,678,620,21,22
21,32,96,55,674,619,22,23
22,37,86,53,648,603,23,21
24,38,85,50,630,588,22,22
23,41,85,49,550,494,24,25
22,39,91,59,438,398,24,24
24,36,88,59,406,375,23,25
22,29,84,55,420,388,23,28
20,28,76,55,414,399,23,26
21,25,67,55,422,415,23,23
22,26,54,41,436,402,24,26
19,27,57,41,441,404,24,24
20,30,63,46,450,403,26,22
22,32,67,52,449,385,26,23
23,30,70,50,429,368,25,23
22,30,71,52,429,378,25,23
23,31,80,54,429,356,24,23
24,28,76,49,422,340,22,21
22,28,73,46,417,337,22,22
23,29,71,47,422,332,22,21
22,29,68,46,410,320,21,21
20,27,54,46,420,339,21,20
20,27,61,47,424,360,19,20
22,30,80,50,429,369,20,23
22,33,112,55,446,394,19,24
24,32,112,54,463,409,19,24
25,37,125,56,479,426,19,26
24,38,125,56,486,422,21,26
22,35,120,52,483,411,20,23
21,32,102,57,469,403,21,23
22,34,121,67,450,388,23,23
21,30,126,69,412,359,22,22
23,32,143,71,407,368,23,25
23,32,149,71,415,396,24,25
23,33,151,64,406,381,23,24
23,31,139,58,444,407,20,24
23,32,130,53,448,409,20,24
22,29,132,54,442,401,18,22
22,29,133,59,457,395,18,23
22,29,126,72,463,403,21,24
23,29,135,76,419,378,23,24
23,28,131,75,462,412,24,22
22,27,113,71,456,410,25,21
21,28,114,68,466,431,25,21
23,28,114,55,525,469,24,19
20,28,109,51,541,480,24,17
21,28,120,58,549,482,23,21
23,31,117,60,586,504,22,20
25,31,109,63,562,480,21,19
24,31,119,65,533,461,20,20
24,32,117,64,560,466,21,21
24,32,105,58,514,435,20,19
23,30,107,56,461,400,20,20
21,30,101,52,474,398,19,20
20,29,92,52,436,390,18,20
20,28,101,55,383,372,18,21
19,26,100,61,442,438,17,21
20,26,94,60,457,456,19,21
21,27,99,63,492,498,19,23
20,29,100,65,517,502,19,22
19,30,92,63,547,526,20,22
21,30,103,67,566,535,20,23
18,31,117,69,604,552,21,22
21,30,134,73,580,533,22,24
26,31,126,65,593,550,23,29
28,30,126,64,607,547,24,30
28,31,118,54,558,502,25,29
29,33,111,54,537,488,23,30
28,35,102,48,559,493,22,28
25,31,105,50,546,483,21,25
23,32,104,46,528,482,18,23
23,31,124,52,556,502,19,22
21,29,117,49,577,529,20,23
21,25,103,48,595,548,20,25
21,26,104,49,595,542,21,23
23,27,100,52,610,552,22,25
24,27,75,48,604,548,21,27
24,26,79,49,588,530,21,26
23,29,88,49,564,512,21,26
24,29,86,46,572,532,22,25
24,27,84,44,575,534,22,24
23,25,80,44,615,568,22,22
23,24,82,43,642,597,23,23
24,21,87,45,701,638,24,23
23,24,99,51,745,665,22,22
25,27,110,71,765,685,23,21
24,29,113,71,764,680,23,22
23,31,111,71,757,664,20,21
24,29,101,72,695,627,20,23
23,27,92,71,653,587,21,23
21,24,81,50,633,562,20,24
22,24,76,51,584,536,19,27
23,23,85,52,566,533,20,27
23,23,96,60,599,548,19,25
22,27,99,63,588,558,20,27
25,30,107,66,598,580,19,26
25,29,111,69,642,603,19,23
25,31,108,75,652,627,19,22
25,31,96,71,640,637,22,21
25,26,87,65,664,638,20,21
22,23,71,61,642,627,21,19
22,24,69,58,618,615,22,20
21,24,66,49,613,591,21,20
20,23,66,38,589,565,22,20
20,23,72,43,569,567,22,21
22,25,88,59,577,565,20,24
24,25,90,58,556,559,20,23
23,24,92,56,565,583,20,23
21,26,92,59,591,603,18,23
23,27,97,57,582,602,19,21
20,27,82,44,592,617,20,20
20,27,82,41,611,629,21,21
22,28,82,47,594,610,20,21
23,30,88,45,574,594,20,20
23,30,82,45,568,590,21,24
27,29,87,45,531,558,22,47
28,30,96,52,530,557,22,48
27,29,104,49,543,565,22,49
27,26,100,49,556,577,21,50
25,26,102,52,575,593,19,48
26,28,135,66,666,670,18,30
25,27,130,62,682,677,17,29
24,27,120,65,686,686,18,27
25,28,125,71,697,686,19,25
25,30,149,79,699,678,20,26
22,28,120,66,629,622,20,22
21,28,121,69,594,595,21,20
22,29,138,72,580,566,20,21
21,31,132,67,542,550,19,21
23,29,102,56,545,548,20,21
21,33,107,56,542,533,17,21
22,32,106,52,573,570,16,23
24,33,86,48,599,600,16,24
23,32,96,54,631,616,17,25
22,32,95,54,635,624,16,24
22,30,87,54,663,649,17,24
20,30,91,56,661,634,19,23
19,28,91,53,637,618,19,20
21,29,89,49,629,607,19,21
20,29,101,52,627,599,22,21
20,27,109,53,607,588,22,21
20,28,112,52,588,571,20,19
22,28,114,49,591,561,18,19
19,27,115,47,577,559,18,20
22,26,104,43,578,564,19,20
22,28,97,41,563,541,22,21
23,28,87,41,572,557,22,22
20,27,81,40,584,562,25,25
22,29,86,42,602,568,24,22
21,28,87,46,582,559,23,22
20,26,80,47,585,553,21,21
21,27,85,47,582,536,21,27
22,30,93,50,558,529,19,27
23,26,86,46,548,524,20,27
22,28,91,48,570,534,18,28
22,32,119,51,579,552,17,28
21,30,117,58,592,572,19,23
20,29,117,60,623,594,21,21
20,29,112,61,661,624,21,22
20,28,109,56,656,617,22,25
21,23,91,56,652,614,26,26
20,24,87,51,636,597,23,25
21,24,88,51,621,584,22,26
20,26,94,50,570,539,22,27
19,27,96,55,548,518,22,24
20,27,96,58,536,501,19,23
22,27,98,60,517,492,22,22
21,26,93,63,489,476,21,21
21,26,88,62,493,471,22,20
22,25,83,63,481,460,22,19
20,24,71,62,503,473,22,20
19,25,69,59,515,471,21,20
21,25,76,54,521,466,21,21
20,25,74,52,541,485,21,20
22,27,87,55,561,502,21,23
22,28,87,53,547,487,21,22
21,27,87,50,566,505,21,22
20,28,75,51,587,522,22,21
19,27,79,52,574,510,20,21
19,25,72,49,583,507,19,19
23,28,75,44,579,511,19,26
25,28,77,47,558,492,19,26
25,27,86,56,549,480,16,26
26,27,91,57,545,474,18,26
25,28,83,52,538,505,21,27
20,24,91,57,553,518,20,22
20,26,94,60,560,525,21,21
21,27,93,54,540,529,22,22
21,28,102,54,552,565,21,22
23,28,103,54,540,547,19,22
24,28,94,50,525,553,20,19
21,28,91,44,541,573,20,19
22,27,97,54,544,575,20,20
20,27,89,62,535,553,20,20
21,26,93,62,568,584,20,21
20,28,99,64,575,586,21,23
20,29,100,70,572,574,21,23
19,29,86,61,603,590,21,23
21,28,81,54,592,581,22,26
19,27,96,59,555,531,22,25
22,30,102,66,553,517,23,23
25,30,102,58,539,505,22,26
24,32,114,56,496,469,22,23
25,33,111,56,519,487,23,23
26,34,101,53,506,479,24,23
26,30,92,45,478,462,22,24
24,30,95,46,489,477,22,23
25,30,91,49,516,499,22,24
25,27,96,46,510,488,22,23
24,28,102,53,550,524,21,23
22,31,98,51,577,544,22,24
21,30,112,56,575,534,22,22
19,27,122,56,598,564,23,23
17,29,121,60,599,571,23,24
17,26,112,57,609,568,22,24
19,25,116,58,638,582,22,22
22,25,111,59,646,598,21,21
24,28,112,64,627,565,20,20
25,28,122,61,637,565,19,19
26,29,125,58,625,557,19,18
25,27,120,58,592,532,19,21
23,27,121,55,590,520,20,21
23,30,107,52,600,526,19,22
22,33,111,60,578,507,19,21
23,43,116,64,578,511,21,20
21,44,120,63,584,517,20,21
24,44,112,61,573,505,22,23
22,41,116,63,564,499,25,24
24,47,105,56,569,508,24,24
25,39,106,56,571,504,24,25
26,40,108,56,579,517,23,24
24,44,107,58,587,526,21,25
25,45,103,57,585,521,20,23
25,40,98,57,595,525,20,24
25,41,92,52,601,528,20,23
25,38,89,53,581,496,23,23
24,36,92,54,589,499,23,19
25,36,94,48,585,499,22,21
22,32,97,48,562,479,22,18
21,32,99,53,549,458,23,19
22,35,103,64,556,464,20,19
24,33,91,59,527,439,20,23
24,34,86,62,536,450,23,24
25,40,87,62,551,470,24,25
24,40,81,59,594,571,23,23
27,40,78,51,658,644,25,25
25,41,84,56,659,662,27,22
28,42,97,59,623,651,25,21
28,36,98,67,608,633,26,23
28,34,92,66,543,538,27,25
26,29,86,63,442,437,25,23
27,30,82,64,428,397,25,26
22,26,69,62,431,369,27,25
23,25,59,63,436,365,24,24
23,25,60,65,435,349,23,23
23,33,64,75,429,338,23,23
22,34,66,75,446,356,21,21
21,35,67,85,450,347,22,21
22,50,78,81,449,359,24,23
23,53,89,82,450,444,26,24
22,49,91,77,762,846,26,24
21,50,95,81,770,856,26,23
22,50,94,73,784,883,23,23
21,46,87,71,930,1040,23,21
20,44,76,70,978,1068,25,22
23,46,75,66,807,841,25,21
24,53,68,58,823,855,26,20
25,54,74,61,820,849,28,22
26,46,70,60,648,651,28,20
27,48,74,59,585,561,27,17
24,50,71,62,510,482,26,18
25,43,70,64,462,429,26,21
25,42,61,61,476,406,23,21
23,55,71,76,453,371,26,23
23,55,72,82,444,360,24,24
23,53,89,90,459,363,25,25
21,53,98,92,445,353,26,23
20,52,96,94,432,354,27,24
20,38,87,86,443,366,26,24
20,34,84,81,437,368,27,23
19,39,69,70,449,384,28,25
19,40,63,66,463,408,27,26
18,40,64,61,446,398,27,25
17,53,69,56,547,573,26,26
17,53,68,52,764,848,24,26
17,50,72,60,777,856,21,23
19,54,68,80,772,875,21,23
18,53,67,83,865,988,19,22
21,43,66,82,877,966,20,21
21,51,65,84,721,776,22,21
23,50,60,81,735,791,23,22
22,46,60,69,746,773,25,24
24,55,62,63,647,650,27,27
23,53,64,83,551,550,27,28
23,49,65,88,526,506,24,27
22,53,66,86,468,457,25,28
24,54,72,84,456,437,29,26
26,45,79,92,436,397,30,27
28,46,91,75,433,396,30,26
28,42,97,85,414,378,30,27
28,34,95,86,437,410,29,25
26,31,91,93,444,439,27,27
24,31,87,95,456,445,28,24
25,29,73,95,455,457,28,23
25,27,63,78,572,610,30,23
25,30,62,82,775,850,31,23
29,28,65,90,800,897,28,21
42,45,59,104,850,1018,28,22
42,46,70,110,871,1052,27,22
43,47,73,113,822,1000,25,23
45,46,74,117,650,829,25,24
43,48,76,106,628,776,26,27
32,32,76,84,595,658,25,28
28,32,67,76,579,619,25,28
25,32,64,74,575,602,24,27
22,32,62,69,577,597,24,26
21,30,58,64,580,594,23,23
20,31,55,63,577,567,21,21
19,28,52,67,608,665,21,21
19,27,51,80,825,897,22,20
20,26,52,77,825,895,21,20
23,23,46,79,810,891,23,26
24,23,53,83,774,867,22,26
26,25,55,84,721,762,21,27
25,24,56,79,388,399,20,26
24,24,58,88,279,305,21,25
21,23,61,102,271,361,18,19
20,25,60,115,445,585,26,24
19,24,58,117,560,668,26,23
20,25,55,111,657,740,27,26
23,27,52,104,763,827,27,27
24,29,51,88,827,859,29,29
22,27,47,64,801,769,23,23
26,30,49,60,764,743,24,26
26,30,53,66,745,716,24,24
24,29,53,66,691,657,24,24
25,30,54,78,635,605,22,22
26,29,53,78,600,582,23,24
26,28,57,85,631,594,22,20
25,27,58,88,622,604,22,19
25,26,57,89,646,631,24,21
24,25,53,82,693,661,24,21
24,25,53,81,729,770,24,20
21,23,45,80,874,950,23,22
20,24,42,100,921,1070,24,23
19,22,49,108,943,1159,26,22
22,27,56,124,1121,1350,34,29
25,31,62,134,1335,1498,37,31
27,32,63,133,1402,1530,38,35
29,32,60,114,1392,1456,37,34
30,34,63,108,1383,1395,36,34
28,31,58,86,1233,1216,28,30
26,27,51,70,983,967,25,29
24,29,53,67,741,738,24,23
24,29,57,67,705,730,25,23
23,26,48,55,677,700,23,22
25,29,52,54,647,662,24,23
24,30,54,53,621,630,23,20
24,27,51,48,583,596,21,20
25,27,50,44,545,564,20,21
25,30,54,48,514,537,24,22
23,27,50,49,517,555,21,19
22,26,48,56,543,570,22,18
21,27,50,58,558,588,23,19
19,27,48,61,589,628,23,21
19,30,52,64,628,653,20,20
20,33,57,64,648,655,21,23
20,33,55,58,631,697,21,24
20,31,55,58,825,893,22,24
24,33,57,60,867,922,23,26
24,29,49,57,851,912,27,27
25,26,44,59,832,896,27,28
29,26,42,63,815,838,28,29
30,29,44,64,565,565,27,30
28,27,42,67,417,417,26,29
28,27,47,64,328,324,24,28
27,25,48,61,237,235,24,25
24,25,48,65,329,347,21,23
23,25,49,63,532,577,20,21
23,26,52,59,685,727,21,19
23,27,50,63,793,837,21,21
23,26,48,65,859,914,20,23
22,29,50,57,865,914,22,23
22,29,53,56,796,826,22,25
22,29,53,54,718,739,21,25
21,28,53,52,657,673,24,24
21,30,56,48,618,616,25,24
22,28,59,48,592,580,24,24
22,27,53,48,594,585,25,24
21,26,52,49,593,591,27,23
23,25,54,46,606,594,23,23
21,23,50,47,622,614,25,24
19,22,45,46,643,637,25,23
20,22,44,45,643,653,26,20
23,23,49,58,671,715,25,20
23,22,43,59,703,759,26,18
23,24,48,58,700,755,24,17
23,25,47,61,686,744,23,18
21,25,49,69,653,699,21,17
18,24,46,69,579,587,19,17
18,24,51,79,450,457,22,17
16,23,46,100,374,426,22,16
19,22,48,120,342,480,28,20
26,27,53,128,526,713,31,23
27,27,48,125,803,971,32,25
28,31,46,123,1100,1160,32,28
30,33,49,108,1219,1206,33,30
31,33,50,84,1270,1227,29,27
26,30,43,63,1217,1130,27,26
25,30,45,57,1085,958,27,26
25,26,50,44,835,781,26,23
23,25,48,48,691,722,24,21
22,27,47,54,623,656,24,21
23,26,51,55,607,634,23,21
24,27,58,66,609,609,23,21
22,28,57,78,586,569,22,21
26,31,57,82,582,556,21,24
23,28,57,77,556,531,21,23
23,26,55,77,584,543,22,26
23,26,49,67,560,532,22,25
26,25,58,62,553,528,23,26
24,25,61,55,573,537,24,24
25,26,63,65,590,542,23,25
25,26,60,62,570,523,24,23
24,24,59,61,575,511,21,22
22,23,47,54,664,656,21,24
23,22,41,58,696,705,22,23
24,21,35,53,708,730,23,24
24,24,36,56,726,755,23,23
27,26,37,61,719,762,25,25
28,28,53,70,607,612,24,24
25,29,58,73,492,496,22,25
24,31,61,71,401,403,20,24
23,29,60,70,290,288,19,23
22,27,59,70,190,186,19,22
21,25,47,59,134,139,21,23
24,22,44,50,266,275,24,22
22,20,40,47,565,571,26,23
23,23,48,56,719,746,26,23
23,24,56,57,841,878,27,24
24,24,53,55,893,940,24,23
22,23,55,57,919,956,22,23
23,24,65,59,811,862,22,23
22,24,61,51,727,761,22,22
23,23,59,48,629,644,21,21
22,25,62,48,627,621,25,20
23,26,62,53,600,596,24,19
23,26,63,61,593,572,24,20
23,26,60,60,587,576,24,19
23,27,56,57,594,585,24,20
23,28,59,58,575,565,20,19
21,27,58,64,581,586,20,21
22,25,44,54,579,585,22,21
22,25,49,61,731,756,22,21
20,22,53,74,759,779,22,21
20,19,49,87,766,801,22,22
19,19,51,90,750,803,25,21
17,20,54,106,811,911,22,19
17,16,49,116,808,932,26,24
26,25,51,122,965,1107,30,26
29,27,51,119,1236,1316,32,28
30,29,54,117,1416,1411,33,31
32,31,54,105,1458,1385,34,33
32,33,58,89,1443,1346,30,28
25,28,54,67,1341,1207,25,26
23,26,59,60,1096,961,22,25
21,25,53,48,876,816,22,22
19,23,54,43,778,765,21,20
20,22,50,48,640,650,22,21
20,21,48,52,778,815,24,21
18,19,40,52,769,817,23,19
18,20,42,56,742,792,20,18
17,19,37,57,695,763,20,17
17,20,47,67,703,738,18,15
17,20,50,75,452,466,16,15
17,20,52,85,385,390,18,14
18,18,51,102,311,382,22,16
23,20,51,102,481,599,25,17
26,22,42,96,647,715,25,19
26,23,44,88,740,793,25,20
26,26,46,77,800,849,25,21
26,28,48,50,845,867,22,21
25,27,52,47,781,786,20,21
22,26,55,53,809,877,24,20
23,28,58,59,755,832,26,24
24,28,61,69,724,801,26,24
24,28,63,74,698,779,26,26
23,30,62,77,663,717,25,25
24,31,63,74,425,426,22,26
26,28,58,76,359,359,19,22
25,27,52,67,283,289,24,23
25,25,47,60,269,275,26,20
27,24,45,57,523,534,27,21
27,22,42,52,673,684,29,23
24,23,39,44,746,771,28,23
24,23,38,42,793,821,25,21
24,25,39,44,816,841,26,24
19,24,36,44,716,737,26,23
19,24,31,47,622,640,23,21
20,26,33,51,566,559,23,21
20,25,31,49,542,520,25,23
21,25,30,47,500,472,24,21
22,25,32,56,479,429,25,22
23,27,38,55,442,381,26,24
22,27,45,54,425,370,26,23
23,26,48,57,410,343,28,23
21,24,54,63,428,361,26,22
22,23,53,58,455,398,24,25
23,19,54,55,457,398,24,23
22,21,53,52,479,409,26,25
21,22,55,54,488,417,23,25
21,24,48,46,477,400,24,25
20,25,49,41,447,366,24,23
25,27,46,59,495,479,25,28
25,26,48,80,816,884,23,27
28,31,49,97,1160,1224,30,30
32,32,52,109,1425,1494,34,33
32,31,51,110,1451,1540,35,32
28,31,51,105,1447,1531,34,29
29,29,45,92,1293,1351,33,29
27,26,44,76,1003,1071,26,26
22,22,44,59,578,660,23,22
23,22,44,58,513,545,23,24
23,24,44,51,491,492,22,22
22,26,44,51,483,455,23,23
25,25,43,45,457,408,24,30
28,26,42,44,437,383,23,32
27,27,41,45,417,366,25,31
27,27,48,52,424,363,27,33
27,27,49,60,428,353,27,32
25,27,48,58,420,359,28,26
22,29,53,62,429,365,26,27
23,31,60,69,436,367,25,27
25,33,57,66,436,389,24,28
25,34,57,76,441,404,25,28
23,37,59,81,447,397,23,29
24,35,56,75,563,583,22,25
27,41,51,73,834,882,20,23
26,40,47,75,839,886,19,22
29,40,45,71,863,926,18,28
31,41,45,70,918,986,20,27
30,42,43,73,879,916,22,26
26,44,43,68,645,668,24,28
26,51,44,66,634,671,24,26
23,64,52,54,597,620,23,20
22,63,52,54,519,528,22,20
22,62,50,51,477,494,22,22
21,58,50,53,471,463,21,20
20,51,50,53,465,435,22,21
19,43,45,55,470,440,23,22
18,44,43,51,497,460,24,22
22,47,48,59,498,461,23,22
23,46,50,66,491,464,22,23
25,48,54,66,520,478,23,22
25,40,56,64,515,465,23,23
25,37,57,69,525,471,24,23
23,37,60,67,531,474,25,23
21,37,58,61,534,470,25,26
19,38,51,54,543,476,23,26
18,38,50,53,568,498,22,25
18,37,52,51,541,488,24,26
19,35,54,48,533,488,23,25
19,36,57,48,538,485,22,24
19,34,61,50,510,475,23,24
19,39,63,62,492,468,23,23
20,42,66,61,508,467,20,20
19,46,62,62,494,458,20,21
19,44,61,63,520,492,20,19
21,44,59,64,600,584,19,20
20,39,55,53,620,598,19,22
21,37,49,50,659,636,20,23
21,29,49,47,735,676,21,23
22,30,58,50,730,672,22,25
22,27,57,47,709,640,22,25
23,27,55,45,730,653,21,25
22,26,53,51,736,666,21,25
24,24,54,53,710,666,20,25
23,23,45,51,698,650,20,21
22,24,45,55,656,611,20,20
22,26,49,56,626,599,21,19
23,26,52,52,593,556,20,18
21,28,51,48,559,528,20,17
22,33,49,46,578,557,20,19
20,32,57,46,612,577,21,19
20,34,54,43,612,575,20,19
19,34,54,46,606,587,20,17
19,37,56,46,646,615,21,18
19,34,57,47,667,640,20,16
20,34,51,45,672,652,20,16
18,32,55,52,705,675,21,18
18,32,56,51,708,676,21,17
19,29,49,46,683,660,20,18
20,28,52,43,646,621,22,21
21,28,56,41,617,597,21,21
23,28,60,38,565,568,19,20
25,33,74,40,539,556,19,21
24,33,78,46,530,549,20,21
23,35,81,53,523,548,17,19
24,35,83,58,529,560,20,20
22,36,78,91,557,578,20,20
22,33,60,92,573,599,23,21
21,34,55,93,574,596,20,20
21,31,48,93,586,598,21,19
20,32,50,92,582,598,19,20
20,32,51,60,568,580,20,21
21,30,62,64,556,557,17,21
21,28,63,62,549,572,20,21
21,29,63,57,561,588,20,22
22,38,55,55,575,593,20,21
25,67,63,56,576,608,21,22
25,86,57,47,593,624,20,24
26,96,69,56,613,627,20,24
28,96,69,57,596,618,21,23
27,96,72,55,597,615,23,24
25,82,67,53,597,603,22,23
25,62,73,55,588,591,24,21
23,45,63,44,558,562,22,20
25,45,61,44,547,549,25,24
26,37,57,45,524,534,23,32
24,27,52,42,520,533,21,32
24,28,37,37,509,526,20,33
25,29,43,43,530,550,21,32
23,30,45,43,552,569,19,30
20,29,50,45,578,582,19,20
21,32,53,49,594,599,21,20
21,38,59,53,617,610,21,18
22,39,52,51,615,600,20,21
22,38,63,54,601,588,22,21
23,39,62,52,575,571,22,22
21,39,64,48,558,551,22,23
21,35,76,50,551,556,23,23
19,35,80,47,542,550,24,22
21,36,77,46,581,596,22,24
20,34,79,48,597,610,21,23
20,34,82,51,634,632,22,22
20,32,67,48,653,633,21,20
21,32,63,47,686,656,21,20
21,31,57,45,689,631,21,17
22,32,56,50,692,626,24,20
22,33,51,50,672,605,21,21
21,33,51,47,645,590,21,22
22,34,68,55,607,555,21,22
22,34,68,54,583,545,20,23
22,34,65,48,566,534,19,22
22,30,63,43,555,532,21,21
23,34,64,45,575,547,21,22
22,32,55,43,594,561,21,21
21,32,60,50,602,554,22,21
20,31,68,57,628,576,21,21
20,33,70,62,635,577,21,21
20,29,71,61,618,561,23,22
20,29,67,56,615,564,22,24
20,30,65,50,574,538,22,23
20,31,59,46,553,510,22,23
20,30,61,51,540,499,23,23
20,31,62,52,532,493,22,22
24,32,60,52,501,464,23,22
24,31,56,54,526,491,25,22
23,28,52,49,518,488,24,23
24,27,52,45,506,485,25,22
24,26,55,49,507,487,23,22
23,26,55,51,518,492,23,34
23,29,59,50,515,481,20,57
24,31,67,51,526,487,21,60
24,30,68,54,533,492,19,61
24,32,67,51,528,483,19,61
22,33,69,50,539,482,19,55
21,33,66,51,527,473,19,33
20,35,62,49,516,461,18,27
18,34,60,48,514,447,19,25
18,34,59,47,498,445,19,26
18,35,61,56,480,439,20,24
20,36,66,57,494,456,21,25
20,33,63,57,489,459,20,24
21,33,59,53,475,458,20,25
20,32,60,52,522,486,21,23
23,29,62,41,541,508,21,28
26,29,62,40,543,516,24,51
26,30,62,42,557,556,23,52
27,30,64,48,580,582,24,52
27,32,67,50,548,568,25,53
25,33,67,53,558,584,23,50
24,29,69,56,568,604,22,28
25,31,70,57,592,597,23,26
24,31,67,52,593,598,23,25
25,28,66,50,605,606,22,23
25,29,64,48,593,585,22,23
23,29,60,41,587,567,22,20
21,28,59,40,553,537,23,21
20,28,65,40,536,512,21,20
20,30,61,41,520,497,21,18
21,29,64,51,527,496,22,20
19,29,68,52,506,471,21,21
20,28,67,48,508,474,19,21
20,28,65,52,528,486,21,21
20,26,66,50,527,486,22,23
18,28,68,45,544,502,17,21
21,27,65,48,585,531,18,20
20,27,66,55,602,546,18,19
23,28,64,51,601,548,16,23
23,28,62,56,635,576,17,21
25,27,61,54,620,571,19,21
23,27,58,56,620,580,19,23
25,31,59,50,630,580,20,23
22,30,57,50,634,579,22,20
24,31,61,46,611,560,21,20
23,30,55,43,625,558,21,20
24,29,53,35,600,523,21,20
24,28,48,35,568,500,21,21
24,29,51,34,586,514,18,20
22,30,57,42,577,502,19,23
22,30,54,42,571,500,19,24
20,31,58,44,593,518,22,22
20,30,59,46,594,521,22,19
20,32,74,54,569,502,22,20
22,29,66,49,598,531,24,18
23,29,66,47,575,510,23,18
24,28,64,46,570,509,22,19
22,29,64,45,604,536,24,20
21,28,51,40,602,530,24,22
20,29,51,38,619,526,25,22
19,28,53,40,672,568,26,22
19,32,56,41,664,558,25,22
22,32,54,41,635,529,21,22
22,32,47,41,639,536,22,20
21,31,60,45,594,505,20,19
22,34,62,43,536,461,19,19
22,32,66,44,527,456,19,18
20,32,67,45,522,455,23,18
22,33,70,47,516,442,23,19
23,32,62,48,514,446,23,19
23,34,63,50,493,435,23,20
21,33,57,50,508,442,23,19
21,31,55,51,511,450,20,19
19,31,53,52,557,517,20,22
19,32,50,50,626,591,21,24
18,27,41,49,658,615,21,24
19,27,47,45,628,593,21,23
19,34,65,53,614,587,23,23
22,34,68,50,568,519,23,23
20,36,72,49,484,434,23,22
21,36,75,48,445,395,22,22
23,37,72,56,450,402,23,24
24,31,62,48,487,420,21,23
23,30,58,47,459,407,20,23
25,28,60,51,447,384,19,22
26,31,61,56,485,407,19,21
24,30,58,49,487,402,18,20
23,31,61,51,437,358,19,21
23,31,64,52,469,388,21,19
22,32,64,48,474,384,21,19
21,32,66,45,437,361,21,21
20,31,67,48,434,360,20,21
21,29,61,43,436,365,19,21
21,30,56,45,406,342,19,20
21,35,50,42,419,362,18,20
19,34,44,39,422,380,18,18
18,35,46,41,426,383,18,19
17,35,44,42,477,422,18,19
18,35,51,41,481,419,18,21
17,29,51,49,484,446,19,22
18,29,53,49,499,434,19,20
19,26,51,45,500,436,20,19
19,28,56,46,469,411,20,20
19,26,53,43,479,422,20,20
18,27,50,42,467,385,21,20
18,27,48,44,439,380,22,20
19,30,47,44,437,377,21,21
20,31,47,44,435,373,22,19
20,31,48,46,432,377,22,19
23,31,50,41,448,393,21,19
22,29,55,38,469,416,22,19
21,28,57,42,465,421,23,19
22,26,60,46,477,431,22,20
21,30,63,51,480,432,21,20
20,30,66,50,454,415,22,21
22,32,61,52,453,419,20,20
22,32,63,56,480,434,19,21
23,35,72,55,463,421,19,21
22,34,70,54,463,424,20,20
21,33,68,52,473,431,18,20
21,32,71,53,467,421,20,21
20,32,69,46,470,432,21,19
22,29,59,41,492,457,20,23
21,30,62,41,489,450,20,22
23,32,74,45,502,457,22,23
23,33,80,45,530,472,20,24
24,34,79,47,490,436,20,24
20,33,74,45,467,417,20,21
23,32,69,44,477,421,20,20
21,29,56,48,452,397,20,19
20,31,51,46,426,396,21,18
22,29,54,49,472,434,19,17
22,27,52,50,495,437,20,19
21,26,52,48,530,499,21,18
22,31,52,43,581,549,20,19
26,28,50,42,596,556,20,21
26,28,51,42,627,573,21,22
26,30,53,45,648,589,21,21
24,31,59,46,603,531,21,22
24,28,63,53,579,510,21,22
21,30,64,59,576,493,20,20
20,30,62,59,506,450,19,20
21,30,63,58,485,450,18,20
20,29,56,60,519,472,19,22
21,27,48,52,503,464,17,23
23,23,41,46,522,492,21,23
23,27,50,45,571,520,22,22
22,25,51,45,570,532,25,23
23,25,53,46,610,560,26,22
22,25,59,57,647,580,27,21
19,27,61,55,649,587,27,21
20,25,57,52,656,597,27,20
19,24,56,53,669,591,25,20
20,27,57,50,637,578,24,22
21,29,59,44,647,592,23,21
20,28,59,44,657,587,22,19
20,28,59,46,651,588,22,20
21,29,57,45,661,614,23,21
18,27,54,42,684,620,21,21
18,25,43,38,668,610,23,21
20,28,44,39,652,606,23,21
19,27,49,45,642,590,23,20
20,29,49,42,606,554,21,18
23,29,52,45,619,594,22,17
22,29,52,40,607,583,18,16
21,27,53,40,592,573,20,16
20,30,57,39,588,583,20,17
20,32,63,46,627,613,20,18
17,32,61,44,606,589,19,18
19,32,62,51,616,613,20,20
18,33,67,54,658,644,21,19
18,32,61,50,710,677,18,18
17,27,55,47,719,691,21,19
19,29,54,50,717,677,21,20
19,32,54,46,710,647,20,19
22,32,50,47,669,618,18,22
22,32,47,48,600,568,20,22
23,34,53,49,561,533,19,20
23,34,55,48,525,523,20,18
23,30,57,49,526,534,21,19
20,33,55,43,544,544,22,20
21,33,58,42,546,550,22,23
23,31,56,40,545,549,22,27
22,32,57,40,578,567,23,27
23,34,54,40,563,572,22,27
25,32,55,42,563,578,23,25
24,32,52,43,576,585,22,23
22,32,55,43,579,596,24,20
23,29,55,46,562,584,23,21
24,28,54,42,579,588,23,21
22,27,56,49,578,596,23,21
24,28,59,52,588,603,25,20
24,29,61,54,592,602,23,21
22,29,60,51,599,616,23,21
21,34,64,52,601,623,24,22
21,35,67,50,605,615,24,22
19,32,64,47,600,616,23,22
18,33,63,45,594,615,23,22
20,34,77,53,586,592,21,22
20,29,80,53,592,591,21,20
20,28,83,51,577,580,20,21
21,29,89,51,555,563,20,22
22,27,88,50,549,553,22,22
21,29,77,42,537,553,24,23
20,28,72,45,508,536,24,23
20,29,66,50,513,543,24,23
20,27,67,52,546,564,24,21
20,28,70,52,572,584,21,21
20,29,70,52,591,597,21,21
21,31,71,48,652,634,21,23
21,29,66,42,681,649,22,22
22,30,58,38,685,645,23,23
21,30,61,40,673,628,24,22
21,26,58,42,652,619,24,21
20,25,55,42,610,583,23,21
20,25,55,42,576,566,23,20
19,24,51,41,537,544,22,19
20,26,42,39,544,547,22,21
19,27,45,40,565,552,23,20
20,28,52,42,549,549,23,19
22,29,58,43,558,547,24,21
23,29,63,46,587,565,24,21
22,27,62,43,565,549,23,23
22,28,58,40,574,550,23,23
21,26,51,36,569,540,22,22
20,28,46,31,560,532,20,22
21,30,41,24,559,528,19,23
21,35,43,27,590,557,21,22
22,35,48,31,573,549,22,23
22,35,53,33,608,580,22,25
22,36,55,35,609,590,22,26
20,35,60,39,603,583,22,25
20,30,58,39,596,579,21,25
20,30,60,40,614,591,22,24
20,29,57,40,592,566,22,23
22,28,80,42,597,569,23,21
23,31,85,48,588,562,24,21
22,34,93,50,563,536,25,20
23,35,94,50,543,509,22,19
23,40,108,54,518,496,22,18
19,40,91,53,495,469,21,19
20,37,86,47,498,476,22,19
21,36,77,44,495,477,21,20
20,34,75,42,510,489,21,20
19,32,70,39,541,508,21,21
20,32,73,40,555,521,20,22
19,30,68,38,552,517,20,21
20,33,80,52,583,529,20,20
20,35,86,53,569,523,22,19
20,31,77,54,545,507,21,20
20,31,79,53,535,493,21,19
20,33,84,54,528,481,21,20
19,28,92,48,491,461,22,20
19,29,92,53,484,460,21,23
20,28,93,51,492,456,22,21
20,27,100,60,467,438,23,22
20,28,100,63,467,451,22,21
20,26,90,60,469,445,22,20
24,30,90,54,474,452,22,18
22,31,89,56,485,480,21,20
24,31,95,60,506,510,20,19
24,30,95,56,518,527,19,20
23,32,92,56,543,572,21,21
19,26,91,61,553,587,21,21
22,24,92,65,554,584,24,20
21,26,83,53,581,598,25,21
20,32,89,56,594,601,24,19
20,35,86,56,582,579,24,21
20,44,94,59,590,583,25,21
19,58,93,52,594,590,25,21
21,62,104,53,580,573,25,24
21,59,97,52,561,560,26,25
21,57,105,52,572,563,26,25
22,59,103,40,555,550,33,38
21,57,101,45,541,533,35,40
21,55,99,50,545,539,37,40
23,58,101,51,552,545,36,40
24,87,93,56,547,550,40,40
25,117,101,66,561,565,33,32
28,124,105,73,591,589,37,34
28,131,91,69,588,610,40,32
28,138,91,72,602,609,40,33
33,130,92,73,602,612,46,39
32,102,71,66,600,606,51,39
29,91,72,66,601,604,49,36
30,93,77,76,583,561,47,37
29,84,74,74,555,536,49,37
26,95,70,68,557,523,41,28
26,111,75,72,529,481,36,27
26,120,69,61,484,436,32,27
25,122,60,45,498,451,30,25
26,147,71,47,498,513,28,26
25,137,75,61,627,679,30,29
26,127,75,67,643,709,30,28
32,158,81,75,657,726,35,30
36,156,131,115,650,718,34,29
36,140,137,120,636,666,35,28
34,144,141,119,448,443,36,29
37,157,140,117,382,364,36,27
35,120,136,114,296,275,31,23
31,113,90,75,205,189,32,24
30,108,89,79,127,121,32,26
30,108,94,94,270,270,28,22
27,96,100,95,494,501,29,22
23,104,107,101,585,595,31,24
23,104,115,106,711,730,36,26
24,100,110,105,754,788,35,22
25,104,105,87,756,787,36,23
26,95,97,82,683,705,36,24
24,90,97,89,629,655,34,22
26,103,84,87,541,550,33,23
25,107,78,97,537,511,33,24
27,95,75,130,507,468,32,23
25,108,89,148,484,455,31,24
26,118,86,142,495,448,33,25
28,104,87,138,484,425,34,23
29,102,84,130,469,400,33,23
27,105,84,113,464,412,33,25
27,88,75,93,554,485,33,25
26,67,70,96,644,564,37,26
24,71,71,100,654,580,40,26
24,72,79,111,662,606,42,28
26,75,75,112,677,619,42,28
28,99,83,114,603,546,46,28
29,110,84,118,497,445,42,25
28,107,88,132,467,407,37,26
29,115,79,124,432,344,35,26
26,108,81,138,416,305,38,24
24,87,68,149,407,302,34,24
22,73,67,144,491,411,36,26
22,73,59,134,517,440,37,23
25,49,65,136,531,467,36,23
26,47,66,107,528,469,34,23
27,52,71,102,531,485,35,25
30,56,75,103,478,442,36,27
32,63,81,113,481,456,43,33
31,76,79,127,535,527,43,31
32,89,76,124,531,534,47,34
33,91,70,109,542,537,45,32
32,92,71,114,532,515,43,31
30,98,69,97,496,475,34,27
28,125,67,81,476,427,36,28
28,122,67,90,516,441,28,26
27,122,67,94,503,419,31,26
26,118,64,85,477,406,30,23
24,106,57,89,484,404,30,23
24,68,57,84,446,353,32,23
23,55,58,77,383,312,32,23
22,47,65,84,361,288,31,24
23,48,62,83,372,304,29,24
26,50,65,84,401,348,32,25
26,41,67,98,415,381,31,23
28,40,67,94,441,411,31,23
27,40,56,85,460,440,29,21
25,39,55,89,482,456,30,22
26,39,50,89,485,482,27,19
24,37,51,73,471,464,25,21
22,34,49,72,477,461,24,19
23,30,57,77,498,474,24,22
23,33,56,82,475,456,26,23
21,36,61,76,447,417,27,24
22,42,59,76,465,423,26,24
22,44,62,81,444,403,29,26
22,46,57,79,411,384,29,24
26,45,65,80,462,418,30,25
25,41,60,81,470,414,29,26
24,31,58,77,469,422,29,25
24,29,54,78,507,459,27,24
25,28,53,75,513,460,27,26
20,25,41,64,492,447,24,22
25,28,47,75,540,479,23,21
25,30,48,96,520,463,22,23
26,30,53,91,494,441,23,24
24,33,57,93,503,442,22,23
25,32,60,100,481,424,22,24
25,31,69,102,442,406,24,23
25,33,73,84,488,435,25,22
25,36,69,87,490,442,24,21
27,35,66,85,525,484,26,20
27,35,66,83,609,541,27,28
22,33,55,74,621,549,27,30
22,32,47,73,628,554,26,31
21,28,45,70,657,567,26,32
19,26,45,63,611,529,27,32
18,26,45,66,552,494,23,24
21,26,42,62,554,481,24,24
23,26,43,59,515,468,24,21
23,26,49,59,502,474,26,21
23,30,49,63,536,491,26,22
24,30,53,60,520,481,28,25
21,32,62,61,541,509,27,24
21,31,61,64,557,514,26,24
22,32,57,62,595,547,29,26
24,29,59,65,639,600,28,26
24,30,53,65,666,618,27,24
24,29,44,62,638,608,28,24
23,30,41,65,671,638,27,26
23,28,44,68,645,606,23,23
21,30,40,64,603,560,22,22
21,30,41,61,603,560,22,25
22,29,44,60,636,578,20,25
23,27,48,58,618,560,21,24
22,27,47,58,628,579,21,24
22,25,50,56,638,586,20,23
21,24,49,49,644,596,20,20
20,23,48,54,646,599,20,22
19,25,43,52,645,596,20,21
20,26,51,60,628,576,20,20
19,28,52,62,622,576,22,21
19,27,52,69,615,573,21,22
19,28,50,69,599,557,22,20
20,27,54,73,586,557,23,22
20,27,46,68,602,565,24,22
22,25,43,67,624,583,25,21
23,24,42,68,640,600,28,20
23,24,44,80,651,617,29,20
22,24,49,78,708,651,28,20
21,25,52,80,721,676,27,21
21,26,55,80,709,659,28,24
20,24,57,76,729,682,24,24
21,25,59,65,716,662,22,25
24,29,56,62,656,622,24,25
26,27,54,57,625,593,24,24
24,27,58,66,600,593,24,23
24,28,60,75,546,536,24,26
23,28,59,72,538,541,24,26
22,25,54,70,525,536,23,24
20,25,55,70,537,550,22,25
22,22,59,69,570,569,21,24
22,24,56,66,578,594,25,23
23,24,58,74,593,596,24,23
22,24,58,75,611,607,22,22
21,24,59,74,603,606,23,21
19,28,49,76,598,601,22,23
20,31,49,72,587,576,19,22
21,31,47,73,586,592,21,23
21,33,47,74,592,600,21,24
22,34,42,74,590,592,22,24
24,32,43,64,579,583,23,23
23,28,45,68,580,591,20,20
23,28,46,57,575,577,20,20
23,25,48,54,558,565,22,20
23,25,54,56,558,570,20,20
23,24,51,53,559,571,19,21
25,23,51,57,580,590,21,24
27,23,49,59,550,575,22,26
26,26,49,60,550,571,21,24
25,25,44,59,538,566,22,24
24,25,48,61,548,572,24,26
23,26,46,48,531,556,24,25
18,25,47,60,578,590,24,23
19,22,43,61,610,626,28,25
19,24,44,63,649,650,26,25
20,24,39,64,673,661,24,24
20,25,40,62,709,680,24,24
20,25,36,47,700,663,22,24
21,25,44,63,704,649,18,23
21,23,40,60,675,626,20,25
21,22,40,58,639,596,22,24
20,22,38,58,611,566,22,24
22,22,41,59,591,557,21,23
19,22,35,43,566,534,24,23
18,23,38,46,565,525,23,22
19,24,38,48,574,542,23,22
19,22,42,56,593,561,22,21
17,23,41,63,612,571,22,23
19,24,56,62,626,590,19,22
20,26,61,64,643,602,19,22
19,28,66,62,655,607,20,22
19,29,65,56,641,591,21,22
21,31,65,51,637,593,22,21
20,31,57,51,632,581,23,25
22,30,54,50,638,582,23,24
23,28,53,52,628,572,23,24
24,30,52,51,625,576,22,25
23,29,53,47,608,560,22,24
23,27,52,47,603,554,22,21
24,27,52,50,581,545,21,22
23,28,54,51,572,544,20,22
24,26,54,53,567,544,20,22
25,25,53,52,580,546,20,22
25,26,51,50,551,534,20,24
25,27,50,45,540,516,22,23
24,25,44,42,545,548,21,22
25,27,50,42,528,538,24,23
23,27,51,44,509,527,23,23
23,28,51,52,522,529,24,22
22,27,54,54,531,542,23,22
24,29,54,69,521,494,26,24
23,27,47,77,544,498,23,22
24,28,47,86,553,510,24,22
25,26,44,84,547,512,23,22
24,28,39,83,556,507,24,24
24,26,40,79,552,510,23,23
24,26,43,76,551,507,23,22
23,24,44,71,557,502,26,24
22,23,48,70,568,505,27,24
23,23,47,67,573,503,27,23
21,22,47,59,577,506,26,24
19,21,47,54,572,511,26,24
20,23,45,45,562,506,23,23
22,24,43,54,556,508,21,22
21,22,46,63,541,502,21,22
20,22,49,67,526,486,20,20
22,22,50,70,525,474,21,21
23,22,49,73,556,499,22,21
22,22,49,68,561,500,23,21
24,21,51,65,582,543,24,23
25,23,48,57,613,593,25,24
24,24,48,53,617,617,25,23
22,23,53,55,590,612,24,24
22,26,51,49,603,626,25,23
21,26,45,43,590,601,23,22
20,24,48,42,569,580,24,21
20,25,47,49,572,573,23,21
21,23,43,46,579,567,24,21
22,22,45,50,561,554,23,21
22,23,47,59,564,554,23,21
22,24,48,60,556,530,22,20
23,22,46,56,540,510,22,24
22,24,45,53,546,512,21,24
23,24,43,52,534,505,24,25
22,25,44,50,525,498,23,25
22,24,38,50,549,523,23,26
20,25,40,49,536,516,24,21
20,28,43,51,526,511,26,22
18,26,47,54,567,537,24,20
18,27,47,48,556,533,24,21
20,27,53,52,562,540,23,21
21,25,54,51,626,588,22,23
22,21,51,50,621,578,19,24
22,22,48,46,597,555,20,24
24,21,45,49,629,573,20,22
23,22,40,45,610,550,21,24
22,24,40,47,558,513,24,22
22,24,43,49,584,529,24,19
22,26,44,48,589,530,25,19
22,25,44,48,556,504,25,19
21,24,43,48,577,515,25,18
21,24,40,53,585,526,23,18
22,25,37,54,551,499,24,18
22,25,43,57,591,523,23,19
20,26,41,56,604,534,22,21
21,27,47,57,609,536,21,20
22,28,51,58,647,552,22,21
21,27,51,55,669,573,21,21
20,28,50,57,657,574,23,22
23,27,50,54,706,604,24,22
23,26,50,51,690,587,25,23
23,24,51,42,673,567,25,22
23,25,55,42,670,558,25,23
24,22,54,38,644,528,23,25
24,25,61,41,585,483,22,24
24,26,60,41,573,475,21,24
24,27,56,51,537,456,20,24
22,26,53,51,515,444,21,23
22,26,54,48,508,438,22,20
22,26,48,50,509,438,22,18
20,26,49,48,514,452,23,18
20,24,53,50,504,438,24,19
23,27,53,56,516,445,24,19
26,27,51,60,533,465,24,21
25,28,57,67,533,468,24,21
25,28,53,76,611,548,25,23
27,28,51,73,694,631,24,22
24,26,49,67,718,652,24,24
22,28,51,68,700,638,26,25
22,26,47,64,687,626,23,25
22,25,47,57,615,543,24,24
20,28,45,52,514,439,23,24
20,27,45,52,446,382,24,23
18,25,43,53,431,374,22,22
18,26,38,61,463,400,25,22
18,25,37,64,481,424,25,23
19,24,44,74,488,432,29,24
19,25,44,76,521,450,29,25
21,26,44,77,512,442,28,25
22,26,43,67,472,407,28,26
22,28,42,63,435,358,26,24
21,28,40,61,425,353,22,23
21,28,45,64,394,327,21,23
20,29,44,64,414,327,24,22
19,26,47,65,416,335,23,23
18,24,50,67,421,357,25,25
20,24,50,68,441,368,25,25
22,24,48,66,452,387,26,26
24,24,48,63,469,410,22,26
23,25,45,65,523,445,22,24
24,26,50,72,522,442,23,22
24,26,47,70,512,434,22,21
24,26,44,68,498,411,21,20
23,26,46,71,487,400,22,20
23,26,60,89,428,355,21,21
24,23,52,82,408,336,19,20
23,25,54,82,388,328,22,24
22,25,55,83,386,336,26,25
23,22,57,80,375,325,26,26
25,23,56,74,395,355,26,27
23,23,58,78,411,373,27,27
25,21,55,73,436,403,24,26
23,22,53,73,481,435,22,22
24,24,49,71,489,455,23,23
22,24,36,60,475,437,24,22
21,25,35,57,520,471,23,23
19,27,36,54,532,465,24,20
19,25,37,58,490,431,24,25
19,26,44,70,504,431,23,23
20,25,43,65,497,423,21,25
20,24,42,61,454,387,22,24
19,22,42,64,447,382,21,26
20,21,43,60,466,403,20,21
18,18,35,57,507,470,20,24
22,20,36,71,533,485,23,24
24,22,36,74,533,488,24,25
26,26,40,74,524,489,25,24
25,28,42,87,553,500,25,25
26,30,46,93,481,412,25,21
23,29,56,82,454,407,24,21
23,29,58,85,488,426,23,22
23,26,56,87,462,414,21,21
23,23,55,77,426,410,21,23
22,21,56,69,503,467,20,23
22,22,49,69,511,478,21,23
20,20,50,69,508,482,21,20
20,23,50,70,555,500,22,20
21,25,50,65,563,502,22,19
23,26,49,56,580,517,23,18
24,27,47,66,615,524,21,20
25,27,46,68,587,502,23,20
23,26,45,65,566,504,24,22
23,26,43,69,561,495,24,22
21,26,43,76,484,448,23,22
23,29,43,78,456,447,26,23
22,29,40,71,481,460,24,22
23,28,42,89,476,460,23,24
22,26,46,88,514,497,23,24
25,25,44,82,564,527,24,27
22,22,42,75,576,549,22,26
24,22,43,80,607,572,23,26
24,22,47,65,629,576,24,22
25,24,45,67,615,564,22,22
25,26,46,66,599,560,23,20
26,26,48,75,608,550,21,19
25,27,48,74,604,555,21,20
25,28,45,67,604,563,20,27
29,28,46,64,595,553,23,29
28,28,44,64,616,553,22,29
26,26,43,58,620,578,23,31
25,25,48,74,604,561,23,32
24,26,54,88,657,606,23,26
20,26,58,89,685,628,22,24
22,24,63,89,674,619,23,26
22,25,64,87,680,605,23,25
21,25,61,73,680,603,24,22
21,24,58,64,654,581,25,23
20,34,61,66,655,578,24,24
20,36,59,73,647,583,23,22
20,35,59,70,658,594,24,22
21,36,61,68,691,622,24,25
22,36,58,63,654,598,22,24
23,27,54,56,647,603,21,25
22,25,52,53,685,622,20,25
24,28,50,50,656,611,21,26
27,27,45,54,616,575,20,24
25,30,48,57,615,556,22,25
24,37,46,59,588,535,22,22
24,38,43,59,538,505,23,22
22,37,41,60,533,490,21,22
19,40,41,61,527,497,23,22
20,44,42,62,543,516,22,20
22,41,38,61,584,526,23,21
25,45,57,80,587,536,22,20
26,52,62,83,590,546,25,20
27,54,62,86,613,549,24,22
27,52,65,88,594,546,25,24
24,58,66,86,597,569,25,24
24,56,54,65,585,560,25,26
25,55,54,75,583,568,26,28
24,51,55,68,564,580,27,27
27,54,51,71,580,582,27,37
27,46,56,81,555,567,29,39
25,48,62,86,565,574,31,39
24,44,61,87,574,567,29,39
26,49,60,87,564,552,28,39
24,44,59,83,549,552,29,31
25,44,54,73,539,545,26,28
24,41,54,73,520,530,24,27
27,40,65,73,489,509,25,28
26,37,65,75,474,501,24,33
26,37,65,75,492,506,21,34
26,36,64,76,468,490,23,34
27,35,57,81,475,492,22,34
23,32,46,69,525,535,24,34
22,32,53,74,543,550,25,30
21,37,49,74,570,578,24,27
21,39,53,76,607,601,22,27
19,39,54,67,627,630,23,27
22,48,53,71,645,634,24,27
23,46,53,78,678,650,23,26
23,43,56,92,663,637,24,27
22,42,56,101,675,629,25,30
23,42,60,123,684,617,28,30
21,29,55,122,634,579,26,28
19,28,54,114,593,549,26,29
18,26,61,107,596,538,25,28
21,24,66,113,551,522,26,25
21,21,66,89,511,507,23,24
20,27,66,88,536,529,24,26
20,27,67,96,547,541,25,26
20,26,59,92,541,556,25,28
21,28,55,75,564,568,25,29
23,31,50,71,584,581,24,30
22,27,53,73,593,585,25,31
23,27,48,58,626,586,24,30
23,27,48,57,635,593,25,30
22,34,48,56,641,593,23,28
22,46,48,58,652,589,23,27
23,55,47,65,631,579,21,24
25,56,47,66,602,569,24,32
24,68,52,65,583,540,26,34
25,82,48,67,566,539,27,36
24,78,47,66,560,539,26,36
22,73,46,58,562,533,27,37
23,72,46,56,565,534,26,29
22,63,42,64,564,538,24,31
22,39,39,55,566,536,25,29
24,35,44,61,556,532,27,31
26,33,47,67,537,521,25,29
26,34,47,71,542,536,25,29
26,34,53,77,550,535,24,26
27,36,54,78,574,543,23,27
24,34,54,75,576,534,20,25
24,35,52,79,604,554,22,26
26,42,66,93,597,539,20,26
25,42,62,81,596,544,23,33
24,40,62,81,589,540,24,34
26,40,61,87,595,548,23,36
24,42,62,81,571,522,24,36
22,36,49,63,559,519,24,36
25,33,51,66,562,531,24,37
24,32,50,64,525,501,24,38
21,35,48,54,531,493,26,36
22,32,50,69,534,498,27,37
22,29,48,70,537,490,30,41
23,37,44,72,540,473,29,36
25,40,42,73,548,475,29,33
26,40,43,71,522,469,28,33
26,40,37,61,537,475,27,35
26,40,42,70,523,465,24,32
26,33,44,67,508,450,25,30
25,31,42,68,547,506,24,32
25,30,45,69,561,530,25,33
24,30,44,68,565,565,24,27
23,29,40,56,597,608,23,27
21,31,42,53,599,623,23,27
19,30,51,67,570,610,25,26
25,29,46,63,576,609,27,32
26,31,49,60,567,580,28,36
25,32,50,59,553,559,28,36
27,31,49,60,571,572,29,38
28,31,42,50,563,549,28,40
23,33,48,56,541,531,27,36
23,31,47,79,552,546,25,34
22,30,47,84,533,530,24,35
20,32,48,84,515,504,25,33
19,30,45,81,546,520,23,29
19,27,39,78,548,522,22,27
17,30,47,63,546,513,22,27
19,29,45,58,575,545,23,25
19,25,45,56,576,552,22,27
23,25,48,57,551,538,22,29
24,30,50,58,594,568,23,31
24,27,42,51,604,577,26,31
23,29,45,55,597,563,27,30
24,34,45,59,621,588,27,31
21,35,44,58,634,593,27,30
21,33,41,59,587,554,29,29
20,34,50,71,587,545,28,30
21,32,48,64,577,529,27,30
20,30,47,63,559,502,27,28
21,30,49,67,579,507,26,25
18,32,53,74,585,506,25,25
19,32,44,70,573,491,25,22
19,33,44,81,593,507,23,23
20,32,46,80,581,490,23,23
19,32,45,76,557,477,24,26
19,31,43,69,594,506,22,25
20,32,50,81,600,533,22,26
21,34,51,72,605,534,25,26
21,35,54,79,632,556,24,28
21,37,54,78,647,570,24,28
21,36,56,79,626,560,26,31
22,32,50,61,629,544,25,30
23,31,52,65,631,543,24,31
22,33,51,58,610,527,24,29
24,30,54,64,595,511,24,25
26,32,50,62,590,503,22,23
24,35,53,64,579,503,23,31
23,34,51,67,545,484,22,34
23,33,48,64,534,476,23,34
23,35,47,63,525,469,21,35
22,32,50,73,521,465,22,36
21,30,53,94,519,458,21,31
20,31,53,89,532,470,23,26
21,32,51,94,542,474,24,25
20,30,48,92,566,496,25,27
19,33,50,104,578,517,24,27
18,34,42,86,587,523,25,28
22,32,40,86,678,614,23,29
24,33,44,83,714,668,24,33
24,31,44,83,724,674,25,33
26,29,36,59,705,653,25,31
27,26,44,56,668,625,24,31
24,27,46,60,553,505,23,34
24,25,44,59,471,422,21,30
22,27,47,58,383,369,21,30
21,27,51,68,363,357,23,31
20,28,42,66,381,372,22,27
21,28,42,64,406,405,22,25
22,30,48,63,410,393,25,30
24,30,45,63,440,389,24,29
25,29,45,46,442,386,23,27
26,30,49,60,443,382,25,28
26,28,48,58,430,362,25,27
24,25,44,60,432,360,23,19
24,25,42,61,440,368,25,20
23,24,39,61,460,381,25,31
23,25,38,49,451,378,24,33
22,24,38,49,474,396,25,32
23,26,45,52,494,411,27,33
24,25,46,49,479,409,25,36
24,27,45,47,474,407,26,28
24,27,49,52,488,419,26,29
26,29,49,61,483,418,25,30
25,28,40,63,475,414,22,30
26,28,41,65,455,397,23,29
25,26,43,66,455,406,22,30
24,26,38,60,447,390,21,28
21,27,39,61,407,358,21,26
22,24,39,53,388,347,20,27
20,25,37,58,390,349,19,24
20,24,37,61,396,341,21,22
24,22,34,62,417,368,22,22
24,21,33,52,442,394,25,34
23,24,35,54,467,416,34,95
28,29,43,53,523,455,41,136
28,32,48,71,525,461,42,143
25,33,48,71,521,464,43,143
25,33,51,73,576,493,41,143
26,32,50,73,559,477,35,112
20,26,47,70,511,439,26,63
21,24,44,57,501,422,24,50
24,24,46,59,470,392,22,48
24,25,45,57,402,354,21,43
23,25,44,62,429,369,20,43
26,25,40,62,425,376,20,32
24,27,39,53,425,379,21,29
23,29,49,61,481,429,24,30
25,29,49,60,469,426,25,31
25,29,48,57,442,412,28,32
23,30,55,58,494,444,34,74
24,30,55,58,487,446,39,102
26,31,43,44,448,415,39,108
24,30,47,57,493,433,40,110
26,31,56,69,504,450,38,112
25,31,51,68,496,437,33,93
27,30,50,68,520,467,28,69
25,25,54,71,534,513,25,58
27,27,51,63,529,526,24,54
25,26,49,54,541,529,26,49
25,26,50,55,528,536,25,45
24,27,51,57,523,531,23,37
22,28,50,53,533,497,26,36
21,28,53,57,497,466,26,39
21,27,51,54,481,450,25,37
22,27,53,52,478,442,27,34
20,28,52,50,469,436,28,31
23,28,50,50,464,439,26,31
25,29,47,47,508,470,26,30
25,30,46,53,532,495,25,29
25,30,43,64,571,536,23,27
27,27,44,66,575,534,20,32
26,26,45,67,611,568,22,33
25,27,48,69,656,607,22,31
26,29,53,70,658,611,24,32
25,28,50,63,652,595,22,33
24,26,47,61,663,604,23,31
24,27,47,66,638,580,22,30
23,24,45,61,594,544,22,31
24,24,37,56,586,541,20,33
23,24,41,60,587,537,22,34
23,25,41,58,632,566,21,35
24,26,45,64,647,585,23,34
24,27,42,63,658,596,22,32
23,27,44,62,696,628,24,31
25,27,43,61,700,642,24,30
25,27,47,62,663,618,25,28
23,26,42,56,673,611,22,28
25,24,47,64,644,592,28,29
24,25,46,63,610,568,32,31
24,27,44,60,614,591,36,29
22,27,42,69,603,604,35,27
23,28,43,69,590,602,35,27
23,29,37,62,643,627,31,27
24,27,41,67,648,634,26,23
23,25,46,70,656,624,22,22
25,23,49,71,699,642,23,23
26,24,52,67,703,662,22,23
24,23,56,75,669,649,23,26
23,29,62,73,657,634,23,26
24,32,62,77,616,605,22,25
22,31,60,72,576,575,21,26
21,30,58,73,551,540,22,26
21,30,55,76,519,526,24,23
20,27,45,70,519,532,23,22
21,25,42,64,544,545,24,26
22,28,41,72,531,545,24,25
21,28,42,75,556,583,23,26
22,27,41,64,606,610,20,27
23,28,40,64,619,622,21,26
24,30,39,65,619,634,19,23
23,29,39,50,637,645,20,23
24,29,39,55,614,622,23,23
23,31,39,59,595,613,23,21
23,30,41,59,579,600,25,23
21,29,40,55,554,578,24,26
21,28,37,56,537,568,24,29
22,30,37,46,553,568,22,32
21,29,36,53,544,562,23,33
21,27,38,53,548,573,21,34
20,28,40,58,557,572,24,36
21,28,40,69,609,630,24,35
19,27,42,75,600,634,23,33
19,26,42,73,597,630,24,31
21,31,47,74,605,622,24,33
23,31,50,76,601,631,21,32
23,31,53,64,567,578,23,31
24,31,50,57,573,570,23,31
24,31,52,49,582,580,24,31
22,27,47,47,584,585,25,26
22,25,42,40,609,594,27,25
22,25,51,54,623,610,25,24
21,26,54,58,638,629,24,24
21,25,51,57,659,641,23,25
22,26,50,57,664,647,22,27
21,26,51,55,665,643,22,24
21,28,42,46,653,627,23,24
20,26,38,49,625,602,24,23
23,27,38,50,598,572,24,25
22,27,37,49,578,544,25,23
23,27,36,48,557,532,23,25
22,24,35,47,535,516,23,25
22,26,38,49,543,518,21,25
21,27,39,46,529,522,21,23
20,26,41,50,555,552,19,24
20,28,44,53,572,556,22,22
19,29,44,62,591,591,20,22
21,27,46,54,610,602,26,23
22,26,48,56,647,614,30,22
22,24,49,53,636,609,29,25
24,23,50,57,629,614,28,26
23,22,50,52,628,589,28,25
24,25,50,59,607,575,25,24
23,26,47,58,564,558,21,24
24,29,44,72,558,550,21,21
22,28,46,73,543,543,21,19
24,29,48,73,534,547,22,23
22,28,46,70,529,543,20,23
21,32,53,72,530,547,18,23
22,30,53,59,541,556,19,26
21,29,50,55,535,539,19,25
22,28,46,53,518,516,19,25
23,28,47,61,527,511,22,26
23,23,43,65,528,503,22,24
25,23,52,72,519,490,25,24
25,26,52,71,529,493,24,25
25,27,55,69,535,503,24,22
24,25,53,63,562,527,22,22
23,24,50,58,581,535,24,23
21,25,48,54,578,531,22,21
20,24,47,52,598,554,22,22
22,26,44,49,600,547,23,22
23,27,44,48,562,515,24,23
26,27,47,45,548,500,25,23
27,26,40,44,541,486,26,22
27,26,38,48,505,449,25,27
26,24,39,48,501,445,28,28
24,22,38,45,509,461,27,25
21,23,32,52,489,450,25,25
21,25,33,49,498,470,24,25
22,27,40,51,504,470,24,21
22,27,42,54,496,470,20,20
24,29,44,56,513,475,22,21
25,33,47,54,522,477,23,22
25,37,49,56,534,492,24,23
24,36,51,58,565,551,27,24
23,37,53,72,563,562,27,24
23,37,59,85,545,565,27,27
22,33,61,86,560,593,24,27
21,27,59,85,521,567,26,26
22,28,59,91,468,502,23,24
24,25,66,82,479,497,23,24
24,26,61,70,459,472,23,22
23,26,61,67,424,428,24,25
23,25,62,86,444,435,24,27
26,30,61,77,450,445,25,31
26,40,53,75,418,416,24,30
26,41,54,73,441,434,23,33
27,42,51,73,442,437,23,31
30,52,51,54,406,405,23,32
25,51,49,53,431,418,24,32
25,49,46,52,453,437,25,35
24,48,46,61,425,408,23,38
23,59,46,58,452,425,25,39
21,53,50,55,477,448,24,38
24,55,48,53,475,448,25,37
22,58,51,61,493,466,25,38
24,61,51,52,512,484,28,35
23,55,50,55,517,481,29,32
23,55,47,53,516,488,32,33
24,50,44,59,670,628,32,34
25,43,44,62,690,660,32,34
27,52,50,66,708,683,31,34
28,48,62,72,704,697,30,35
29,48,65,83,705,696,28,33
27,62,77,101,522,544,29,31
28,108,77,100,437,450,28,29
25,132,74,100,349,364,27,28
26,134,66,101,262,272,26,27
25,134,62,97,164,175,25,33
26,132,46,81,114,118,24,33
27,104,45,78,96,99,26,32
29,66,44,82,449,497,28,34
28,62,44,74,589,650,27,40
29,67,47,82,712,762,28,37
28,61,53,77,786,842,26,36
25,50,50,74,855,902,24,36
23,47,49,68,810,822,22,35
23,49,49,74,786,773,23,32
24,39,49,65,728,712,25,30
22,37,42,64,696,658,25,33
22,41,43,67,664,630,23,35
21,43,48,72,609,583,23,34
21,49,47,64,576,546,22,35
17,52,45,60,570,539,19,35
22,51,47,62,555,529,22,34
25,55,46,64,554,514,24,34
26,56,48,58,571,608,26,34
26,52,52,63,803,888,26,31
27,53,57,73,807,900,27,32
24,54,58,86,814,910,23,32
21,51,59,101,826,947,23,33
21,49,54,114,860,953,23,33
21,43,54,122,669,779,26,35
23,47,50,134,824,936,30,38
32,46,52,131,1072,1155,33,45
32,43,55,123,1316,1319,35,45
33,47,53,109,1353,1300,35,44
34,51,55,102,1406,1338,32,41
33,52,55,93,1341,1260,29,41
25,52,50,83,1164,1069,26,35
26,52,50,75,860,821,25,32
24,55,49,75,755,788,23,33
25,58,47,82,609,648,23,33
25,58,46,71,776,831,23,29
26,63,50,78,749,809,22,25
24,63,47,91,742,803,20,24
25,60,49,93,728,792,19,26
24,64,47,90,711,754,24,29
25,58,45,87,391,393,24,29
23,49,51,107,330,340,26,29
23,47,52,104,388,431,29,33
21,49,52,105,542,571,33,35
22,40,52,99,650,677,32,34
21,41,52,98,713,742,31,33
24,47,46,91,756,782,31,33
25,50,47,83,721,765,28,30
26,46,46,84,860,939,25,27
26,45,47,89,805,883,26,28
27,47,54,98,767,845,26,29
26,45,54,81,781,855,27,43
26,45,55,77,800,853,27,44
26,42,54,83,594,613,26,43
25,44,54,79,591,632,23,43
24,47,52,70,617,643,24,47
23,47,55,69,575,608,22,40
26,46,52,67,656,699,23,37
25,46,52,72,774,855,23,38
27,44,50,91,779,838,24,40
26,39,45,103,805,907,25,35
24,48,40,114,851,978,26,30
26,50,45,130,937,1067,30,34
27,54,49,129,1078,1151,31,34
28,60,50,122,1325,1397,34,35
29,59,54,111,1443,1419,35,35
31,51,53,100,1454,1407,36,35
27,51,49,79,1397,1331,32,37
25,54,48,82,1215,1133,31,40
24,48,45,70,931,819,26,36
23,50,44,65,687,694,24,35
23,63,44,73,608,628,23,36
24,62,47,82,524,520,24,33
26,58,47,66,508,518,26,28
25,63,50,69,498,497,27,30
24,59,48,72,493,498,30,31
21,45,50,63,511,497,28,31
23,48,48,58,487,465,28,32
21,46,46,65,445,440,27,32
20,58,43,61,473,457,25,31
22,60,42,63,481,453,24,38
23,59,44,77,487,473,27,38
22,61,41,70,525,507,26,36
23,62,40,65,535,506,25,35
24,44,41,68,531,503,28,42
22,49,42,61,585,605,27,41
24,50,35,46,736,802,26,40
25,46,41,53,760,827,26,40
25,51,45,62,764,835,27,41
28,53,47,69,752,827,29,43
29,57,49,78,690,738,30,38
29,55,47,77,469,461,29,38
29,58,47,78,343,339,29,38
28,55,43,72,260,254,27,38
26,55,42,61,367,384,22,28
26,50,45,55,537,541,20,24
25,51,47,52,646,664,22,26
23,47,44,46,731,758,20,27
21,43,44,42,783,811,22,29
21,40,43,45,774,799,23,32
21,36,36,42,720,752,22,34
20,37,37,64,678,685,22,34
21,33,40,65,615,615,24,37
22,33,42,67,602,589,25,34
22,40,45,64,596,561,23,31
19,46,46,71,580,537,23,32
20,50,43,62,571,542,23,35
22,51,40,58,614,545,21,31
21,51,39,61,610,556,20,30
21,47,39,81,601,560,20,29
21,39,39,77,622,569,19,29
21,39,39,70,608,556,19,28
22,40,46,75,595,566,21,29
22,51,45,76,583,544,22,30
21,52,46,62,561,529,23,34
23,57,47,60,552,528,23,39
25,54,51,62,593,549,23,37
24,53,47,66,598,561,20,36
23,47,50,62,634,597,20,37
23,57,54,64,667,611,20,36
24,57,56,67,658,615,24,29
21,59,53,70,655,627,25,31
22,60,54,65,663,624,27,29
24,60,52,70,642,607,26,28
24,49,46,65,625,599,26,27
24,46,41,63,625,583,24,27
23,48,49,62,586,549,23,25
23,45,46,66,561,541,22,26
21,54,50,67,541,519,22,25
22,55,47,65,534,510,23,23
21,73,58,81,530,518,22,23
22,78,52,78,554,530,22,25
22,79,52,72,550,530,22,24
21,74,49,88,563,549,22,31
19,74,60,94,576,563,25,39
21,64,50,82,569,553,25,38
21,54,53,103,563,561,25,38
24,54,62,107,548,549,25,38
26,51,63,99,540,539,24,34
28,62,55,97,521,538,19,25
28,59,57,93,512,538,21,27
28,69,65,86,504,522,22,26
26,83,70,89,523,544,22,26
27,85,68,81,539,553,25,30
28,93,81,81,550,551,24,29
28,103,87,84,561,570,24,28
27,97,80,77,575,573,23,27
28,95,70,66,568,556,26,30
27,92,69,65,544,549,25,25
27,100,64,77,525,526,27,30
27,88,54,75,517,507,29,33
28,90,60,68,490,497,31,34
30,81,62,80,484,499,27,30
27,81,66,83,524,521,28,32
26,50,70,69,535,540,27,29
22,47,69,74,551,545,27,26
23,39,65,77,574,554,25,25
23,44,71,70,587,564,28,26
25,51,71,76,603,598,27,23
24,48,62,77,594,586,26,22
26,47,66,78,584,581,26,25
25,56,67,83,558,573,25,30
24,52,58,78,557,571,23,28
25,47,57,85,505,508,24,31
25,49,56,88,509,514,25,34
24,48,50,85,518,525,23,31
24,47,52,78,524,527,25,29
23,46,58,88,530,544,26,29
22,51,56,74,557,572,25,28
22,51,50,72,572,593,24,26
22,53,53,70,584,611,24,26
25,45,59,82,638,649,23,22
25,43,54,78,651,650,20,24
25,34,56,79,668,656,21,23
26,34,59,80,681,649,20,22
27,32,59,84,682,635,22,25
27,32,59,86,651,605,21,27
26,35,57,98,640,588,22,25
27,36,55,98,623,574,21,26
27,35,58,104,597,564,26,25
25,32,56,102,579,561,25,23
24,31,48,87,570,559,27,22
24,39,55,81,563,553,27,23
23,40,54,85,558,547,28,25
20,47,51,80,572,555,25,27
22,49,60,80,567,548,24,25
21,49,71,106,559,536,23,26
22,46,68,99,567,546,22,23
21,46,66,97,539,524,23,27
22,41,67,95,538,510,21,28
22,49,66,114,573,544,20,32
23,52,53,94,571,548,20,32
22,48,55,94,572,545,21,32
21,47,55,92,614,586,18,26
23,51,55,107,619,590,20,29
22,43,46,84,584,546,20,25
21,47,50,85,614,555,21,28
21,51,48,84,596,536,21,29
20,55,49,96,564,495,22,29
21,53,50,79,553,489,21,26
24,59,50,77,540,483,22,32
24,53,53,72,492,447,22,30
25,49,53,74,497,445,21,32
27,53,52,59,484,435,22,33
26,55,48,54,486,434,23,32
24,48,51,56,496,447,21,27
25,44,45,56,505,463,20,24
24,51,44,46,489,453,19,22
24,45,46,41,509,474,19,23
23,40,50,45,500,484,19,24
21,40,48,50,500,482,21,23
21,42,45,58,527,512,24,28
22,34,42,77,550,559,26,30
21,37,45,88,557,564,26,28
21,38,57,106,569,578,28,30
22,44,57,105,575,587,27,36
22,44,60,104,545,562,25,36
20,43,64,99,558,559,23,33
21,37,60,90,556,563,25,35
20,35,47,71,536,533,22,36
20,38,45,84,539,541,22,32
20,37,46,85,548,558,22,29
21,37,48,81,535,546,23,30
22,38,51,87,535,551,22,30
24,39,52,82,554,568,24,30
21,32,53,72,552,556,22,29
22,32,55,72,581,570,24,29
20,32,50,70,588,576,23,29
20,40,51,61,592,572,24,28
20,39,61,72,607,582,23,30
22,38,66,71,628,597,25,33
24,39,65,71,622,593,25,33
25,39,63,67,620,581,25,34
25,31,65,74,628,579,25,33
24,43,55,65,602,557,24,31
23,42,47,67,587,542,23,28
22,42,49,63,584,529,23,26
21,40,49,64,568,521,23,24
22,40,46,59,552,506,20,26
23,37,54,69,560,497,21,25
26,38,58,67,544,488,23,25
26,38,56,69,544,477,25,25
24,40,56,68,560,479,25,27
26,41,54,63,569,488,27,29
24,37,45,51,578,505,25,30
24,37,40,60,592,509,25,32
22,36,39,59,585,509,23,31
23,45,44,59,603,530,23,28
21,46,48,67,610,551,23,30
21,43,47,69,588,533,25,29
18,42,46,61,599,541,24,28
21,42,44,65,619,558,24,29
22,33,44,64,588,527,23,29
22,32,46,70,579,514,24,28
23,29,46,70,609,535,23,28
22,29,49,70,588,514,21,28
22,31,51,65,569,493,24,28
22,27,47,63,587,510,27,33
21,27,45,59,568,488,25,34
20,27,47,64,549,476,25,33
23,26,50,60,580,505,27,35
21,24,53,59,569,508,25,36
21,23,57,66,548,494,25,32
21,23,59,65,566,511,25,31
20,22,58,60,562,511,24,31
20,21,53,59,535,493,22,29
21,23,49,60,548,493,21,29
21,24,51,93,563,503,23,27
24,23,52,89,586,503,24,26
27,23,52,90,620,553,26,27
24,23,55,103,646,590,28,29
25,21,55,110,673,614,29,30
25,21,52,78,646,604,27,29
23,22,50,77,588,565,28,29
21,24,49,76,527,493,27,30
23,25,46,63,467,429,28,35
22,28,47,68,377,371,26,35
22,29,42,76,394,367,27,37
22,29,40,75,401,382,25,38
26,29,41,75,442,415,26,35
26,28,41,84,439,406,24,29
25,26,45,68,449,400,25,31
24,26,46,66,453,428,26,30
27,25,48,77,457,430,26,29
22,25,51,84,427,398,25,30
22,25,53,73,450,416,25,29
23,25,51,76,469,429,24,27
25,23,53,92,442,377,25,33
24,24,50,83,440,371,27,36
24,23,51,86,463,383,27,35
24,25,49,85,471,387,27,33
22,26,49,93,450,365,27,33
21,27,44,72,460,379,25,27
19,27,45,75,466,392,22,24
20,27,38,61,457,400,21,26
21,25,39,60,431,392,21,29
21,25,38,53,423,389,21,29
21,25,39,55,438,399,22,31
22,25,39,50,432,382,21,31
21,27,39,53,405,355,23,32
20,26,47,73,410,352,23,32
21,25,50,71,405,356,24,32
19,25,56,72,398,351,25,34
18,25,56,73,434,378,26,33
20,22,55,75,460,409,25,36
21,23,52,72,491,438,24,35
22,25,62,85,551,473,25,34
23,26,57,83,556,473,24,31
25,28,55,85,531,457,23,31
22,29,56,83,533,445,23,29
26,29,56,82,508,413,25,30
24,26,37,63,453,376,25,29
28,26,43,66,436,370,25,31
26,23,47,68,431,377,25,33
28,22,50,69,403,376,24,29
25,23,49,62,400,384,23,29
25,25,50,72,394,391,20,29
20,26,47,70,411,404,20,26
21,26,45,63,476,443,18,27
19,26,43,63,485,451,18,29
20,29,39,64,496,456,19,29
20,28,42,64,529,474,20,28
21,27,43,67,537,477,22,33
21,28,45,70,482,442,25,33
21,27,46,79,519,469,24,31
22,25,46,70,522,475,25,30
23,23,43,61,502,468,26,31
23,22,43,66,484,460,24,30
22,22,43,70,502,466,21,29
23,23,39,60,463,434,23,30
22,23,42,66,471,440,21,30
23,25,46,77,500,448,21,31
24,25,46,70,502,444,22,29
24,25,47,71,506,451,23,29
24,26,47,70,534,473,22,28
22,24,43,64,511,456,23,31
21,25,48,76,505,461,22,31
21,27,47,80,538,494,23,32
20,27,45,78,533,505,24,33
19,26,48,83,543,529,24,32
20,26,51,88,591,567,23,27
20,26,42,75,604,586,23,25
20,25,46,74,633,603,20,24
20,24,47,71,683,627,21,23
21,24,46,66,678,617,23,23
23,25,44,59,691,615,22,22
22,26,46,52,690,596,22,22
21,26,46,48,706,632,24,23
23,26,42,50,683,620,23,21
23,26,44,48,685,607,21,21
20,24,47,75,659,635,22,22
22,23,49,73,653,638,22,22
21,25,46,75,615,589,21,20
20,23,51,72,611,588,19,21
20,24,51,88,625,610,18,26
22,25,51,73,645,581,21,30
21,24,49,74,657,603,23,30
22,22,47,72,653,606,23,31
22,21,44,77,664,609,27,31
23,22,44,65,639,591,29,27
22,23,42,59,626,593,27,24
22,24,44,59,640,596,25,23
24,24,45,63,641,602,25,26
24,24,46,62,633,602,22,22
24,25,46,56,666,625,20,24
24,23,47,68,674,635,21,24
25,21,48,70,654,626,22,24
24,22,51,73,660,627,23,26
25,23,48,74,676,642,23,33
24,22,47,80,655,627,23,37
26,27,51,78,633,602,21,38
25,29,54,84,614,589,22,39
25,30,53,85,577,562,21,37
21,31,53,83,539,539,20,33
21,29,52,78,516,526,20,29
19,27,45,69,513,534,21,30
19,24,37,56,523,537,20,30
18,22,42,58,560,566,19,30
21,20,45,54,583,596,20,29
21,23,44,54,629,629,21,26
21,21,46,68,660,647,20,24
23,22,46,78,663,665,19,28
24,25,40,69,649,650,21,28
23,26,46,77,633,623,24,28
23,26,49,80,603,609,23,28
22,26,50,69,568,586,25,28
21,26,56,75,549,560,25,24
19,23,56,80,543,569,24,29
19,24,52,74,533,573,22,31
21,24,50,71,533,567,22,31
23,25,48,72,532,577,22,31
23,24,41,55,548,589,22,32
25,27,45,50,583,607,24,32
25,28,43,47,588,611,24,32
23,27,42,47,594,615,26,31
24,25,43,50,594,604,25,31
24,28,48,52,591,598,29,30
21,25,44,47,549,566,26,25
20,23,43,47,541,556,25,25
23,23,47,59,540,557,22,25
22,25,47,64,549,562,24,25
23,23,45,61,555,557,19,25
26,24,44,62,570,588,19,26
26,28,45,62,586,600,20,27
24,27,39,55,584,599,22,27
23,28,42,63,584,611,20,27
24,27,40,66,594,622,23,29
21,27,46,71,603,595,24,28
22,25,45,72,588,577,25,27
21,24,47,68,576,563,24,28
23,23,47,65,570,543,25,28
22,24,51,64,552,535,25,29
23,24,47,56,567,548,26,30
22,23,51,56,583,561,26,32
23,23,52,62,645,631,26,31
21,24,48,55,660,638,24,33
22,26,49,57,700,666,24,29
22,25,48,59,694,668,22,28
24,25,42,60,719,684,23,30
26,27,51,55,668,618,23,34
25,25,49,53,677,616,23,32
25,24,51,55,634,580,21,33
24,27,53,68,611,557,22,32
23,27,60,68,577,528,21,29
21,26,53,68,569,524,21,25
22,25,55,69,537,506,21,29
25,23,52,71,547,508,25,31
25,21,50,62,568,522,25,31
24,21,46,62,568,522,26,29
24,21,55,85,612,557,25,29
24,25,53,82,623,566,28,28
20,27,53,78,613,561,27,28
21,27,52,77,598,542,29,29
21,27,50,94,591,538,28,29
20,26,44,79,548,507,28,31
23,23,45,89,573,525,25,30
25,23,43,88,579,530,23,31
24,30,49,90,598,552,25,32
24,31,50,72,612,560,26,31
25,32,45,70,614,555,25,30
23,33,45,61,577,530,25,30
22,39,47,61,579,521,25,28
24,45,47,59,546,505,23,24
26,65,52,70,505,484,23,27
29,68,52,67,536,507,22,29
28,71,55,66,516,499,22,28
30,78,53,77,497,493,23,29
29,74,52,97,490,477,23,30
27,63,46,91,486,465,22,28
24,66,52,98,417,408,21,24
23,66,49,98,444,404,21,23
20,55,52,87,436,394,20,20
17,52,47,63,442,394,18,19
20,47,49,67,461,407,17,20
21,40,49,70,483,433,22,20
21,32,60,75,469,435,23,21
22,33,61,81,504,465,24,20
22,34,66,91,523,497,25,22
20,35,65,88,501,491,27,23
20,37,63,89,504,515,23,22
21,35,52,87,492,508,21,19
23,34,52,86,468,487,19,23
25,34,58,80,427,459,21,23
25,32,59,80,432,458,21,22
24,27,58,65,414,439,25,22
25,30,63,73,641,676,25,25
21,31,65,77,657,705,28,25
18,32,67,92,692,734,28,26
23,32,64,100,710,753,28,27
22,32,62,105,716,748,25,27
21,30,60,98,506,521,26,26
23,27,56,98,435,446,21,24
23,22,61,97,343,351,19,21
17,20,63,97,252,278,18,21
18,22,63,106,181,306,21,22
23,33,74,126,384,537,25,31
22,33,76,125,551,671,28,30
23,35,65,111,648,754,28,31
24,35,65,103,775,863,29,31
24,36,67,96,804,863,28,32
20,30,57,68,767,782,24,25
20,34,57,67,700,713,22,27
22,34,57,72,658,663,21,26
21,34,60,89,537,543,21,25
22,32,63,88,539,540,22,24
21,32,62,85,509,510,21,23
22,28,59,82,518,517,21,23
20,26,56,83,573,563,21,26
21,27,55,65,613,588,22,31
21,27,50,55,636,608,23,32
21,24,45,66,667,634,23,31
21,25,49,66,805,827,24,30
21,26,53,94,920,1001,24,27
20,24,50,110,1072,1189,27,30
25,28,55,127,1339,1454,27,33
27,29,59,128,1581,1666,29,33
27,29,54,128,1547,1609,30,36
28,27,51,106,1471,1504,31,36
29,28,51,89,1381,1384,27,31
26,25,46,73,1134,1116,27,29
25,25,38,58,749,757,24,33
26,26,43,75,678,679,23,29
25,25,40,75,677,660,22,31
24,28,40,75,621,587,23,32
23,27,39,65,575,530,22,32
23,27,40,72,583,528,20,30
22,27,38,58,559,518,21,32
21,29,39,57,551,517,21,30
21,25,40,56,562,536,20,27
21,25,42,57,552,540,21,25
23,25,47,67,574,545,22,23
21,23,44,63,609,579,21,22
23,23,44,64,583,569,23,25
23,24,48,70,596,558,25,26
23,23,46,70,676,641,22,26
20,23,39,55,671,719,21,27
21,26,37,57,860,937,21,27
26,25,47,68,870,940,21,26
27,26,45,68,849,938,22,27
29,27,45,74,787,882,24,31
29,27,49,75,745,795,27,34
29,28,56,85,443,450,27,32
24,28,49,83,361,373,25,32
22,27,49,80,285,298,24,31
22,26,49,74,268,278,22,24
22,26,45,76,524,529,21,27
21,23,45,67,632,643,21,27
20,21,46,62,712,733,23,26
21,22,43,60,764,787,23,29
18,21,44,61,795,811,24,29
18,21,53,65,674,679,23,25
18,22,53,62,602,598,23,27
16,26,50,57,560,521,22,28
14,29,61,60,523,466,22,26
17,29,65,58,464,426,21,26
19,29,59,50,458,454,23,27
22,28,54,47,460,461,23,25
22,23,58,52,427,449,25,23
24,21,48,52,430,448,26,25
24,22,44,57,466,443,26,28
23,23,45,54,488,490,24,27
24,23,52,67,804,841,25,29
29,25,52,75,844,874,22,29
28,24,51,71,849,887,19,26
27,23,51,65,842,897,19,22
26,22,51,67,817,852,18,23
25,22,50,75,474,476,16,24
18,20,48,75,367,392,18,24
17,21,47,90,314,369,17,25
18,19,45,100,395,497,18,27
20,19,49,107,568,637,17,26
18,18,45,97,634,695,19,23
20,19,48,88,697,733,19,25
21,20,51,77,728,754,19,25
21,22,52,66,686,672,20,24
23,22,48,49,601,623,23,23
23,23,48,55,737,788,25,24
23,24,48,69,721,784,27,26
24,24,44,76,705,765,29,27
24,26,46,80,704,763,31,28
21,26,45,81,753,777,29,29
20,25,43,77,568,549,28,30
20,24,38,71,511,495,26,27
18,24,49,67,483,462,24,24
18,20,46,65,447,427,21,22
17,19,46,80,236,216,21,21
17,18,46,87,182,183,21,18
15,19,45,92,327,460,20,19
16,20,45,88,513,618,19,20
17,22,48,83,615,695,22,24
18,24,50,71,682,749,21,24
20,24,49,61,737,808,22,25
23,26,51,51,754,751,20,25
25,32,39,50,687,661,21,24
25,32,38,57,627,608,21,23
25,32,33,53,620,595,21,25
25,34,34,54,605,544,22,27
24,33,33,44,540,492,27,28
21,24,36,48,542,504,26,28
21,24,34,40,557,501,25,28
19,23,37,44,496,457,25,26
19,20,42,40,502,459,26,27
21,30,47,42,640,609,21,25
27,38,46,44,821,873,23,26
30,38,45,63,840,895,22,30
32,39,51,97,899,983,20,30
32,40,54,107,908,1037,17,28
31,34,56,129,1041,1202,26,33
33,26,60,140,1180,1262,27,33
30,29,63,135,1238,1339,28,32
28,29,59,112,1263,1321,29,31
28,33,54,104,1266,1299,29,31
27,33,46,81,1107,1096,22,26
25,34,42,58,827,842,19,28
25,32,39,53,713,701,18,28
27,32,43,53,621,634,18,31
27,28,45,61,623,626,19,30
27,28,43,53,675,724,17,27
21,27,42,52,799,868,18,26
22,25,42,53,806,878,17,24
19,24,36,62,790,867,18,21
17,26,33,54,745,831,19,20
17,34,38,60,650,699,18,21
18,33,40,79,383,413,17,20
17,33,40,98,284,317,20,21
18,33,45,105,314,424,21,23
20,30,44,104,457,524,20,25
20,25,47,110,600,643,22,27
22,27,47,101,693,727,26,29
21,26,47,82,768,802,25,28
22,29,44,69,811,794,25,26
20,29,45,78,771,773,24,26
20,25,42,61,756,808,23,24
18,23,40,63,844,921,22,24
20,23,47,78,821,903,22,28
22,36,63,88,792,921,25,33
22,61,84,100,820,922,27,33
26,67,86,120,853,911,31,35
27,69,88,116,761,791,33,35
28,70,87,110,818,872,35,32
27,65,76,101,934,978,43,30
27,43,52,98,912,978,44,30
24,34,48,92,810,890,43,29
22,27,51,106,776,880,39,26
20,24,50,122,767,895,38,28
24,27,56,139,837,946,29,33
25,29,56,135,1072,1160,26,34
28,31,55,133,1310,1331,28,35
29,34,51,129,1387,1339,30,37
30,36,46,112,1349,1257,31,39
29,37,43,94,1213,1091,31,33
28,36,48,107,981,815,32,33
27,36,54,99,622,478,30,31
27,35,55,91,380,353,31,34
26,33,56,96,505,481,33,31
24,32,55,92,655,660,30,30
24,29,50,65,749,764,30,30
22,29,49,65,786,812,33,29
21,30,50,68,829,858,33,25
23,33,50,70,771,815,32,26
21,30,48,73,647,685,31,27
23,36,47,77,576,610,32,25
25,34,44,73,563,586,27,28
26,33,52,77,533,544,29,29
25,31,51,67,546,547,28,29
26,34,59,66,576,560,27,30
25,30,60,63,574,554,27,33
25,31,59,73,592,568,29,35
23,31,49,68,599,578,24,34
24,32,49,70,583,561,26,36
24,33,53,98,581,557,27,37
27,34,52,95,576,558,24,38
25,32,54,90,545,538,22,35
27,34,59,95,550,538,25,38
28,32,62,99,533,535,28,36
29,28,55,72,529,538,28,32
26,26,56,77,539,552,28,32
25,25,58,81,575,571,30,34
22,21,55,75,570,580,30,32
20,23,54,75,604,600,26,32
19,23,51,72,621,618,26,32
20,22,50,73,636,615,25,32
23,26,53,67,632,607,27,33
24,25,62,73,644,600,26,37
22,24,59,67,641,590,26,39
23,25,61,65,636,585,27,41
23,25,61,73,611,577,27,41
22,24,56,70,589,563,23,38
22,24,54,87,588,574,23,33
22,24,57,94,587,571,21,30
22,22,65,107,609,612,25,27
21,23,67,102,617,609,24,30
21,23,67,105,636,620,27,29
23,24,60,90,616,600,26,29
23,25,59,83,613,605,28,31
23,29,53,65,581,549,24,36
22,28,49,60,577,547,24,31
21,28,48,56,576,542,22,31
20,29,51,58,554,536,26,33
20,27,53,61,554,541,24,33
21,24,50,63,566,556,24,29
21,25,50,66,557,551,26,28
23,25,51,69,561,541,26,28
22,28,52,70,609,567,25,30
24,28,47,68,593,551,25,27
24,29,46,74,560,514,27,25
25,31,47,74,564,513,26,26
22,34,52,69,541,510,26,28
23,29,54,62,479,459,25,25
22,30,60,73,476,448,24,25
23,29,62,66,488,463,22,25
22,27,60,60,459,440,24,29
22,24,54,72,463,434,24,30
23,25,55,83,481,452,23,28
23,24,49,75,468,448,24,30
21,23,47,81,461,441,24,29
22,22,55,83,480,456,20,24
24,23,59,80,495,467,21,25
23,24,58,72,513,488,21,31
22,25,60,77,544,504,20,30
22,29,62,73,559,509,22,32
22,28,54,80,585,534,22,32
22,27,56,74,595,563,21,30
23,26,56,72,582,560,26,27
24,26,54,78,575,579,27,28
24,22,62,88,582,603,25,28
23,24,64,84,567,591,25,31
22,23,60,91,551,583,26,29
23,25,59,94,578,591,22,30
24,24,58,86,569,567,22,30
22,25,44,76,563,554,23,29
23,25,46,77,572,563,25,28
23,27,50,69,572,547,26,33
21,26,54,65,544,536,25,32
21,29,63,71,564,555,27,31
26,29,68,74,568,557,27,33
25,29,64,74,566,568,26,34
28,28,63,83,598,599,26,31
27,27,57,80,624,607,26,30
29,23,49,73,624,612,25,31
27,24,44,73,642,620,26,30
28,23,55,82,635,597,24,29
25,25,60,74,597,571,25,29
26,26,61,77,580,553,25,29
23,28,62,76,552,515,26,25
22,27,61,74,508,488,24,24
22,27,56,65,520,492,24,26
23,27,50,62,512,475,24,26
25,27,53,68,508,489,23,27
24,28,50,68,541,510,22,26
24,28,48,74,533,497,22,32
23,27,45,70,532,503,23,34
23,25,47,80,579,537,23,31
20,26,43,77,580,521,23,32
23,25,45,75,580,523,22,32
24,25,46,65,633,559,21,31
22,27,44,68,638,549,20,26
22,27,43,64,616,533,20,28
25,24,42,55,642,545,20,28
22,22,43,56,635,534,22,29
22,23,43,58,596,507,22,24
22,20,46,53,602,523,22,24
20,22,46,50,593,515,21,25
18,23,51,57,593,513,23,30
19,24,50,68,594,518,22,30
19,22,50,68,594,518,22,32
21,24,51,74,581,501,23,31
22,23,52,74,607,521,27,35
23,23,52,71,568,501,24,35
24,24,54,70,578,511,24,34
23,24,53,74,604,520,25,33
23,25,52,75,590,512,25,35
23,25,49,75,573,505,21,32
23,25,45,77,601,524,21,26
23,25,39,73,587,514,22,35
24,26,47,81,578,511,21,37
24,25,46,74,601,537,20,36
24,27,49,86,625,566,22,35
25,28,55,88,628,566,22,35
25,27,60,90,676,621,22,33
25,26,55,91,698,658,23,31
24,26,54,96,700,653,24,35
24,24,51,88,668,614,23,34
24,22,43,85,616,571,25,36
23,23,36,78,535,484,25,32
24,22,38,65,493,412,23,34
24,23,37,56,445,379,22,31
23,22,41,74,421,355,22,35
22,22,44,74,449,390,20,33
22,23,46,78,494,420,22,32
20,23,48,83,457,409,23,30
21,21,48,89,485,418,23,29
23,21,45,69,545,454,23,23
22,23,44,65,546,454,24,25
23,21,42,60,512,432,23,27
26,23,41,58,533,431,24,26
25,24,41,69,504,409,24,27
24,24,42,68,434,359,25,29
25,23,43,72,436,343,24,28
24,24,47,68,447,350,24,28
23,24,49,92,424,349,23,30
24,26,50,77,433,368,24,30
25,26,50,77,440,396,23,29
25,27,52,80,434,424,23,29
24,26,49,96,439,433,22,27
23,25,47,72,459,442,23,28
23,24,43,76,458,432,23,26
21,22,43,88,460,416,22,26
22,22,39,88,458,392,22,33
24,22,46,82,457,387,21,36
22,22,47,80,448,383,22,34
22,22,48,81,440,391,21,33
23,22,47,69,430,389,22,32
20,20,47,72,451,411,24,26
20,21,44,67,441,408,24,24
24,22,43,76,449,418,21,24
23,21,43,75,468,421,22,26
25,23,44,81,498,434,22,25
24,25,47,77,484,434,19,26
24,26,50,74,461,414,24,29
22,26,48,66,472,411,23,29
22,26,49,68,450,395,25,28
18,26,49,59,408,373,24,28
21,24,45,66,466,403,27,29
21,23,37,62,475,413,25,26
23,23,39,67,469,420,25,25
23,24,37,60,504,447,24,27
24,22,39,67,520,456,25,29
25,22,40,58,503,439,21,28
24,23,43,59,536,465,23,28
24,23,41,56,523,452,23,29
23,24,42,72,505,453,23,29
24,24,38,68,546,482,21,29
22,24,39,66,494,444,23,31
22,24,45,71,471,429,23,31
22,25,51,73,493,442,26,32
23,23,51,62,480,423,25,32
23,23,52,71,436,403,27,31
22,25,53,72,492,440,25,28
21,26,50,73,479,435,24,27
21,27,51,71,477,445,24,25
20,28,55,77,532,476,25,25
21,30,60,78,520,467,23,25
21,28,59,77,505,466,26,26
22,26,56,73,538,501,25,24
21,25,51,73,528,497,23,25
22,26,44,69,484,489,25,27
21,24,36,57,517,522,23,27
22,26,36,69,502,512,24,31
22,27,38,67,539,531,24,32
23,26,37,69,582,549,23,33
21,27,40,63,613,574,22,31
23,25,39,62,650,589,24,33
21,24,42,50,676,598,20,29
22,23,42,58,633,569,22,30
20,24,49,67,630,577,23,33
22,23,49,72,624,557,22,32
23,26,49,73,559,514,22,30
23,25,49,74,537,512,23,30
22,26,48,68,547,513,22,30
25,25,43,54,519,493,24,31
22,24,42,64,498,492,28,32
21,25,46,64,537,521,28,33
21,24,48,63,586,546,29,33
23,24,51,75,627,585,28,32
20,23,54,75,656,607,25,28
22,24,54,70,719,659,21,26
22,23,51,73,740,673,21,25
23,25,50,83,736,676,21,24
22,27,48,73,725,661,21,25
24,27,43,73,710,655,24,28
23,26,43,64,664,608,25,30
23,25,44,58,650,598,25,30
23,24,40,42,620,582,25,30
24,21,38,45,608,579,25,29
23,20,38,41,629,589,23,30
23,19,38,42,627,602,23,29
24,18,38,46,622,598,21,28
25,18,48,58,655,616,24,30
23,21,49,54,659,625,25,31
22,22,48,59,663,625,25,26
24,25,48,57,649,605,23,25
23,29,49,56,685,646,26,26
23,28,37,45,668,612,24,26
24,38,43,48,667,610,24,26
24,44,44,43,642,603,24,27
22,43,47,49,658,622,24,26
23,49,51,50,632,582,22,28
22,50,51,55,622,610,23,28
24,50,48,52,635,607,25,29
23,57,49,55,631,592,24,33
27,60,53,59,608,574,26,33
26,61,51,58,578,555,26,30
27,67,50,52,543,523,24,29
26,66,51,61,569,641,24,28
27,66,57,61,788,868,25,25
24,67,53,68,820,895,23,24
23,66,58,75,812,896,22,26
23,62,59,79,829,905,24,28
22,62,56,76,768,795,22,29
22,55,55,82,491,500,24,27
24,52,66,75,385,392,27,27
30,47,63,71,327,326,27,27
30,51,66,70,231,235,27,25
30,56,71,74,174,177,27,24
31,56,67,69,402,460,24,24
29,58,61,73,635,668,21,25
24,62,66,73,770,794,22,25
28,64,63,70,837,867,23,29
27,61,61,62,893,921,25,32
27,59,63,62,864,866,24,32
28,60,54,51,747,755,24,32
28,56,45,52,664,671,24,34
23,50,47,54,634,632,22,31
22,53,51,57,595,591,25,27
20,60,49,54,568,551,25,28
19,59,53,65,564,551,25,26
19,71,56,70,539,531,25,23
20,71,54,70,538,521,25,24
21,76,51,65,529,521,23,26
21,74,53,66,614,623,24,25
22,71,49,54,812,845,24,32
23,67,46,66,840,876,24,32
22,64,48,77,826,865,25,32
21,57,51,95,876,948,23,30
22,54,55,105,898,1012,23,33
20,76,58,111,867,980,24,27
19,80,59,101,941,1046,24,29
19,80,63,102,967,1082,23,28
20,81,57,87,942,1029,23,30
20,93,50,75,871,912,23,28
20,77,51,68,736,767,22,27
19,78,55,71,613,646,22,25
21,87,48,55,581,589,21,24
22,87,49,56,556,558,21,24
22,86,56,53,528,532,22,23
22,87,61,52,518,492,20,26
26,89,56,40,486,471,21,27
24,81,56,40,476,464,22,28
23,76,60,44,483,472,24,30
23,74,62,70,482,502,22,33
24,75,61,85,501,535,21,31
22,67,61,89,527,548,20,32
23,70,64,95,532,572,19,31
23,75,63,93,527,562,19,28
23,64,62,77,540,544,20,24
23,61,62,67,524,558,21,26
21,64,62,62,508,543,19,23
21,63,61,52,534,552,20,24
20,60,57,52,561,572,18,25
20,75,59,57,571,581,18,27
21,77,58,52,565,539,20,27
22,69,59,52,582,553,21,27
22,68,63,55,572,533,23,31
22,66,63,52,554,515,25,29
23,57,52,44,539,505,24,27
21,57,52,44,546,508,23,27
21,60,49,43,551,515,23,27
21,63,41,38,533,496,21,24
20,67,40,42,524,481,19,25
20,72,41,41,515,468,21,26
21,74,42,43,509,457,23,24
20,76,65,65,480,424,22,26
21,79,70,67,467,420,24,28
24,77,74,66,480,439,23,26
25,85,79,71,476,435,22,26
23,84,75,67,461,462,19,26
23,83,62,54,490,502,18,22
25,89,59,53,493,504,17,20
23,99,59,56,468,484,22,22
23,92,56,50,486,498,22,21
25,93,61,52,510,495,23,22
24,96,56,44,481,455,24,25
24,102,57,47,501,467,24,23
23,94,52,43,509,479,20,22
25,85,48,46,481,460,21,23
23,89,48,51,483,458,21,24
22,85,46,51,542,517,20,23
22,70,48,47,541,532,19,23
22,90,49,47,579,561,19,24
21,91,56,51,607,588,20,24
23,87,55,46,604,598,21,23
24,90,57,48,602,596,24,24
22,93,73,62,594,581,23,26
25,74,78,67,573,573,24,26
24,79,76,61,596,588,24,28
24,77,76,59,586,569,22,28
25,77,78,64,569,550,19,25
27,72,60,68,597,566,18,24
26,77,52,62,588,555,18,24
26,70,49,63,562,529,17,25
26,72,50,65,591,551,17,25
23,72,47,61,578,550,16,26
22,70,43,44,570,558,20,25
23,65,51,59,607,571,19,23
22,72,62,62,602,576,18,21
21,67,62,63,560,544,20,22
22,61,62,60,585,546,21,24
21,86,62,67,607,555,20,25
20,90,64,60,585,546,21,24
20,84,63,60,635,573,22,25
21,85,69,65,670,611,22,26
21,89,71,65,679,617,22,23
23,71,74,63,661,594,23,23
21,72,68,62,648,575,23,29
22,72,62,62,611,539,22,27
21,70,48,52,606,523,23,26
23,70,46,55,560,490,23,26
25,66,42,48,536,478,22,28
26,55,38,42,538,478,21,23
27,61,36,37,524,476,22,23
25,63,40,42,504,450,21,23
24,58,40,40,514,457,20,22
21,51,38,41,519,458,21,22
21,56,39,41,517,470,21,22
21,49,39,42,522,472,20,23
21,45,37,50,538,499,21,22
21,45,35,47,549,508,22,23
22,55,38,65,560,508,21,24
20,50,41,66,571,512,22,28
20,50,42,68,592,524,23,28
21,73,46,64,589,516,22,28
21,74,64,71,587,510,21,28
24,72,69,67,587,513,21,28
24,82,73,67,689,650,22,23
25,82,74,65,688,667,22,24
25,63,73,63,677,660,22,25
25,77,61,58,660,654,22,26
23,76,53,42,626,633,20,25
23,68,52,45,479,464,19,25
24,69,56,44,429,392,16,25
24,77,55,43,400,350,16,26
23,62,55,41,372,319,16,24
22,62,62,44,380,319,19,22
21,75,59,39,387,324,20,24
19,83,57,38,403,377,21,25
20,76,61,46,429,409,23,24
21,81,70,53,473,466,23,25
21,90,71,51,474,484,21,26
23,86,69,52,474,487,22,25
22,85,66,55,467,450,20,26
22,88,63,50,446,423,22,27
22,86,56,43,410,363,22,27
23,73,66,52,416,340,22,29
23,61,74,54,402,319,24,28
24,56,75,50,388,316,24,25
23,51,75,51,395,325,22,24
24,66,75,51,403,339,22,23
21,80,57,40,411,351,21,21
21,92,57,48,433,371,20,26
24,89,60,49,450,388,18,29
25,90,63,50,447,383,19,29
23,77,60,51,437,371,20,29
25,71,67,55,422,362,20,28
24,57,60,46,397,345,19,23
20,59,58,48,384,327,21,19
20,56,55,45,393,345,21,18
20,69,64,49,409,364,21,19
20,70,62,47,423,383,21,21
20,69,61,49,462,424,23,22
21,80,63,46,465,428,22,27
23,92,64,49,482,442,20,28
25,85,58,45,505,456,18,28
23,77,53,42,504,445,18,26
22,81,59,44,458,400,17,25
24,67,55,45,502,430,19,24
22,60,55,43,475,399,20,24
23,79,51,42,442,379,21,24
23,81,56,45,446,381,21,24
23,84,65,40,457,394,20,23
23,86,67,45,423,380,20,23
23,79,68,52,455,419,23,26
21,58,69,51,457,422,22,25
22,55,68,53,487,452,22,26
22,52,53,53,562,540,22,28
20,54,55,50,542,523,21,26
19,54,50,47,527,505,18,24
20,54,49,51,559,546,18,26
20,52,46,52,505,512,18,27
20,41,49,54,428,430,19,24
20,35,48,55,465,448,18,23
21,32,52,58,454,451,18,22
20,28,53,60,437,407,20,25
20,28,52,64,484,435,22,27
19,25,59,76,498,451,21,28
19,27,58,74,509,474,22,30
20,29,57,73,528,478,21,33
20,30,57,71,511,477,22,30
20,31,59,66,509,487,19,28
21,31,50,51,516,476,19,29
21,29,46,58,473,444,20,27
19,29,50,57,484,472,21,25
20,30,57,60,528,497,19,24
22,29,58,61,518,497,19,26
21,34,65,61,552,544,19,24
23,37,68,61,602,572,19,23
23,37,65,57,606,574,19,23
24,38,64,57,619,581,18,24
25,42,61,57,636,584,22,23
25,40,56,69,617,557,22,23
23,41,56,65,593,548,24,26
24,55,55,66,586,533,22,24
23,56,49,63,556,514,25,22
21,54,50,60,532,501,22,21
21,54,52,45,510,485,22,21
20,52,48,43,522,489,20,21
17,38,55,42,527,507,20,22
17,34,62,43,529,511,17,22
15,32,67,45,581,555,19,24
16,33,71,49,625,603,18,24
17,35,74,57,646,619,19,22
19,34,73,62,688,644,20,22
19,34,70,62,702,664,20,27
20,35,70,60,708,657,20,25
21,33,69,66,700,636,19,24
21,30,66,57,677,626,21,26
19,29,65,50,637,599,22,27
23,29,65,52,638,584,23,23
21,26,57,51,592,562,22,23
21,27,54,46,574,564,22,25
21,32,73,65,602,569,21,26
22,34,78,69,594,571,18,25
18,35,75,68,577,567,19,25
18,36,76,69,616,596,20,24
17,38,80,67,606,595,21,25
18,37,66,55,592,601,21,24
23,49,59,52,586,582,22,28
24,50,62,52,573,579,21,28
26,51,64,51,539,550,20,30
26,51,61,52,570,556,20,29
25,49,61,56,554,550,18,28
23,35,57,55,574,583,17,23
22,35,59,52,627,620,19,26
22,54,58,57,649,646,19,25
21,53,59,61,641,652,21,25
23,56,60,59,666,664,23,28
20,55,60,61,655,651,24,28
21,56,52,60,611,625,24,28
19,38,55,59,628,632,25,27
19,53,55,55,599,605,24,27
19,55,59,53,571,599,24,23
30,57,60,51,560,595,27,36
36,57,61,54,562,591,35,45
37,56,59,50,532,584,38,48
38,43,60,57,537,582,39,49
38,37,53,62,528,560,43,51
32,35,60,63,552,577,40,44
25,35,68,67,558,571,34,35
27,34,71,72,537,542,33,35
28,28,68,69,554,563,33,33
26,28,68,67,552,570,28,32
24,26,65,76,574,575,28,34
25,24,55,73,568,586,26,34
20,24,55,70,579,592,23,31
18,26,53,69,585,590,22,33
20,26,61,66,592,590,22,33
21,32,64,79,554,557,26,29
19,34,75,120,587,617,27,29
22,34,76,136,836,846,30,31
22,35,76,139,865,879,30,32
21,38,74,143,861,873,31,33
20,48,71,136,861,876,30,36
21,50,77,111,826,812,30,39
19,53,75,96,529,523,30,36
21,55,73,100,404,392,29,35
20,53,68,97,342,326,28,36
21,50,71,101,251,239,27,37
21,53,57,94,168,164,29,37
20,60,65,101,496,530,27,35
22,59,71,100,695,731,28,37
22,65,73,96,823,851,28,35
22,71,76,98,875,915,27,34
22,68,73,100,918,963,25,43
25,63,65,103,830,862,27,44
24,66,61,100,707,734,27,45
24,60,60,100,615,642,30,46
24,46,52,90,587,609,31,47
28,44,58,92,572,577,31,40
26,42,57,72,560,548,29,46
27,43,56,75,558,543,31,53
27,44,56,81,530,519,28,54
27,48,58,85,529,494,27,51
22,54,53,80,511,492,25,57
21,55,56,86,565,548,29,58
20,50,56,82,731,768,27,49
21,51,56,89,758,798,27,48
22,45,58,102,757,805,28,48
22,39,64,114,777,874,31,41
22,35,65,125,833,969,32,37
25,38,66,135,935,1064,32,38
29,37,73,145,1183,1282,33,42
30,36,69,135,1329,1375,34,45
31,35,63,125,1384,1392,31,46
31,35,57,119,1353,1336,27,45
29,28,54,104,1213,1163,28,57
26,28,41,74,952,902,27,58
23,26,40,76,733,751,25,60
21,29,52,75,607,635,25,58
21,31,57,66,538,587,26,57
20,33,58,65,492,541,23,42
19,32,61,73,534,545,24,39
20,32,60,72,561,557,24,35
22,28,56,84,580,561,27,37
21,27,49,81,590,536,25,38
23,25,47,83,597,530,29,51
23,25,45,77,572,508,32,53
22,25,45,72,553,485,33,55
23,26,51,82,551,482,33,59
23,24,54,82,543,483,33,58
22,25,55,82,565,501,30,58
22,23,52,94,548,498,27,55
22,24,60,108,730,763,25,52
21,27,56,100,748,780,25,49
20,30,55,102,765,801,25,54
23,30,56,106,760,810,29,50
23,31,57,103,770,822,28,50
24,30,50,89,564,568,29,48
24,26,45,79,476,497,27,47
23,25,46,77,388,412,27,43
21,24,51,81,294,313,23,36
20,24,50,81,189,206,25,48
23,28,55,83,133,140,27,50
22,30,64,88,467,485,26,49
23,31,69,89,665,686,26,49
23,34,67,80,779,809,27,51
22,34,69,79,858,898,25,40
22,31,65,79,899,944,25,43
22,34,57,73,840,880,29,46
23,35,47,77,735,768,27,47
24,32,47,80,658,688,26,44
25,34,45,71,633,636,27,43
24,32,46,72,620,608,24,38
26,29,43,69,572,558,24,35
25,25,43,65,572,567,24,45
25,26,41,65,563,542,25,45
26,24,49,73,518,504,26,47
23,26,50,80,527,514,27,47
22,25,51,80,511,524,26,52
21,27,51,77,725,752,29,41
19,27,48,79,753,787,27,41
18,26,41,77,780,807,26,38
18,23,39,81,780,817,25,35
19,21,39,92,819,863,24,27
20,17,45,122,607,661,23,25
19,16,54,129,612,714,26,28
22,26,70,148,673,830,32,38
28,30,71,143,911,1054,33,42
28,34,70,141,1139,1232,34,45
29,36,73,119,1288,1316,33,47
30,37,68,108,1292,1265,33,47
28,32,51,85,1308,1254,29,42
24,30,48,78,1195,1106,27,39
24,27,50,68,965,862,23,35
24,27,41,69,758,766,24,34
24,26,42,69,879,952,24,31
25,25,43,71,781,849,23,31
27,26,42,74,708,788,24,36
28,27,45,76,688,772,24,35
25,25,46,68,687,723,22,34
25,24,44,70,420,420,21,31
23,26,45,67,360,365,22,32
18,25,46,74,286,295,23,28
16,25,43,78,439,501,26,30
17,28,48,82,607,664,25,31
20,29,57,88,708,773,27,38
21,28,55,86,775,836,24,36
23,29,54,73,821,875,24,36
25,28,71,80,772,804,24,35
26,27,71,77,672,692,25,40
26,26,64,65,665,673,26,40
25,30,73,76,657,673,26,42
26,32,80,84,648,674,26,41
23,32,65,76,642,647,24,41
22,32,62,74,612,622,23,37
21,33,70,75,513,514,20,35
22,32,67,67,459,426,20,34
23,31,66,66,420,367,21,34
23,30,66,69,383,543,27,37
25,30,67,82,756,906,30,40
24,30,63,92,782,929,31,40
22,26,58,107,808,1002,30,41
20,25,52,117,863,1108,29,44
21,25,51,132,1071,1240,31,46
20,24,53,128,948,1087,28,41
22,23,48,121,963,1107,29,41
22,24,50,111,957,1071,30,42
21,24,50,95,924,976,30,38
22,23,48,64,681,687,23,32
20,23,44,59,543,560,23,34
20,23,45,57,477,481,22,33
21,22,49,53,444,421,23,36
21,22,51,56,421,390,23,38
22,23,53,62,445,399,23,38
22,22,52,60,475,418,24,39
22,21,52,62,499,435,26,39
21,22,45,51,510,454,26,34
22,25,46,48,532,460,26,33
19,26,49,43,505,434,28,32
20,27,47,43,508,432,29,39
21,27,46,42,508,421,29,42
22,26,45,47,488,402,29,42
22,24,43,48,481,407,28,46
22,23,36,46,531,559,29,49
22,21,43,49,861,915,26,44
22,24,46,52,1036,1001,26,40
24,27,50,51,1091,1078,28,42
24,26,51,50,1091,1091,31,41
25,27,56,50,1075,1035,29,37
25,28,54,50,860,775,30,37
26,26,57,47,641,681,29,39
23,24,62,48,571,569,26,40
22,26,64,44,551,526,23,36
21,24,61,44,528,505,23,36
22,24,58,48,477,448,24,36
21,23,54,52,445,404,25,37
22,24,48,48,426,401,25,38
23,22,46,54,486,438,24,34
24,23,48,57,491,443,24,34
23,21,49,61,500,454,23,42
24,23,51,59,563,496,21,41
23,22,45,73,555,489,21,39
22,24,46,74,513,473,24,45
22,24,46,86,551,500,24,46
21,27,45,85,562,579,25,40
20,26,41,90,760,840,26,40
22,28,44,86,798,872,26,41
23,28,42,85,847,932,27,38
23,29,42,73,840,940,27,37
24,28,45,72,833,897,26,39
25,28,46,64,635,662,25,36
24,27,43,56,626,670,27,36
23,26,52,57,605,648,24,34
24,24,48,54,772,830,24,36
22,25,56,57,786,835,23,34
20,25,57,63,770,815,23,34
18,23,58,83,730,774,22,35
19,23,48,93,700,746,24,40
19,24,49,105,523,566,25,42
20,23,39,119,579,676,28,44
27,27,44,127,731,860,33,48
29,29,42,120,1044,1130,33,46
31,29,42,112,1242,1245,35,46
32,29,43,102,1283,1257,35,44
33,31,43,81,1241,1187,35,46
29,31,42,67,1178,1094,31,44
28,30,51,63,980,884,30,45
24,29,52,58,739,730,26,42
23,30,52,57,656,677,25,40
21,28,54,66,696,738,23,36
21,24,51,63,698,730,26,33
19,24,44,58,640,667,24,33
20,23,47,65,639,656,25,31
20,21,48,69,668,672,25,36
22,22,44,64,722,730,25,37
22,23,46,69,890,921,22,36
24,22,47,86,901,1004,26,37
24,23,54,107,983,1114,24,39
25,25,57,120,1095,1275,32,38
28,27,61,129,1308,1470,36,39
32,29,59,128,1422,1545,38,41
31,30,59,118,1556,1569,37,42
32,30,58,99,1529,1513,37,41
30,28,55,84,1443,1375,32,37
27,26,55,68,1231,1122,29,36
23,23,56,67,984,859,26,33
24,25,59,92,746,715,25,32
24,26,54,95,680,659,26,32
24,26,55,95,701,683,25,32
24,29,51,94,684,654,24,29
23,29,50,100,630,604,23,29
24,28,43,79,633,615,23,30
24,27,49,89,627,610,21,31
25,26,45,85,570,568,21,34
27,25,46,88,577,589,21,34
28,24,49,86,615,606,21,33
26,23,52,88,601,587,21,31
26,24,47,68,641,608,23,28
27,25,54,74,669,624,22,31
23,23,56,71,639,596,22,31
23,27,54,72,613,579,22,35
23,29,49,66,596,573,25,34
24,27,47,67,541,547,25,36
23,26,44,65,510,527,25,31
25,26,42,73,481,512,27,37
26,22,46,67,478,525,28,33
26,22,54,76,462,502,26,33
24,23,60,78,482,499,26,32
22,26,58,75,496,508,25,32
21,27,65,74,523,525,25,26
21,27,62,73,521,516,23,28
20,27,59,63,533,525,21,28
21,26,54,61,540,550,20,26
22,24,60,78,544,545,19,25
21,26,54,73,553,555,19,23
19,26,54,79,586,576,19,22
23,24,57,82,588,582,20,21
22,25,59,79,597,576,20,22
23,25,52,90,583,570,27,22
23,23,56,113,578,558,26,27
24,23,58,112,562,544,27,25
22,23,56,111,557,535,29,27
22,24,58,114,537,509,30,29
22,26,66,110,546,511,27,31
24,29,64,87,531,502,27,29
24,31,61,85,503,478,29,31
23,32,58,82,512,479,26,29
23,30,62,78,494,479,25,28
23,30,56,66,485,480,24,26
22,26,53,63,508,492,25,24
23,27,55,64,507,508,25,22
23,26,55,69,523,523,24,23
22,26,45,72,565,549,24,22
23,27,48,61,576,558,26,25
24,28,50,66,580,554,28,26
22,27,48,66,598,552,25,27
23,26,49,63,582,538,25,30
24,27,58,72,557,510,26,30
22,26,53,71,539,487,25,31
20,25,51,69,514,486,22,32
22,23,50,63,491,476,23,30
22,24,56,68,503,484,24,30
23,27,56,63,491,493,23,32
23,28,55,65,482,500,23,33
24,27,64,66,507,509,23,32
24,31,66,68,513,515,24,33
24,30,60,64,498,509,24,30
23,26,51,55,504,500,25,27
24,25,52,54,518,504,23,26
23,26,48,59,522,511,25,25
24,24,47,53,519,515,25,26
23,25,47,55,532,521,24,25
23,26,49,57,617,581,23,25
23,26,48,58,641,605,27,24
23,26,39,49,643,603,24,22
21,24,41,54,652,597,24,21
24,27,52,60,648,595,23,26
24,27,53,64,575,547,23,29
24,27,52,60,564,526,22,29
25,27,57,61,547,514,23,31
24,27,65,79,562,529,23,33
26,23,58,75,562,521,24,30
25,23,57,71,559,513,22,26
24,22,65,74,558,511,22,32
22,23,63,72,554,507,24,35
22,22,51,47,531,489,23,32
18,22,53,51,551,521,23,32
19,21,55,50,547,524,25,34
21,22,48,56,524,509,23,28
24,23,45,56,534,510,22,28
24,26,47,60,535,500,22,31
23,26,47,55,511,470,23,31
25,28,44,67,521,470,24,33
24,29,46,64,530,474,23,34
25,26,48,68,521,471,23,36
25,25,52,77,543,486,24,34
26,26,49,80,535,478,21,35
25,26,47,73,530,482,24,34
24,24,42,69,548,523,24,33
21,24,46,67,539,538,25,29
22,23,45,62,522,539,24,29
21,23,46,58,545,560,28,27
21,20,51,56,538,572,25,28
22,21,53,60,510,531,24,28
20,21,47,55,524,531,23,29
20,22,47,48,516,525,24,28
21,22,56,62,486,505,21,28
22,24,59,70,516,499,22,24
22,22,56,66,526,510,24,24
25,22,60,68,520,502,27,26
26,25,62,78,557,527,26,28
25,27,59,77,575,540,25,29
24,27,52,69,550,525,25,30
23,29,53,73,564,538,23,30
21,30,51,74,569,537,22,29
23,27,46,64,571,528,23,29
22,26,40,50,592,562,23,34
22,25,38,54,609,577,22,34
23,27,38,47,612,574,23,33
23,26,38,46,623,604,23,32
21,26,43,50,607,594,23,31
21,29,43,57,590,558,22,26
21,28,47,60,580,555,23,28
22,26,48,64,586,556,25,28
22,28,48,66,586,529,26,29
23,29,46,64,598,545,26,27
23,28,50,69,616,562,27,28
24,28,47,64,620,556,26,25
23,28,51,74,621,554,22,24
22,26,50,72,646,568,23,24
20,22,49,73,654,570,23,27
20,21,45,62,651,560,22,31
20,23,46,61,670,569,24,31
21,23,40,43,649,556,26,33
22,24,40,41,615,526,24,33
23,25,37,55,591,501,23,33
23,24,33,55,568,483,25,28
21,22,39,58,546,485,24,33
19,22,42,58,555,491,23,30
19,24,44,62,545,489,24,33
21,25,45,51,544,492,25,29
21,27,45,55,542,496,24,29
21,28,39,52,514,466,25,27
21,28,35,51,518,461,24,28
22,25,32,49,542,483,36,30
24,25,35,42,545,483,36,33
27,23,38,44,579,496,38,35
27,24,38,52,618,524,39,33
28,24,51,55,605,520,40,34
28,25,56,55,602,508,28,29
25,22,53,57,601,532,27,28
22,22,50,60,568,515,26,28
22,22,51,64,530,495,26,28
21,20,40,63,551,504,25,28
20,23,36,61,529,490,25,29
19,24,38,62,514,456,26,29
21,24,45,63,539,495,26,29
21,23,43,53,575,532,23,27
20,25,42,53,595,560,26,28
20,23,40,51,580,549,30,32
22,25,42,54,589,547,31,32
21,25,37,41,549,492,31,34
22,26,37,38,515,458,32,35
22,24,41,40,448,384,33,36
22,25,48,54,464,401,28,33
24,24,45,49,460,420,27,33
23,24,45,49,496,456,28,34
24,22,52,56,503,446,28,35
23,22,49,57,523,467,24,32
23,20,44,47,522,464,25,31
21,19,42,45,510,436,25,30
22,18,42,45,484,400,25,26
21,20,35,36,470,388,23,28
22,20,40,41,443,357,25,29
21,21,38,38,425,335,25,34
21,21,39,37,433,349,25,34
21,22,40,43,432,347,25,33
20,23,43,45,415,341,26,29
20,24,45,42,436,364,27,29
20,24,52,49,462,383,31,24
19,25,53,49,442,369,31,24
20,25,60,51,466,389,31,25
21,24,59,49,480,394,30,26
21,23,56,53,479,390,30,26
21,24,52,50,501,410,26,27
21,23,51,51,527,430,24,29
20,24,47,50,515,427,22,28
21,25,46,51,523,430,24,28
21,27,44,44,510,431,23,28
20,26,42,39,476,407,23,31
20,26,45,39,466,400,24,27
21,26,44,37,441,389,24,27
20,24,44,41,452,400,22,28
19,21,46,40,483,414,23,27
27,31,48,41,474,412,24,24
28,31,48,48,451,398,26,24
28,30,46,46,485,412,27,26
27,31,45,45,462,393,28,28
30,34,62,59,429,386,28,29
24,27,60,61,447,391,24,29
24,26,60,61,465,400,25,30
24,28,59,63,451,399,24,28
24,28,62,66,472,425,23,27
23,24,49,62,485,432,21,29
22,25,50,59,504,463,21,29
21,23,48,62,539,502,19,31
23,23,51,63,535,498,20,34
22,22,46,57,515,483,20,35
22,22,43,63,548,495,21,33
22,24,43,64,514,457,20,33
22,25,46,64,464,405,20,31
18,23,41,61,466,408,20,34
20,26,44,64,456,401,22,34
21,28,46,58,420,406,21,33
20,26,45,58,485,468,20,32
22,26,42,50,520,498,21,37
24,26,44,52,535,508,21,31
23,24,43,52,582,535,20,28
23,22,42,52,590,515,22,30
24,22,43,55,557,481,23,30
21,21,44,56,570,485,25,26
19,23,45,57,575,491,24,31
22,25,48,63,548,483,23,35
21,25,47,58,542,491,22,33
21,27,47,57,562,505,22,34
23,27,49,58,541,498,18,30
23,26,49,60,536,506,20,24
22,23,53,62,577,574,21,26
21,23,53,61,594,585,22,27
20,19,52,62,611,602,22,25
21,21,56,61,631,617,23,26
20,23,60,67,637,614,22,29
21,24,54,57,620,567,23,25
21,24,56,61,622,564,22,25
21,23,55,58,577,529,23,27
20,22,50,62,572,530,22,26
21,20,46,55,588,536,23,20
21,19,50,62,578,553,29,19
22,22,47,62,584,577,30,21
21,22,50,65,639,605,37,27
23,24,48,61,656,621,38,29
22,21,57,82,657,636,40,31
21,25,53,77,723,644,36,31
21,23,51,76,740,649,36,30
20,24,53,76,734,652,29,23
20,25,57,77,727,635,27,22
21,27,51,58,699,613,23,21
22,25,51,59,639,603,23,20
22,25,53,57,618,584,21,20
22,26,49,53,580,567,22,19
22,26,47,53,583,584,22,19
22,26,44,49,622,605,25,19
24,26,47,47,620,596,27,20
24,25,43,47,611,590,29,23
25,24,54,53,650,612,28,24
24,25,51,54,647,611,28,25
24,25,49,52,632,600,27,24
22,24,46,52,659,606,23,23
23,27,48,58,649,605,26,23
24,27,36,53,641,605,29,23
23,26,42,54,656,616,31,24
23,27,44,55,654,618,30,23
22,25,42,53,609,603,31,25
22,24,41,45,623,612,25,22
22,23,43,47,611,602,21,26
22,24,47,51,576,589,21,24
22,22,44,48,576,592,22,24
21,23,47,57,593,602,21,21
22,23,47,57,576,604,22,26
22,23,45,54,552,583,23,22
22,22,36,46,531,555,22,24
20,22,37,45,501,543,20,24
21,21,33,37,488,529,22,26
19,20,32,34,494,513,22,23
17,19,35,36,494,541,22,23
18,18,33,37,525,565,20,21
19,16,38,37,562,553,22,22
19,17,42,39,564,605,20,24
19,20,43,39,610,647,20,24
20,22,40,43,656,663,20,24
21,26,47,46,652,670,22,25
21,26,46,46,632,677,23,25
20,26,44,46,631,632,22,24
20,24,44,46,588,593,24,21
23,22,47,52,566,563,23,21
22,21,40,51,551,537,23,21
20,22,38,51,553,541,22,20
20,25,42,56,557,555,24,19
19,26,44,59,563,557,22,19
18,27,44,50,546,563,22,22
18,25,52,60,559,578,23,21
18,25,55,61,601,633,22,25
21,23,56,60,615,639,23,26
23,23,56,62,621,652,24,27
21,23,58,63,639,646,25,24
21,24,53,55,653,661,24,28
21,23,54,59,619,612,25,24
19,22,51,54,612,601,24,24
20,24,50,52,635,610,24,25
24,23,46,50,621,612,24,25
23,22,49,53,613,596,24,24
23,27,57,55,621,600,26,25
22,27,57,53,623,605,25,23
22,26,59,53,614,587,25,24
19,26,62,53,627,598,25,25
22,29,60,47,646,604,25,24
21,25,48,36,640,591,23,24
23,24,45,33,638,578,22,24
22,25,48,44,618,567,21,26
23,26,48,50,596,543,22,24
20,24,46,50,564,527,21,23
23,23,46,51,561,531,21,25
22,23,47,54,570,542,21,23
22,22,44,54,587,562,24,21
21,21,41,49,598,574,22,21
23,20,42,53,618,581,23,23
20,21,42,53,645,603,23,21
20,20,48,58,640,598,24,22
20,21,44,52,623,573,22,22
19,20,46,52,631,569,25,22
19,21,51,55,592,544,26,21
20,22,49,56,555,510,27,22
20,22,60,65,547,503,26,21
23,22,62,64,537,492,27,21
23,25,62,66,510,473,25,21
22,26,62,63,534,483,25,20
23,26,65,67,537,479,23,20
22,25,55,78,521,473,23,19
18,25,55,78,532,491,23,19
19,23,53,78,533,496,23,19
20,24,47,75,511,486,21,19
21,22,42,75,511,487,20,21
20,24,40,50,498,470,20,23
21,23,43,55,481,453,18,21
19,24,44,54,489,454,18,20
18,23,45,56,495,468,20,23
16,24,49,52,494,465,21,20
18,24,44,48,517,488,21,20
22,25,44,40,511,486,22,22
22,25,46,45,501,477,22,25
22,25,46,41,507,469,20,24
22,25,48,41,502,475,21,26
22,25,50,41,501,466,23,26
18,24,46,43,540,496,23,24
17,22,50,46,553,529,23,22
18,22,53,47,545,525,24,20
19,23,49,47,559,562,22,19
19,23,48,48,558,579,22,23
20,24,49,49,524,567,25,26
20,24,45,41,527,568,26,30
19,25,44,42,538,585,25,32
19,23,45,45,547,565,27,32
19,23,46,44,551,560,25,30
19,23,51,53,564,576,23,29
19,22,48,53,567,559,22,26
22,21,49,51,588,569,20,27
24,21,49,48,582,567,19,26
23,22,47,53,580,559,22,24
21,23,40,38,583,548,22,23
22,25,39,41,590,555,21,21
20,25,42,62,571,545,22,21
16,26,40,66,566,537,22,24
21,25,43,65,581,544,20,27
22,24,42,68,563,536,21,26
22,22,48,69,570,531,22,26
22,24,46,59,576,529,21,24
23,25,44,55,570,529,22,25
20,27,49,54,549,516,23,28
21,27,54,62,590,536,22,31
21,30,50,62,566,530,21,32
20,31,49,60,564,526,22,32
25,36,50,60,589,537,21,29
25,51,48,57,603,549,22,24
25,71,55,49,596,537,20,23
29,83,57,49,617,541,21,24
32,112,69,56,619,548,23,28
31,153,79,63,606,534,27,31
31,155,80,64,622,538,26,31
33,154,74,64,604,528,29,31
31,152,72,67,599,547,29,30
28,135,60,61,603,538,28,26
26,90,48,57,571,521,29,23
26,95,46,56,533,494,30,24
25,85,46,73,533,492,31,27
24,84,49,68,492,428,31,26
26,81,52,73,471,399,37,31
27,98,58,81,512,426,39,32
29,98,61,86,500,430,41,33
30,107,69,77,490,458,45,33
30,126,80,85,518,523,49,36
31,141,83,91,522,599,46,35
33,142,80,93,493,624,56,38
36,144,80,91,529,650,63,39
36,139,93,94,527,625,64,38
42,161,90,101,504,636,75,51
43,184,109,91,491,651,77,53
42,253,115,88,491,682,70,53
41,251,114,96,458,696,66,55
40,269,102,100,449,744,71,60
40,260,107,99,449,744,61,50
38,246,97,102,432,672,63,50
44,174,93,104,462,655,64,51
45,179,103,100,536,701,65,48
47,155,100,90,569,697,63,44
47,146,90,83,563,710,63,45
50,135,92,98,569,752,61,48
45,121,91,99,541,705,62,46
43,107,80,98,479,637,61,46
39,106,81,106,465,646,55,44
35,86,78,103,467,611,55,40
31,73,58,87,493,596,57,36
30,73,55,81,539,653,52,35
28,67,53,84,530,652,49,37
31,82,47,73,512,595,47,38
36,85,51,75,526,585,43,41
36,111,54,74,510,546,41,47
37,161,72,79,447,489,46,49
38,163,71,76,449,455,48,50
37,159,72,78,438,452,50,49
29,160,70,71,426,430,49,47
27,146,74,78,411,433,46,38
28,89,66,70,415,426,42,36
29,86,65,64,403,441,44,31
27,76,66,65,416,467,42,32
28,82,77,76,409,467,43,31
34,116,84,70,433,473,45,35
34,116,76,74,446,489,44,35
33,116,77,74,439,471,39,35
33,117,77,71,440,426,41,35
33,105,65,69,461,443,39,39
28,61,49,69,445,438,37,36
23,66,48,68,438,412,34,39
24,75,52,73,471,441,33,40
25,84,54,79,468,451,28,41
23,87,55,72,452,424,30,37
24,87,56,69,489,450,29,36
27,83,62,73,503,472,32,33
36,85,59,74,484,461,38,34
37,74,57,71,498,504,39,32
38,83,57,83,500,501,43,37
38,80,62,93,467,532,43,38
37,92,61,87,451,521,42,37
30,84,63,81,442,519,39,36
31,83,61,81,414,483,38,34
32,75,61,72,422,488,34,31
32,76,56,68,418,445,32,32
31,61,47,73,430,455,35,31
29,75,42,74,467,464,37,34
27,78,49,85,493,478,39,37
27,84,47,83,501,477,40,35
27,86,48,78,542,526,43,41
27,87,62,97,541,528,43,43
29,76,63,95,506,518,39,41
32,78,57,86,485,498,45,41
31,70,68,93,478,507,43,43
31,65,68,100,420,432,39,36
31,63,60,78,394,439,37,32
29,62,65,89,449,460,40,33
25,54,69,90,447,468,36,28
25,49,62,91,459,467,37,30
25,51,58,112,510,489,42,33
28,69,60,112,538,491,43,36
29,79,54,106,539,511,43,36
29,78,57,105,572,532,41,35
29,93,57,108,564,546,41,33
28,94,61,75,573,565,38,29
25,79,61,74,580,550,35,28
24,67,62,75,542,508,37,31
25,74,58,71,526,484,35,32
25,60,58,54,547,481,34,32
25,61,60,71,512,480,36,33
28,62,57,80,515,502,38,32
26,63,58,76,553,536,33,27
26,55,56,79,551,558,34,26
26,46,52,86,573,588,36,27
28,41,49,80,603,602,34,26
29,39,50,75,588,617,35,31
29,36,44,75,610,636,36,32
29,35,41,81,627,637,37,31
31,69,52,80,581,612,37,33
30,83,55,85,573,582,36,34
29,89,60,97,594,547,34,30
32,90,63,100,562,532,34,31
33,92,65,94,594,596,31,33
30,70,58,88,637,627,31,31
30,54,56,73,646,659,27,35
30,69,54,62,672,697,31,36
28,70,52,62,710,707,32,36
28,80,52,63,696,678,35,35
28,80,52,67,698,678,37,38
26,84,51,67,690,653,38,33
28,71,48,66,647,618,40,37
26,70,49,62,629,630,37,39
27,55,49,61,613,606,37,40
26,53,55,58,586,597,36,41
27,46,53,57,572,584,38,41
23,39,50,49,597,633,36,40
25,35,50,47,596,633,35,38
25,37,46,44,592,643,35,38
26,37,36,50,625,652,34,36
27,38,39,87,672,692,35,38
28,39,40,95,665,660,32,34
29,45,42,101,645,630,34,36
30,46,49,117,638,618,34,37
30,55,47,116,609,614,33,36
31,63,48,98,580,585,30,33
30,64,53,94,586,578,37,39
30,70,53,94,585,584,35,39
28,72,53,93,595,575,35,40
26,69,58,92,598,565,38,39
27,60,56,86,581,587,36,37
26,58,50,82,584,599,29,28
26,51,46,74,614,611,31,27
26,45,43,47,603,622,30,28
26,45,42,43,583,601,29,30
23,50,41,50,569,570,29,31
24,50,43,52,538,563,29,34
24,49,44,55,488,539,28,35
24,51,41,68,492,544,28,33
25,51,39,67,500,575,29,32
25,47,38,64,526,599,29,32
25,49,36,63,564,623,28,29
26,47,33,65,589,635,29,27
26,46,32,49,621,661,29,27
23,43,38,51,642,657,29,27
25,48,38,46,644,650,29,26
24,51,41,46,615,626,30,28
23,50,41,44,591,608,32,38
25,58,42,51,554,588,34,39
26,57,40,65,523,565,33,39
25,53,37,72,487,542,36,40
27,47,43,75,476,524,36,45
27,49,47,79,479,527,37,37
24,40,48,78,469,496,36,36
25,58,52,68,481,496,34,36
25,65,56,68,498,518,32,38
26,65,55,73,523,532,34,35
25,65,57,69,533,541,30,33
27,65,59,76,567,584,30,32
26,49,56,74,574,595,31,39
26,47,55,76,582,595,32,40
24,46,52,72,604,613,32,37
25,50,50,73,620,619,35,38
26,51,45,62,613,605,33,41
28,51,48,64,613,598,33,39
27,50,68,59,606,600,31,39
28,51,68,61,591,600,30,38
26,48,69,63,612,634,29,38
23,51,72,65,592,617,28,36
23,55,76,66,599,610,31,40
24,52,59,62,617,608,33,46
25,54,63,53,594,574,35,53
25,57,61,89,573,532,35,53
26,57,62,102,568,520,35,53
26,62,53,100,550,535,61,77
26,65,54,100,553,534,127,123
23,65,50,107,557,553,136,131
23,61,48,91,551,546,141,133
24,60,50,117,605,585,143,136
26,60,52,123,630,593,136,124
25,57,51,126,631,598,81,75
31,58,50,122,664,606,63,57
31,64,50,116,673,603,54,53
30,63,48,88,657,579,48,51
27,54,46,85,656,573,42,42
26,55,48,85,631,543,40,44
19,58,46,85,587,516,38,40
21,62,52,80,567,515,32,39
20,62,47,67,542,515,30,34
22,70,47,60,518,501,29,34
23,67,57,94,527,517,25,27
24,65,57,95,530,530,26,28
25,63,58,96,532,541,29,28
25,63,59,93,543,540,36,34
24,56,60,97,533,532,37,32
25,58,49,74,518,503,40,38
25,52,55,72,545,515,42,38
25,43,51,68,529,490,41,37
25,51,54,74,506,475,38,33
26,59,53,72,536,477,39,40
27,58,62,59,543,493,42,42
26,67,60,79,506,455,40,41
24,66,58,86,520,463,39,43
24,59,56,95,523,457,37,42
23,48,60,99,486,449,36,37
23,50,62,99,493,460,30,35
23,42,65,92,502,460,30,36
24,45,70,93,482,453,29,36
24,49,68,81,490,476,30,35
24,53,65,74,497,518,30,39
22,53,58,76,500,530,30,37
24,55,51,66,504,558,30,39
22,54,45,68,515,581,29,38
22,52,47,76,522,587,29,38
20,52,50,80,546,581,28,32
21,49,47,78,541,577,27,35
22,47,49,87,555,581,29,34
23,44,51,84,564,576,30,37
23,47,48,76,578,573,36,38
23,45,51,69,565,556,35,38
22,50,56,67,564,545,36,37
22,46,52,65,569,545,38,43
20,48,49,59,561,543,38,41
23,46,53,61,544,535,34,41
25,53,49,61,563,548,32,40
27,51,54,66,572,580,33,40
26,55,58,67,561,576,30,36
28,60,56,66,585,600,29,38
26,63,55,67,588,611,28,38
26,55,53,67,572,610,32,46
22,55,43,61,579,592,31,43
22,57,43,48,578,589,32,41
21,56,45,51,558,563,36,39
22,53,43,60,575,566,37,39
22,60,42,60,570,545,36,30
26,81,42,63,576,563,36,33
28,83,37,62,610,569,36,35
30,81,40,64,597,546,36,37
29,81,40,50,572,540,35,35
29,79,44,50,592,562,36,44
27,61,53,82,548,502,36,41
25,53,54,82,501,485,35,38
22,52,50,82,531,504,32,38
21,55,51,84,527,482,32,43
24,62,55,96,510,455,28,39
25,66,52,77,565,494,30,38
24,69,49,85,565,474,31,41
27,75,50,83,532,456,33,43
28,76,47,79,534,461,33,38
27,71,40,65,506,444,34,33
28,93,49,63,437,407,30,33
30,110,63,57,445,422,33,31
28,113,67,68,451,433,29,27
28,118,69,69,432,418,28,29
28,119,67,69,466,448,28,29
26,99,65,70,486,472,28,28
24,82,52,71,508,487,23,26
40,89,47,67,519,479,27,25
52,95,54,86,519,475,31,22
54,93,64,91,511,463,30,26
57,126,58,87,520,438,31,28
58,126,60,87,483,408,30,30
