34,412,104,59,170,655,85,32
38,416,83,44,171,696,63,31
41,403,108,55,171,753,49,28
43,354,115,63,168,663,117,39
42,305,120,71,156,662,118,38
46,327,147,77,199,701,118,42
45,336,156,101,274,676,124,45
46,317,179,143,341,631,129,52
47,313,192,164,358,594,74,45
76,307,199,178,414,537,80,47
78,302,192,192,418,507,79,44
85,294,187,185,375,485,83,44
87,278,154,173,366,447,93,43
101,285,143,168,390,450,109,50
84,265,138,235,573,469,118,51
86,254,119,272,706,470,118,49
78,253,123,276,721,524,118,49
85,266,129,282,727,560,106,44
76,264,120,275,715,594,94,39
80,294,114,219,569,590,115,46
75,303,131,164,399,581,113,47
79,309,135,159,406,560,112,47
66,295,129,123,355,566,132,52
56,290,128,122,345,562,135,50
46,293,121,110,307,643,107,38
57,288,108,98,326,673,110,39
64,280,102,101,285,661,109,38
68,284,100,101,282,659,85,30
68,285,105,96,268,649,79,29
67,260,106,93,296,586,76,34
83,274,119,97,300,567,76,46
75,272,123,93,302,563,92,49
72,278,133,102,322,542,108,51
77,290,133,127,344,554,121,59
82,309,155,141,321,553,153,70
64,280,154,139,265,558,161,67
73,305,184,145,397,574,153,68
83,318,181,166,439,598,153,69
104,335,190,150,422,626,150,66
109,334,180,136,421,655,138,63
145,409,169,136,452,658,130,59
144,399,147,134,341,726,126,56
143,412,173,110,285,768,126,55
137,403,167,123,337,733,120,56
141,398,161,119,334,696,122,49
101,371,176,130,363,677,127,52
98,429,180,130,374,661,126,53
94,453,150,132,379,625,125,50
75,478,149,130,365,632,140,48
61,478,149,141,375,623,122,41
64,445,149,124,330,635,116,41
82,386,158,140,356,560,128,43
81,327,166,135,374,517,128,47
84,275,158,126,351,490,120,45
79,265,176,137,371,505,116,53
88,275,197,138,386,468,111,56
75,267,177,117,369,455,100,54
78,252,176,113,365,465,105,62
147,256,185,108,392,464,89,63
178,300,211,97,360,451,92,73
180,326,187,115,346,509,98,77
182,332,208,133,363,523,108,101
187,384,233,147,377,515,92,99
155,408,238,159,361,513,98,102
123,405,205,163,436,512,119,104
115,443,198,155,453,543,127,102
132,469,184,175,497,587,118,83
145,463,149,174,562,584,131,88
164,447,143,179,593,577,157,106
181,436,143,194,627,561,147,100
188,377,157,260,759,474,139,98
185,378,170,252,793,388,157,103
191,344,194,274,816,364,157,99
180,329,203,294,867,366,149,84
167,308,232,284,885,393,149,84
170,354,233,234,785,388,155,85
164,372,234,250,815,409,147,80
150,390,226,233,755,433,151,87
136,397,221,226,692,427,176,92
134,393,197,245,644,404,179,86
134,351,203,248,625,421,186,90
132,313,199,238,584,407,195,119
128,294,207,226,569,394,192,114
137,331,212,215,616,421,173,118
149,338,210,186,596,426,165,118
143,349,202,175,581,427,163,122
141,349,219,172,533,426,146,102
146,368,204,170,539,410,156,108
139,341,216,154,453,411,149,96
135,366,230,148,423,421,189,107
139,349,219,152,516,418,188,106
172,323,194,126,474,420,204,107
168,355,203,121,482,429,222,111
161,347,172,131,579,399,215,109
184,326,150,132,600,399,180,100
179,378,155,122,530,423,176,105
161,404,154,119,520,452,176,94
177,386,133,131,556,452,147,100
186,416,203,128,470,499,149,101
165,414,199,132,472,518,156,103
185,406,224,140,493,508,169,92
187,395,222,156,520,497,156,88
202,356,228,147,458,496,144,73
195,308,182,141,490,447,142,74
211,312,187,145,493,444,147,78
200,277,156,135,524,422,130,75
213,279,157,114,502,390,119,79
180,296,165,115,502,391,136,78
182,307,159,127,473,413,150,89
158,306,155,124,479,388,157,80
167,301,155,128,450,415,154,97
156,301,145,146,483,412,157,94
177,293,130,160,536,459,158,96
198,295,119,154,598,469,143,102
201,281,125,156,597,465,136,105
196,306,176,150,575,465,135,94
185,300,192,133,543,513,156,106
189,294,200,154,527,464,148,111
188,289,208,159,548,475,169,96
187,292,214,156,523,494,160,92
216,253,182,159,514,472,159,89
210,238,164,163,574,433,139,90
209,240,157,130,575,457,143,91
207,239,143,109,482,420,122,102
211,252,126,95,523,420,126,107
183,264,117,114,545,425,131,111
205,275,147,356,701,453,158,112
204,278,210,557,901,451,181,121
206,300,242,597,1003,504,189,118
205,328,254,623,999,501,182,114
209,344,263,637,1042,510,186,112
208,375,274,547,917,515,184,99
196,378,234,381,786,489,157,79
196,374,214,324,676,568,142,71
190,345,219,287,679,676,150,69
188,342,213,261,636,734,143,69
164,309,182,254,621,774,116,72
183,310,170,203,500,814,106,77
169,307,182,213,508,754,149,97
168,307,163,204,516,658,149,101
151,331,168,194,483,602,152,99
165,318,182,222,628,543,155,99
156,349,199,232,660,491,181,105
169,335,186,212,636,473,161,85
168,339,189,216,602,545,171,85
168,298,190,223,616,545,173,87
166,316,179,195,472,526,167,85
161,299,165,172,468,582,166,77
137,306,154,170,465,606,155,78
146,300,140,162,507,552,145,101
142,298,123,150,461,575,134,102
151,294,115,142,547,627,137,104
156,265,120,146,557,631,106,99
153,259,129,158,533,640,113,103
146,284,145,168,536,650,107,87
198,291,148,171,587,647,127,90
189,281,157,174,531,632,119,85
173,279,149,166,475,620,126,81
178,278,140,151,482,584,119,76
176,231,123,136,450,579,114,67
185,222,122,140,508,549,109,63
182,247,126,136,536,562,124,66
185,264,120,136,526,580,120,70
196,264,136,161,517,590,113,68
193,270,136,155,526,590,110,65
150,261,129,145,421,607,101,64
155,229,120,144,368,556,87,73
149,224,127,145,394,513,87,72
166,250,133,123,396,518,98,82
168,276,134,138,428,502,121,91
156,292,135,136,433,505,133,94
149,295,123,123,404,553,134,84
150,294,121,124,390,582,132,86
129,274,121,121,400,592,124,77
135,249,118,98,341,642,111,66
131,234,114,96,345,649,94,67
133,241,119,100,382,621,103,73
138,244,128,100,441,582,94,68
129,253,107,101,452,573,95,68
133,249,118,121,452,531,90,71
139,253,136,129,491,515,91,68
138,250,138,132,491,510,77,62
134,231,127,126,445,533,88,63
122,233,126,128,490,536,123,65
118,232,117,120,505,551,120,71
163,236,102,115,460,556,120,69
161,236,97,117,452,599,119,72
169,238,100,114,462,612,130,74
174,270,113,121,429,604,116,81
173,305,108,117,399,574,125,76
132,310,106,120,401,580,124,78
126,315,110,113,389,551,128,79
155,322,114,146,433,526,123,82
151,271,101,143,414,521,123,81
157,258,111,142,388,549,111,78
189,285,123,150,403,541,108,79
194,302,141,157,404,549,111,76
174,300,136,134,354,560,105,75
183,323,152,131,374,601,97,65
180,305,157,124,431,612,110,71
143,268,155,102,424,610,120,65
158,274,146,90,433,594,121,66
155,263,143,82,433,595,126,63
177,260,128,78,416,566,144,68
185,267,123,86,366,535,153,76
192,281,123,116,382,532,154,76
178,262,109,124,400,559,148,74
186,282,115,128,438,558,159,80
160,283,127,124,445,637,147,80
147,306,121,120,452,655,133,77
164,298,113,94,425,677,138,85
180,302,119,81,433,661,142,88
176,298,127,90,425,673,135,87
176,284,129,104,419,601,130,88
176,301,153,100,428,589,130,79
162,310,154,116,423,554,118,71
166,325,165,123,395,544,129,71
164,321,161,113,343,516,127,69
160,345,154,109,362,506,121,62
169,310,147,122,373,497,118,66
169,296,153,121,410,517,165,71
143,267,136,123,415,550,168,71
140,280,147,138,444,563,161,74
146,269,149,134,408,568,164,75
137,300,140,125,379,575,181,75
134,313,132,111,369,569,155,74
200,320,143,109,354,548,140,90
221,325,129,95,325,523,138,90
230,330,124,100,330,527,152,93
242,323,122,126,404,557,144,96
233,326,131,147,455,564,130,102
191,311,127,140,441,549,132,88
179,295,120,146,452,560,161,87
183,277,119,141,451,560,157,88
184,272,113,122,443,516,151,109
221,292,112,118,407,483,143,100
217,305,100,125,421,510,182,103
208,308,103,122,419,505,167,99
207,321,102,124,419,484,156,96
193,294,129,119,369,480,153,64
154,273,120,92,340,491,171,69
180,266,125,98,387,448,130,69
177,285,131,111,471,436,120,86
165,267,131,111,511,435,148,90
200,307,110,117,571,443,148,90
199,312,115,128,584,484,128,100
213,324,118,127,559,510,124,95
225,313,129,115,478,524,118,83
263,334,129,123,454,561,92,83
268,308,120,128,447,586,101,90
344,347,115,123,426,578,106,88
341,362,108,115,434,604,103,90
377,363,93,107,423,601,101,85
361,350,89,103,427,578,104,90
347,381,94,94,357,562,96,87
284,334,95,90,359,553,96,89
263,323,94,87,369,532,106,92
198,312,96,103,391,557,111,100
185,332,102,112,387,547,99,93
163,294,106,128,462,541,114,91
184,315,120,140,462,533,113,85
192,294,136,155,451,504,106,87
223,317,154,178,529,464,99,83
278,368,168,180,545,514,136,110
282,394,169,166,466,514,133,114
262,385,158,160,479,535,144,113
258,379,151,161,471,597,150,111
231,375,146,128,376,648,185,112
153,315,136,112,328,635,179,97
179,288,128,115,343,643,171,90
181,305,141,109,293,617,167,86
191,310,136,83,263,569,165,78
217,299,125,81,249,524,145,85
214,281,113,83,284,484,131,87
191,273,120,82,295,440,133,89
199,262,103,82,293,433,125,90
226,267,100,91,327,423,135,92
207,252,91,93,367,416,122,88
212,271,91,94,333,453,132,82
226,291,83,89,306,466,137,90
210,263,85,91,322,495,165,92
214,302,92,110,313,541,156,92
205,304,92,105,295,549,167,95
208,298,94,100,314,562,154,92
202,281,106,129,356,606,153,92
216,296,109,134,369,610,138,92
169,274,105,120,400,592,141,94
192,354,133,127,392,606,188,109
199,379,141,135,397,578,196,106
199,384,144,115,376,555,195,103
187,394,150,106,363,554,200,113
206,380,149,113,356,539,197,126
187,318,141,114,352,515,140,110
173,283,129,107,322,504,131,115
163,337,128,114,339,489,135,112
182,343,126,126,342,479,112,108
178,356,136,111,306,492,120,105
184,369,118,103,280,486,117,110
204,382,129,104,307,492,118,106
199,326,123,93,283,507,105,106
193,297,125,73,274,506,114,104
206,301,124,85,282,493,129,91
205,276,127,80,309,508,130,82
185,271,117,78,308,533,129,82
201,267,138,97,344,516,129,85
193,283,144,108,347,511,133,81
164,298,139,105,334,502,112,77
154,296,140,115,328,476,119,88
180,379,148,116,345,526,128,94
162,403,132,103,316,567,133,90
152,407,118,94,303,557,119,88
234,409,131,102,321,556,138,89
236,410,134,92,301,548,151,83
217,348,131,89,266,450,138,100
222,332,132,100,272,371,143,102
233,336,139,124,310,361,148,107
143,297,123,125,308,370,142,112
139,309,117,131,306,405,127,111
155,292,117,154,378,426,137,96
148,307,107,151,348,448,148,100
145,307,107,135,316,469,151,106
140,317,105,141,291,461,136,99
149,311,107,142,341,449,139,99
141,295,102,130,298,442,139,97
136,283,101,125,297,428,117,89
185,271,106,123,361,415,126,78
188,282,110,109,365,413,162,86
177,273,109,103,322,408,157,86
176,300,122,115,318,401,157,86
181,292,132,128,324,398,159,87
135,347,135,134,264,392,153,84
128,341,143,138,346,411,118,75
158,371,181,156,426,419,122,86
156,350,185,142,411,420,112,79
156,363,183,131,425,441,114,79
140,288,169,122,414,439,102,86
176,271,165,126,381,448,126,92
147,251,131,117,339,439,122,85
148,254,118,127,464,432,126,85
154,246,141,121,492,419,147,96
151,253,145,122,496,434,145,86
158,282,156,129,484,409,125,83
171,350,183,123,458,438,150,93
164,353,182,144,403,465,145,91
195,372,176,188,398,466,136,114
198,393,183,195,407,459,149,116
189,381,182,192,403,472,151,117
180,302,148,188,395,438,128,105
183,300,173,194,390,401,131,109
138,266,165,159,368,407,126,83
136,226,155,167,406,385,116,99
123,231,164,194,466,361,116,104
122,266,175,202,474,384,108,105
112,278,154,173,408,393,126,119
109,275,149,168,385,405,113,112
111,287,162,170,366,461,140,108
102,279,155,136,318,468,145,103
98,247,137,122,297,483,144,100
107,240,155,113,298,521,133,78
109,243,161,133,371,505,151,86
105,237,156,120,346,478,133,90
166,251,140,123,361,489,146,123
170,247,148,137,444,457,174,134
178,241,125,144,535,411,170,137
188,239,114,133,525,411,162,148
202,246,109,128,529,383,172,147
172,260,113,126,499,386,156,122
205,282,129,119,457,418,136,125
198,275,124,129,355,444,158,141
197,321,130,130,331,489,158,128
195,316,120,141,350,525,141,120
176,290,112,132,349,516,158,123
155,287,87,130,316,487,178,120
173,298,93,120,335,484,162,103
167,259,92,118,318,462,163,101
169,260,116,110,291,455,168,102
165,287,117,111,286,480,150,98
155,269,130,114,287,537,137,97
143,268,134,108,263,573,139,97
140,254,129,100,243,575,131,92
148,258,124,97,256,597,129,88
139,237,146,95,254,597,136,97
138,259,137,95,279,565,122,92
146,259,137,114,370,533,119,93
147,249,140,122,388,522,126,93
153,271,134,138,420,489,130,112
158,262,112,139,416,472,125,113
204,266,109,132,399,474,126,113
191,262,104,126,315,467,126,110
189,276,104,128,326,474,141,119
189,241,97,132,288,485,155,109
204,241,109,168,398,493,157,96
162,212,111,177,467,524,155,104
188,251,133,204,490,559,167,111
196,251,148,318,533,589,151,129
187,283,175,356,685,626,154,135
182,301,179,367,682,641,158,140
189,325,182,385,701,648,158,135
185,311,192,447,796,667,169,138
181,321,187,398,795,659,180,122
180,330,179,395,735,674,160,123
181,340,169,371,690,671,155,115
187,326,175,354,637,656,155,120
172,316,151,259,590,631,134,113
172,304,149,221,543,635,118,102
176,263,133,140,444,584,114,88
196,266,139,143,494,586,136,106
183,270,139,144,562,559,149,100
180,267,135,140,537,527,151,96
195,285,155,159,553,511,177,105
194,294,159,159,558,521,214,116
166,269,160,164,558,506,208,104
169,284,165,177,538,533,226,104
182,301,179,190,510,574,229,111
191,297,163,205,564,580,223,129
193,310,182,214,560,596,204,124
193,328,201,211,560,644,211,131
197,337,193,188,508,655,198,129
186,331,186,174,465,650,224,133
194,337,181,145,473,651,211,115
176,350,169,142,506,633,206,111
167,343,148,135,485,594,220,103
168,320,145,143,482,549,202,103
171,298,145,134,511,518,166,102
129,273,149,116,445,496,165,97
208,243,143,112,397,489,168,106
214,230,152,111,354,476,137,115
211,238,156,144,515,505,166,133
209,288,163,199,545,546,168,133
218,300,159,209,561,554,178,135
160,371,176,206,566,574,172,138
181,403,178,220,620,601,186,141
171,401,194,200,509,631,174,129
166,384,195,165,511,620,172,118
165,374,204,172,513,627,172,117
160,320,186,172,535,616,186,114
137,270,172,163,505,600,166,102
157,278,156,167,495,574,159,98
165,284,147,173,504,571,173,107
158,304,144,160,489,568,169,108
152,287,165,229,587,571,149,108
185,289,159,227,573,587,154,109
166,275,153,236,575,583,169,111
161,266,151,220,518,583,165,107
170,292,151,244,550,578,157,101
170,311,146,205,487,577,164,104
150,322,151,233,519,542,160,102
155,354,152,219,516,532,150,107
179,365,147,219,522,524,131,106
170,356,135,190,538,522,143,119
178,348,117,161,464,516,131,108
176,342,126,125,416,543,132,120
189,316,129,123,440,578,130,118
167,305,127,113,446,592,150,118
186,275,134,106,431,609,176,130
183,306,134,118,522,631,176,132
189,319,126,119,553,628,172,122
175,315,123,120,552,606,207,132
182,298,123,133,528,614,195,127
169,318,163,152,543,574,163,104
164,313,172,150,487,562,183,115
193,329,187,152,467,541,188,112
195,349,188,161,487,570,137,97
194,350,191,154,515,566,132,98
196,346,157,135,429,657,158,115
204,318,148,146,424,642,157,110
169,302,141,126,424,664,159,111
172,281,143,116,412,643,162,120
159,313,163,124,404,631,190,127
145,307,163,140,416,556,169,118
153,331,172,129,414,548,162,113
142,344,168,133,406,545,160,122
141,360,168,128,363,557,158,112
150,350,151,150,371,549,132,115
151,355,152,142,400,553,143,117
142,329,137,137,424,579,128,115
139,339,139,137,452,560,127,113
126,346,130,137,456,546,132,110
132,331,130,100,439,552,124,102
143,324,121,112,428,546,107,100
147,348,120,114,455,523,129,100
140,327,105,119,451,525,127,88
144,292,108,121,486,505,127,106
128,298,96,121,478,495,130,104
115,317,119,113,465,497,144,104
110,296,125,149,473,486,166,121
116,293,129,141,447,470,164,136
109,297,132,139,444,465,165,126
111,297,136,138,444,459,186,129
112,283,127,137,444,461,185,133
93,282,125,88,342,485,149,130
82,266,138,91,378,501,172,117
94,286,154,100,332,525,178,122
93,315,149,103,409,548,168,130
87,323,178,102,407,558,166,121
78,316,176,107,428,558,168,105
85,333,162,106,385,563,153,100
71,328,165,113,459,540,143,100
70,310,179,123,430,508,138,98
68,298,146,132,424,502,130,98
71,326,144,132,425,488,126,103
62,307,143,129,455,468,116,109
71,344,128,113,370,480,118,111
72,342,117,106,324,479,118,110
73,345,115,87,341,456,114,113
72,321,116,85,361,476,117,114
72,323,117,88,371,491,123,116
73,259,106,98,457,491,112,110
84,266,102,117,495,532,108,103
84,272,108,120,502,560,124,104
83,264,107,125,481,549,139,103
92,280,110,125,465,565,137,95
91,297,105,121,409,576,137,91
82,278,103,109,483,559,143,89
87,263,100,122,506,553,134,86
90,270,98,119,506,564,122,83
86,269,105,127,523,545,117,78
87,263,114,130,520,534,129,102
84,269,114,142,496,528,159,117
91,267,118,132,461,504,168,120
96,301,133,144,506,509,180,122
90,304,138,142,503,503,182,125
86,317,150,146,518,509,195,118
88,319,158,127,473,531,174,107
79,365,157,128,484,563,194,105
71,357,150,116,446,550,182,109
73,376,144,108,424,568,190,109
85,371,124,98,410,594,212,111
86,380,116,91,387,603,217,111
84,365,112,90,372,604,193,105
90,351,106,94,374,611,193,104
91,350,100,102,365,600,192,104
77,340,124,110,370,556,142,87
77,356,120,115,380,513,119,87
92,343,144,114,372,475,122,94
91,391,158,122,391,458,126,93
103,371,169,154,396,453,128,125
101,374,162,148,379,459,134,127
97,361,162,143,367,462,143,129
85,360,148,150,388,487,154,132
100,321,154,154,404,464,153,136
91,330,152,129,445,474,154,113
93,317,146,127,448,482,158,106
105,310,146,130,437,476,150,103
127,286,137,129,487,475,141,99
121,270,117,125,453,508,139,93
133,239,107,114,404,499,119,103
135,289,121,124,443,504,134,107
137,277,127,129,454,531,139,109
131,305,127,116,382,516,144,131
130,305,119,107,382,500,137,135
132,318,122,114,381,511,152,131
132,376,113,104,385,557,139,128
122,423,105,114,411,598,147,133
118,428,103,120,409,577,142,122
117,422,108,119,402,553,142,111
154,471,142,123,439,539,184,101
159,418,148,125,409,466,208,109
167,366,152,130,410,369,205,94
193,340,195,147,467,390,209,83
196,342,198,144,478,427,248,88
164,282,218,140,482,437,216,88
163,272,219,140,470,452,192,82
154,302,219,121,416,463,189,85
120,319,185,109,346,470,192,82
112,340,184,112,318,469,148,81
117,335,142,135,270,453,141,91
110,329,129,137,241,461,142,96
129,305,123,138,250,448,146,111
119,277,113,127,250,429,149,113
131,245,105,123,302,399,140,110
125,237,87,85,289,392,149,111
137,248,79,75,301,359,142,114
153,289,90,82,350,373,144,102
153,323,106,92,430,396,136,116
157,341,111,111,433,408,133,121
150,355,106,114,441,424,124,113
137,366,131,124,557,437,132,105
99,350,129,124,576,422,126,119
126,322,125,116,534,424,115,117
111,321,129,102,531,423,137,120
119,294,141,103,518,397,148,123
123,260,124,94,480,403,145,118
128,272,126,89,467,417,155,123
103,267,122,89,464,411,155,116
105,253,115,91,466,440,162,128
98,251,107,99,501,450,163,129
90,263,113,92,435,460,175,132
90,221,104,101,388,486,170,134
89,250,104,102,356,475,174,137
77,239,109,105,317,447,151,121
77,252,125,111,305,463,145,127
77,252,122,111,268,471,149,129
93,251,140,111,328,436,173,111
98,236,151,136,357,440,180,119
109,250,171,146,416,444,189,116
112,281,174,154,411,424,185,117
124,290,173,161,428,409,196,115
137,300,178,157,404,407,188,121
130,304,175,140,409,437,180,102
147,331,185,173,435,473,181,109
159,298,207,312,553,478,186,98
165,332,218,342,579,491,156,106
173,360,219,355,587,524,138,121
240,406,227,368,599,506,161,122
263,406,281,503,726,493,163,127
293,417,287,499,748,498,191,145
310,392,286,487,747,491,198,146
306,376,291,508,775,487,211,134
312,473,288,507,775,524,203,138
288,520,220,356,625,519,197,127
257,603,191,244,485,541,205,110
248,649,192,246,477,575,207,106
252,645,173,215,533,563,218,99
201,551,171,213,556,526,210,106
220,497,164,235,598,531,221,110
233,397,164,268,649,505,189,104
215,300,158,258,635,490,210,107
199,326,163,234,561,481,182,116
187,310,157,226,556,499,182,116
173,311,154,205,506,528,174,121
140,295,137,154,447,550,175,125
145,325,132,148,665,549,151,130
165,286,116,142,796,577,151,136
169,293,124,139,1009,588,156,144
152,278,137,156,1053,580,159,147
154,289,142,163,1049,574,151,151
172,274,152,155,940,561,159,149
147,274,157,158,860,557,163,138
132,306,151,177,668,537,157,125
140,302,146,161,588,523,157,118
163,303,143,163,697,542,162,127
153,316,144,182,709,567,142,141
153,319,146,188,715,565,163,156
166,325,154,159,619,604,162,148
172,350,157,177,648,610,170,154
169,345,165,188,576,592,169,156
175,339,169,203,671,604,202,143
199,347,170,217,638,629,186,123
239,367,250,464,765,623,208,147
255,360,264,528,856,651,202,152
250,384,305,605,1007,667,207,137
248,436,324,637,1116,681,184,141
263,450,335,653,1112,696,177,139
229,423,284,526,1085,667,164,128
206,455,273,455,1015,648,162,115
198,433,217,362,845,661,150,118
192,365,180,301,602,623,162,105
158,366,155,288,727,626,179,106
147,362,141,253,654,654,163,93
156,322,122,260,699,675,159,88
162,352,148,248,694,647,159,86
167,353,142,233,673,623,163,91
167,348,152,208,599,599,150,90
163,338,162,234,604,621,172,94
186,345,175,260,618,622,172,100
182,322,177,259,641,707,186,92
171,321,179,265,671,735,175,100
170,288,175,251,665,737,179,107
184,314,170,232,669,739,173,114
145,297,171,228,628,733,172,115
137,317,156,218,689,691,161,131
145,324,163,202,676,699,161,142
151,342,155,206,678,683,163,146
161,313,155,214,706,627,155,142
162,311,143,176,744,583,156,143
187,275,129,162,685,537,180,151
180,277,126,174,684,493,168,135
177,306,139,160,640,480,158,129
154,326,166,147,594,509,167,138
155,333,173,176,545,551,174,135
167,369,198,274,664,578,166,127
165,380,202,278,654,606,165,123
182,367,208,328,708,620,192,132
181,408,187,342,751,640,181,116
196,409,192,350,746,631,201,134
183,521,176,302,636,643,186,122
179,647,188,302,644,662,183,121
155,660,243,261,600,685,178,147
153,638,243,245,539,669,186,152
144,633,239,218,542,674,153,139
164,543,254,215,604,665,277,152
167,386,244,216,584,648,298,157
159,409,206,201,555,642,288,138
195,458,205,222,667,642,278,134
188,457,200,225,650,640,277,126
196,449,209,215,597,628,171,112
212,425,200,215,591,615,147,113
208,405,180,225,582,580,156,91
180,380,185,199,500,582,194,99
252,392,188,193,468,566,200,104
228,420,176,183,589,553,206,128
224,441,179,171,625,545,213,127
268,417,192,155,628,564,211,144
270,397,214,241,663,593,193,147
224,416,246,298,818,604,192,151
225,400,238,328,765,628,172,143
234,419,250,360,774,667,167,156
209,418,238,371,763,677,170,144
205,396,216,321,717,660,164,148
188,363,175,268,570,650,173,147
195,343,161,244,576,622,174,135
171,332,145,202,541,581,165,117
159,389,137,170,558,564,182,159
162,383,126,171,558,543,179,152
168,394,143,159,528,549,172,149
139,387,153,123,478,550,172,151
137,395,165,108,462,567,175,158
138,351,160,108,444,561,141,111
142,374,159,104,419,563,138,100
139,365,143,159,499,558,188,114
141,376,128,169,484,582,186,114
151,370,98,174,498,565,189,109
146,349,107,178,490,559,190,114
140,324,128,188,550,574,209,125
132,335,150,175,496,554,173,140
132,321,164,161,478,540,183,140
127,315,176,156,488,558,197,147
128,385,180,151,486,560,207,158
127,401,167,144,446,541,211,159
140,431,148,113,416,608,202,145
140,430,124,112,417,607,196,147
139,471,164,188,485,585,181,139
117,416,158,199,516,590,176,123
114,425,174,206,521,583,162,118
111,389,179,205,516,521,171,121
121,419,185,220,592,507,196,114
153,366,150,182,651,498,189,113
153,366,149,180,632,471,184,124
158,342,127,195,663,479,171,127
156,381,150,232,689,467,164,127
149,352,141,223,629,455,124,121
113,340,136,208,508,471,116,116
125,365,199,221,561,481,146,126
119,372,219,206,485,468,193,122
99,326,201,180,482,490,193,115
100,310,203,176,486,512,199,117
104,321,205,186,468,520,221,124
101,301,139,161,425,568,201,101
98,284,111,162,444,576,154,94
116,285,118,145,422,574,166,110
154,369,129,140,401,580,167,110
149,357,117,109,366,570,146,105
147,440,128,108,334,530,146,120
154,469,138,147,457,543,157,126
141,512,146,147,478,551,145,110
111,478,152,166,521,531,158,117
126,494,166,177,544,532,154,120
126,435,167,178,580,534,159,118
117,410,158,133,465,518,155,110
115,375,151,141,423,521,153,109
103,360,150,124,460,550,144,111
97,341,143,121,465,573,144,113
93,319,133,122,439,611,141,101
105,299,136,132,455,604,144,128
111,272,136,117,477,583,149,132
109,264,119,109,390,545,155,131
93,262,119,127,433,534,149,124
89,259,137,126,420,650,161,131
75,275,133,121,445,939,155,106
87,319,130,120,455,1032,145,121
89,321,133,120,478,1069,139,118
112,353,149,100,483,1061,152,148
114,371,136,91,475,953,150,146
115,392,160,130,489,775,151,146
108,414,164,137,462,835,192,136
104,432,189,190,545,881,211,146
93,427,178,206,513,888,205,129
110,407,177,205,528,934,203,121
113,383,164,189,489,873,207,122
130,340,156,186,524,743,167,142
135,322,120,127,450,712,141,131
137,290,138,122,635,984,184,124
131,285,147,142,704,1031,184,125
135,310,161,130,724,1022,173,129
112,299,160,123,692,987,179,111
119,312,167,131,680,923,174,116
110,398,145,106,503,579,123,112
103,401,137,79,438,373,110,112
103,783,113,90,494,478,158,112
104,1002,109,100,503,547,175,110
99,1346,96,106,516,630,177,99
104,1399,103,103,493,705,183,99
124,1409,113,105,426,764,179,113
125,1251,128,109,318,738,163,129
127,1089,131,109,326,702,147,123
123,627,145,104,288,655,151,145
118,438,143,104,299,637,153,148
97,421,147,100,357,614,164,140
95,368,129,88,371,574,151,123
96,329,135,85,365,577,146,130
97,300,123,77,380,577,144,114
94,312,130,80,433,557,153,111
91,304,136,90,463,553,154,111
101,308,148,105,524,533,164,134
108,390,151,127,577,605,165,126
146,403,158,153,609,621,176,132
178,441,149,172,614,618,164,130
204,431,141,172,568,614,161,147
204,428,131,172,504,597,159,131
199,367,121,154,443,494,175,137
174,348,116,126,378,453,155,132
154,329,129,99,319,425,154,143
121,346,129,98,370,411,152,139
102,343,129,89,385,422,155,144
104,366,133,92,404,426,131,156
105,361,127,93,421,444,129,149
94,328,114,101,436,451,170,147
104,294,90,105,497,430,167,132
104,312,97,111,479,456,166,127
103,299,106,119,473,451,174,103
97,310,117,134,540,434,177,103
100,314,131,131,537,430,147,96
92,321,138,129,477,439,146,92
110,355,156,126,502,400,164,95
139,347,146,116,565,393,154,108
144,346,139,96,488,383,161,107
137,335,126,99,507,381,153,101
174,350,134,116,597,387,154,137
163,297,106,110,592,397,118,132
136,295,127,120,524,402,126,128
141,328,150,126,541,414,129,136
142,328,155,128,523,414,128,135
120,352,148,124,421,414,136,126
129,347,150,124,476,420,144,124
148,387,143,130,626,415,146,121
137,351,115,125,1013,424,167,115
143,351,110,116,1281,444,168,118
122,348,108,108,1392,445,159,92
122,358,112,131,1415,464,144,114
130,309,105,123,1366,502,167,114
143,356,121,125,1121,490,143,117
168,355,131,122,813,478,156,119
207,331,135,119,576,477,166,130
228,333,124,114,500,459,167,116
217,334,129,109,468,426,142,126
217,282,124,110,425,418,164,127
202,292,125,154,505,407,194,137
162,295,138,163,544,411,197,134
134,293,166,151,498,413,205,131
128,308,162,152,492,419,206,114
116,318,163,161,510,448,190,114
103,315,161,123,402,464,157,116
121,328,152,117,349,472,163,116
109,345,126,123,356,486,155,125
121,331,120,141,410,509,157,127
122,326,124,126,385,488,147,125
124,320,117,134,364,476,149,111
104,300,125,126,395,522,152,108
103,290,125,124,500,515,146,99
128,299,129,103,718,493,146,100
137,297,122,105,860,498,155,112
136,312,124,89,1006,503,149,120
133,311,106,92,1024,459,120,116
146,337,116,86,987,472,124,115
116,345,122,86,825,489,114,112
111,342,117,89,683,510,105,98
117,319,130,91,449,528,117,108
122,317,131,86,374,531,137,114
127,272,132,85,324,515,138,115
127,259,124,80,314,498,132,124
119,270,129,86,315,491,148,129
109,264,116,90,310,483,138,116
104,270,117,95,362,495,128,121
85,310,108,92,382,532,123,117
89,332,114,90,368,572,126,118
101,316,104,80,378,607,135,120
110,337,110,83,413,634,130,128
109,336,118,79,363,637,126,133
105,294,116,77,338,639,136,134
100,280,108,77,336,621,151,132
86,298,109,81,319,583,142,135
75,388,93,69,274,574,141,123
71,390,100,60,263,575,153,103
66,388,97,61,266,549,146,106
72,365,102,66,261,545,150,114
74,355,104,61,278,560,134,107
91,259,128,76,277,562,135,114
102,243,117,77,270,573,122,113
101,252,117,79,268,568,126,109
103,250,108,78,287,635,99,102
102,251,112,80,248,670,101,102
103,272,100,71,246,680,99,93
95,315,107,83,261,665,127,110
104,324,106,82,252,703,129,112
105,332,120,82,232,669,166,120
107,344,145,88,235,645,179,128
96,324,185,93,232,628,177,127
93,321,192,88,246,648,157,119
86,307,194,92,269,633,152,117
78,328,189,90,296,604,114,107
83,340,182,87,310,598,128,95
87,331,141,82,336,614,132,100
87,307,147,92,351,595,134,103
88,337,176,103,374,601,144,110
82,341,180,104,396,597,147,111
76,330,171,101,380,592,128,122
72,333,169,116,443,565,132,121
73,326,158,107,452,558,127,115
79,308,159,99,437,560,153,121
86,286,162,97,401,579,161,109
93,266,157,95,401,584,160,104
87,272,166,77,301,1038,156,98
108,309,180,112,330,1115,194,151
109,311,160,140,441,1304,175,147
110,309,150,144,437,1344,184,156
109,334,154,146,450,1352,187,149
108,337,147,146,449,1135,197,152
87,310,129,123,392,1147,163,105
77,309,121,86,249,951,175,107
77,312,129,86,272,901,177,104
72,304,131,83,240,891,185,105
77,279,127,83,226,831,181,109
76,259,114,87,250,704,185,103
91,272,110,89,265,676,210,111
92,283,101,83,323,680,222,111
95,284,115,95,341,699,230,112
100,292,116,99,347,646,233,117
109,335,116,100,343,683,268,131
116,341,119,99,360,676,251,136
128,323,147,119,337,675,285,163
135,321,152,120,409,667,272,170
134,328,161,119,408,672,267,161
183,372,193,121,425,671,238,171
182,380,199,123,416,664,242,180
171,400,179,117,413,655,192,158
166,401,193,114,370,643,224,157
164,417,206,115,370,658,226,157
103,350,181,105,337,649,227,138
94,319,180,103,322,665,212,118
98,312,194,94,314,682,193,116
105,294,168,89,289,694,174,105
102,288,150,78,298,673,166,101
98,276,157,89,334,651,159,105
106,289,150,91,369,630,196,119
106,298,150,93,358,619,203,118
103,296,149,88,354,631,216,129
101,305,153,92,351,656,227,136
108,334,143,81,366,690,224,129
91,320,149,81,354,753,190,110
87,332,138,74,343,786,219,121
76,348,139,91,340,808,189,108
78,326,127,90,342,823,181,102
66,344,125,87,305,824,203,104
75,348,125,102,307,787,228,106
71,327,123,100,291,738,186,87
73,336,114,92,288,687,193,93
71,357,105,97,301,645,196,91
67,343,119,101,318,599,167,90
63,341,106,86,310,592,187,107
76,331,103,88,353,611,193,114
69,320,102,79,350,627,186,116
71,322,102,80,331,637,182,120
78,322,79,91,305,673,188,122
77,334,82,92,312,660,134,104
71,355,76,94,288,662,157,105
75,352,75,96,291,664,157,99
74,336,79,90,289,656,153,95
69,370,85,79,345,646,161,96
62,370,88,73,349,664,162,93
67,375,94,72,329,670,140,113
66,373,109,71,319,687,148,118
65,377,109,72,355,690,149,119
71,337,121,68,297,684,166,119
78,323,122,74,248,667,183,126
67,294,131,69,271,650,190,100
63,323,122,68,282,612,187,109
89,325,126,70,264,600,186,112
96,317,110,81,259,604,169,119
91,322,108,81,288,596,154,114
94,329,103,85,312,589,142,113
99,310,109,95,302,598,129,106
81,270,127,93,279,575,137,102
68,271,126,83,283,567,152,94
72,278,124,81,268,572,147,101
74,275,121,84,254,585,142,99
72,273,124,77,251,649,145,96
70,310,95,80,295,675,165,115
86,315,97,84,303,695,152,111
106,315,117,91,356,709,142,98
122,323,114,86,335,727,148,102
119,323,104,84,336,691,144,99
121,346,157,90,302,691,165,99
109,357,158,88,304,668,156,104
83,359,148,110,307,666,157,100
76,357,174,133,420,649,170,109
78,364,178,134,431,621,177,111
74,342,145,139,475,619,130,97
73,333,151,146,492,650,162,95
79,333,152,138,525,655,173,111
54,328,124,127,492,656,156,110
65,317,128,161,530,658,167,131
63,304,133,204,700,651,173,130
65,304,129,217,750,631,184,135
67,293,128,225,751,614,200,130
77,311,123,223,783,601,219,129
68,328,121,201,766,627,219,108
71,336,111,151,645,650,226,108
72,344,110,126,645,653,224,101
90,354,111,97,586,688,214,99
84,330,122,97,528,716,197,84
87,345,131,99,530,715,190,80
87,329,133,107,499,725,183,80
86,302,137,105,420,730,170,90
63,322,139,125,483,712,156,85
64,339,139,126,494,695,161,89
63,298,128,152,632,677,184,101
68,305,119,160,641,653,197,112
78,316,117,177,649,642,175,109
85,290,135,210,689,623,187,120
84,298,145,245,741,609,204,137
84,401,152,256,742,646,211,147
79,405,152,268,733,635,212,143
71,423,156,293,860,651,230,153
108,472,156,303,900,701,229,146
146,461,160,347,956,690,223,140
152,397,157,337,938,667,214,135
165,386,166,352,989,688,214,145
176,357,178,456,1059,642,219,132
182,282,175,443,1063,571,237,156
174,285,208,460,965,583,239,175
193,268,221,489,971,541,258,178
192,288,223,513,946,495,247,167
190,305,228,464,755,507,252,180
171,302,228,472,619,492,232,164
154,291,182,412,593,452,223,141
138,317,170,394,439,473,188,139
128,368,209,398,301,504,214,144
126,375,192,326,339,514,194,137
110,382,191,315,452,537,205,138
109,388,189,302,552,544,209,139
89,372,200,283,554,557,232,150
82,310,156,206,666,544,206,145
74,317,179,238,700,518,208,140
90,334,181,225,683,556,199,132
97,364,201,239,654,585,198,129
107,373,192,228,690,584,180,103
118,401,186,209,690,606,179,98
133,397,171,182,641,612,167,100
128,421,162,176,611,648,181,107
131,452,176,181,612,679,182,112
127,442,175,175,602,664,163,105
122,416,193,182,515,622,178,123
116,392,193,207,585,621,174,139
117,334,205,247,682,520,152,135
108,274,185,236,684,432,149,128
102,258,179,237,719,420,169,131
102,274,167,242,712,413,161,133
97,286,165,220,639,422,168,107
125,302,154,201,589,459,232,133
129,286,189,212,629,488,232,134
139,289,184,210,620,533,225,141
136,282,192,225,642,566,223,135
129,296,186,222,648,565,231,143
106,319,184,207,631,552,170,121
108,328,159,223,638,548,171,122
101,328,169,249,626,495,169,132
98,351,168,239,672,474,179,122
103,353,168,247,734,447,163,111
96,320,160,243,771,421,179,115
95,321,148,232,752,404,234,149
100,316,179,215,740,383,236,145
112,290,209,224,667,391,227,144
107,279,209,212,667,442,226,145
114,296,212,209,748,485,266,152
115,316,208,212,799,491,224,126
104,338,181,238,866,534,223,111
97,326,148,250,1010,514,236,121
98,393,201,346,1043,467,246,125
104,430,248,441,1088,435,197,113
114,416,265,505,1141,426,234,149
123,429,318,583,1148,494,251,154
129,430,328,584,1113,594,241,165
126,390,304,545,1110,681,265,169
123,338,273,495,1044,736,275,176
116,398,266,460,1004,808,240,155
122,388,213,428,1110,758,218,155
122,404,212,447,1121,696,223,148
122,393,220,447,1073,635,205,151
114,418,215,419,1012,587,183,167
101,360,217,401,943,471,195,158
95,376,231,347,770,434,189,154
81,395,232,315,742,397,183,151
90,392,221,294,732,358,202,150
96,387,223,299,739,447,199,126
99,386,218,283,810,504,209,131
101,397,214,320,940,586,226,140
109,407,189,303,841,681,227,140
108,407,190,323,890,732,193,143
101,399,185,314,975,684,195,142
117,416,171,301,934,667,175,142
112,385,157,221,802,639,176,148
104,328,165,244,891,574,180,142
106,321,205,324,902,526,181,127
118,333,228,371,948,527,202,140
99,306,236,383,964,512,198,142
102,324,224,377,968,539,186,127
107,351,215,369,935,540,175,122
100,375,196,327,898,568,167,130
101,369,172,303,845,618,212,140
108,357,163,291,862,643,211,131
105,339,173,289,858,598,227,136
108,351,199,343,942,606,245,151
126,357,190,317,987,615,259,151
120,353,189,322,934,569,205,128
126,359,189,324,918,542,217,137
124,336,177,319,893,565,227,142
124,294,164,263,821,567,202,154
109,293,161,246,757,612,213,164
105,365,177,242,764,690,213,173
89,387,186,262,753,737,204,169
86,403,194,272,793,783,178,159
76,422,197,268,773,763,188,143
73,417,191,275,770,764,155,140
73,372,172,244,746,701,164,148
77,370,190,254,745,663,180,164
92,391,189,284,768,600,199,179
96,417,172,282,771,644,195,177
97,393,169,288,842,643,200,176
99,374,171,288,836,656,233,168
99,353,170,276,835,670,214,149
81,326,207,303,888,716,190,129
84,286,226,316,894,729,205,125
80,280,229,300,851,736,209,113
83,279,234,304,875,766,162,106
86,275,211,290,884,783,172,104
93,263,160,213,773,783,179,115
91,241,139,208,755,780,166,133
92,294,140,212,796,739,153,128
86,309,121,211,784,719,154,124
81,315,123,195,713,727,147,121
101,337,140,189,701,712,159,127
104,334,152,158,660,687,156,121
106,296,140,134,546,699,165,124
107,276,140,112,440,713,160,123
113,288,139,106,526,682,188,127
97,249,129,116,626,686,201,122
97,264,104,116,625,705,199,104
105,275,145,154,675,693,210,102
114,327,159,157,729,637,210,102
117,347,173,165,713,625,192,114
113,369,175,161,670,582,167,111
118,378,181,162,708,533,174,117
109,369,162,125,662,539,159,112
105,329,184,187,766,601,177,121
97,300,185,188,744,928,196,122
101,291,186,191,721,1008,209,121
99,279,190,195,692,1027,203,114
104,280,201,215,716,1030,209,122
102,280,172,164,569,1035,196,130
117,278,170,172,600,817,185,122
113,274,168,177,617,761,164,122
125,315,186,178,636,773,163,132
121,349,177,195,643,763,149,127
125,349,177,204,652,737,185,118
111,352,170,194,605,703,181,123
120,344,172,183,596,692,174,122
100,322,139,206,656,706,183,108
106,318,138,183,676,724,183,120
106,295,145,191,736,737,143,113
102,280,156,211,782,742,149,102
88,312,159,209,770,743,150,95
95,347,195,188,708,735,166,104
85,317,186,228,698,715,174,97
78,388,179,219,591,680,177,97
78,406,174,213,548,667,154,95
86,426,175,218,519,653,155,99
86,396,149,213,558,632,128,102
88,406,156,178,530,688,121,104
83,357,163,175,560,701,111,110
91,355,167,162,568,734,105,108
89,341,176,159,594,733,164,118
80,347,165,153,547,749,184,118
90,332,173,158,504,705,184,125
94,331,173,175,553,693,186,115
100,340,172,173,566,654,188,112
97,319,156,172,616,630,168,106
97,305,154,174,624,600,169,101
91,303,145,159,636,588,161,87
83,323,162,157,630,584,171,94
78,293,151,161,573,578,228,114
83,293,149,157,515,614,213,136
91,292,162,201,573,618,200,145
86,325,168,205,611,647,221,143
93,318,156,193,628,692,218,141
95,327,154,191,693,715,177,131
95,365,157,195,709,732,170,118
87,400,152,157,708,737,188,116
93,378,142,140,763,701,168,124
91,365,130,137,727,666,162,130
82,376,138,129,696,626,157,130
84,348,135,119,677,576,159,119
84,339,128,104,631,576,126,106
81,338,136,120,552,598,136,104
87,364,162,144,577,599,162,99
90,357,154,149,635,609,194,104
86,370,156,159,698,637,196,95
91,338,162,180,772,630,198,103
88,361,158,183,793,655,224,103
84,335,137,171,973,664,213,118
80,342,140,176,1051,661,170,113
80,319,152,171,1112,644,186,126
79,330,150,152,1374,637,193,119
80,311,141,140,1482,621,162,122
82,305,139,166,1642,629,158,142
84,312,135,174,1685,637,168,143
104,301,127,196,1627,637,159,147
99,325,143,204,1359,637,155,151
97,307,153,215,1191,607,150,148
91,309,153,191,715,562,153,115
92,292,152,180,288,524,147,114
73,303,152,161,134,509,150,99
81,263,135,152,82,483,161,97
85,285,120,144,52,489,158,99
87,298,131,161,378,486,152,95
85,309,132,179,703,488,163,93
89,306,130,183,841,503,152,83
82,305,128,196,906,544,130,92
90,328,160,225,1080,533,183,94
100,353,166,238,1037,544,200,128
103,353,167,235,886,575,192,126
104,359,172,226,775,561,186,133
108,349,194,296,787,520,198,128
104,362,207,302,564,552,154,129
96,346,205,321,648,590,136,101
99,347,210,322,677,586,151,109
100,367,209,343,749,611,154,103
95,401,199,286,847,650,151,102
92,354,172,267,895,642,150,92
91,337,165,221,816,616,158,92
87,323,162,205,764,615,147,81
83,332,164,170,710,592,145,81
86,308,167,174,582,566,139,87
110,322,179,233,631,545,138,87
115,315,190,276,809,520,125,83
124,338,222,387,978,530,128,88
128,294,214,418,1048,561,128,88
131,323,216,431,1057,552,125,86
118,324,197,395,991,577,141,100
116,327,187,372,972,597,140,100
115,323,150,277,842,570,134,99
106,343,184,287,798,568,142,99
106,323,184,256,728,589,147,116
120,330,183,262,736,563,152,106
174,344,187,256,579,556,174,113
189,345,198,301,600,592,174,128
216,342,197,282,512,588,190,131
223,330,220,419,702,575,238,124
217,326,236,443,679,579,228,122
183,334,251,450,722,573,215,123
174,315,237,407,686,542,238,124
145,321,258,483,737,510,229,129
162,325,272,423,549,512,195,144
203,336,269,397,540,531,206,159
224,335,267,408,528,521,208,152
237,361,299,481,597,533,212,155
241,362,272,387,526,582,204,158
285,394,262,359,613,570,206,146
299,387,258,378,656,562,201,131
280,393,243,370,785,605,215,139
282,360,226,437,778,611,243,134
285,354,232,475,906,562,263,129
222,319,229,487,901,591,250,128
169,362,241,504,946,659,273,142
174,349,254,521,999,648,260,139
157,356,241,391,990,675,211,125
144,344,216,359,944,703,208,124
145,387,175,311,897,685,211,140
135,371,195,360,895,631,181,130
127,402,201,341,672,628,189,124
105,435,211,361,709,605,221,129
100,442,222,361,658,593,294,124
131,404,221,366,697,603,325,113
134,366,196,279,639,627,344,110
136,337,178,274,669,640,339,132
154,305,165,245,568,628,317,134
154,284,153,213,515,645,236,154
124,332,163,207,534,660,184,145
124,344,145,196,577,633,135,145
133,363,140,164,542,646,141,133
112,350,133,185,581,648,139,127
114,370,153,277,652,644,151,109
115,369,153,312,731,734,155,107
118,402,178,332,738,754,169,110
99,419,201,378,785,713,154,99
99,455,197,381,776,699,163,109
104,456,199,359,756,668,164,115
147,442,286,528,829,550,182,143
143,416,281,536,776,492,174,139
145,367,264,518,788,472,174,144
148,373,271,553,787,509,183,142
154,361,270,564,863,509,189,149
118,345,218,463,795,539,173,121
115,333,212,455,819,582,175,115
112,348,234,468,818,610,188,121
110,296,247,475,881,612,195,127
105,311,243,455,807,657,187,119
105,292,203,387,715,623,191,115
98,304,206,365,740,608,203,126
101,292,187,328,713,603,207,140
106,302,155,239,626,614,184,136
101,305,164,272,670,576,188,129
104,314,164,273,620,586,184,148
118,306,177,406,636,572,192,146
133,320,230,562,987,558,202,142
125,299,242,584,972,524,218,144
127,287,231,555,948,528,207,143
137,329,282,674,1090,517,259,146
133,333,297,683,1072,522,250,146
145,373,264,581,732,535,254,141
150,408,263,570,734,512,265,137
147,387,273,575,684,479,274,143
140,391,213,413,422,502,221,136
135,384,172,260,276,490,206,141
104,322,152,221,221,515,187,125
99,296,141,194,164,549,165,129
99,315,130,185,113,606,153,125
95,268,164,190,78,636,175,119
95,312,162,183,61,655,184,107
99,320,171,177,437,653,176,116
96,333,169,165,521,671,176,106
92,314,173,162,682,646,185,108
82,315,145,157,737,578,167,114
79,268,158,165,800,527,171,116
80,281,162,177,721,518,176,116
96,243,161,170,722,457,159,146
108,254,147,157,596,419,144,162
109,232,139,145,537,507,173,163
113,252,124,156,504,535,164,169
115,241,120,144,451,542,160,171
104,272,151,161,418,612,166,151
96,273,150,165,423,652,164,131
110,300,171,171,445,623,153,115
117,296,174,162,397,686,145,119
117,300,178,150,415,685,139,109
121,323,166,145,442,665,153,116
118,334,176,144,453,680,155,114
108,326,163,136,441,658,135,121
102,348,167,136,430,605,155,133
102,339,158,145,532,604,158,135
99,333,141,127,463,588,135,126
104,343,128,156,529,574,131,146
105,333,137,160,539,620,137,144
102,302,124,148,550,619,132,119
96,324,138,146,431,645,130,130
96,289,139,163,498,682,158,144
105,278,142,133,398,660,189,135
108,306,137,130,397,645,186,131
116,316,144,127,377,664,183,131
115,304,123,119,383,645,183,119
120,299,125,96,334,648,175,113
113,291,123,93,365,714,152,108
104,273,114,101,354,746,142,106
94,261,107,106,356,793,145,109
94,279,107,107,335,839,144,113
83,285,114,101,294,851,149,109
71,271,121,103,304,857,139,103
75,259,122,97,302,841,154,123
88,281,137,109,342,787,183,129
83,254,135,107,396,747,184,127
86,263,143,112,443,765,174,124
84,263,139,111,427,726,172,124
87,269,147,112,411,729,164,112
90,250,146,107,436,754,146,118
99,262,157,125,471,787,149,117
102,274,150,129,467,777,151,117
110,299,161,162,529,819,164,116
107,296,151,166,630,845,158,108
103,292,139,214,637,864,178,105
110,376,161,208,652,850,190,117
123,445,168,220,656,816,197,120
125,474,167,196,612,785,188,119
132,491,168,190,610,755,200,126
125,524,192,145,628,755,170,134
111,458,169,151,667,746,152,123
93,373,156,129,678,746,132,110
89,327,146,130,708,778,126,107
81,306,142,131,634,789,132,113
84,260,107,119,636,783,133,103
90,280,104,115,528,833,129,107
97,342,98,121,532,848,136,109
94,360,109,126,486,808,137,114
93,382,112,134,502,779,129,115
91,378,131,135,487,766,120,103
98,375,127,128,568,692,119,95
85,339,145,128,529,659,129,91
80,330,135,120,519,658,143,101
76,307,133,106,507,668,140,104
80,329,133,111,449,677,150,108
67,363,143,125,395,701,154,107
70,348,130,115,373,723,145,117
76,328,140,136,370,769,145,110
78,342,139,145,385,781,147,102
68,342,122,142,401,771,145,99
76,286,117,174,470,738,150,105
84,296,125,182,471,723,147,98
87,308,120,173,502,662,162,105
86,333,133,178,511,626,160,105
87,336,136,173,504,618,155,100
93,361,160,161,441,634,153,97
90,345,155,157,436,630,156,95
82,342,157,148,388,646,206,117
86,291,147,162,445,664,201,108
90,262,152,165,425,682,200,112
86,229,126,126,365,694,195,110
87,245,122,127,379,724,196,112
98,224,107,130,399,732,143,93
96,236,132,107,340,749,173,101
99,276,140,119,359,734,180,109
95,291,160,178,553,736,182,110
93,288,191,267,622,712,191,122
121,329,214,332,635,720,175,119
138,346,209,364,669,707,145,114
141,319,239,427,713,719,135,109
157,308,225,415,595,722,155,110
161,311,200,375,602,727,156,105
138,268,176,322,609,724,157,109
124,293,172,287,547,732,174,116
119,293,112,177,492,708,173,111
92,288,116,158,493,727,161,116
88,294,135,129,411,707,160,107
99,321,153,126,408,677,154,99
96,295,155,118,461,675,140,104
93,295,152,103,477,687,139,105
99,298,165,155,520,713,139,99
93,291,154,170,566,733,129,99
74,282,137,166,559,780,142,95
82,264,127,168,523,798,134,99
78,253,130,206,572,827,144,104
70,286,110,177,516,808,146,110
74,285,94,160,451,813,146,117
78,265,94,168,445,801,137,120
77,288,98,172,462,767,148,115
85,294,116,164,460,718,153,112
90,281,123,181,520,684,160,104
93,283,127,180,541,659,166,96
101,294,144,189,541,626,169,101
93,302,142,184,517,646,165,93
89,300,144,191,575,657,162,122
90,282,142,181,530,651,149,143
85,280,141,184,508,652,131,142
110,309,161,330,606,655,151,149
112,271,160,345,606,652,144,157
107,272,144,324,473,653,127,137
127,299,147,331,494,639,145,124
134,305,146,349,532,657,145,126
103,297,118,208,398,670,122,114
103,301,113,183,412,658,140,106
111,319,123,194,495,669,145,108
91,307,122,204,552,689,125,100
82,303,138,178,525,678,138,95
112,308,156,219,587,650,168,109
114,319,165,221,587,647,177,117
112,307,162,225,560,634,176,109
110,316,172,241,509,607,190,112
115,337,162,253,499,588,190,119
101,307,143,240,485,583,193,139
98,309,152,274,479,552,177,132
92,288,143,267,430,518,187,134
111,307,173,284,503,515,207,148
104,305,184,287,500,549,217,153
92,306,175,264,436,556,190,120
103,314,191,240,472,603,199,128
109,314,198,240,476,637,192,131
109,300,155,175,380,663,167,135
125,288,158,203,492,673,150,138
127,300,174,223,508,694,146,135
126,304,150,224,547,709,142,129
120,323,140,226,547,727,148,128
106,336,166,223,549,721,135,108
94,360,154,179,474,693,146,88
94,349,145,162,473,678,150,93
93,360,144,147,407,637,162,116
94,353,151,139,416,584,163,123
87,323,155,157,418,579,160,123
83,290,149,171,514,596,146,125
82,291,150,168,502,575,140,125
90,271,154,170,547,595,115,105
90,281,164,221,577,617,107,93
85,287,131,213,568,607,116,91
95,319,179,234,600,608,134,93
98,333,179,260,665,633,144,92
80,326,181,259,656,638,170,106
80,330,180,227,684,661,163,116
85,339,190,238,703,683,164,116
75,320,156,221,645,702,151,116
69,323,157,209,649,718,144,114
74,310,149,211,626,700,115,97
76,307,145,211,569,701,124,97
81,322,161,240,635,702,122,95
81,313,154,224,595,674,119,92
88,304,165,205,512,678,122,98
92,314,181,258,590,704,136,94
89,309,174,263,599,671,149,94
83,283,150,217,495,666,142,97
79,292,147,213,506,691,147,97
88,304,133,227,548,663,156,95
86,298,112,167,463,643,146,93
118,343,114,182,542,678,176,93
125,340,135,225,592,674,184,90
125,329,140,237,570,659,184,89
123,333,177,326,732,685,186,97
127,332,172,319,742,691,200,101
105,291,168,302,689,679,170,110
95,310,151,276,653,698,171,113
96,311,150,272,689,692,164,114
87,299,106,136,486,706,153,107
81,301,156,209,587,706,148,113
78,291,178,226,598,679,153,112
77,265,170,221,594,686,142,108
83,281,234,333,651,695,175,124
80,264,237,349,654,641,173,124
76,278,214,326,595,653,164,112
101,288,244,416,660,673,184,146
105,291,249,426,667,630,185,147
112,299,240,343,569,623,159,135
130,339,244,336,595,626,188,150
132,324,255,382,692,587,194,152
110,350,237,297,684,587,164,112
106,347,237,281,690,593,164,111
107,327,191,278,678,596,189,113
93,292,185,286,707,635,163,87
140,324,197,257,635,646,168,92
146,286,177,231,550,646,174,91
157,283,177,236,549,654,183,95
155,312,181,242,617,641,203,112
151,343,184,263,611,688,204,113
126,416,168,253,619,723,192,108
122,435,161,249,628,702,188,102
125,452,174,250,625,659,201,98
134,460,168,264,587,636,164,84
133,430,157,233,566,526,159,83
125,339,133,196,509,451,167,89
134,298,123,190,501,439,172,85
128,297,124,215,569,485,149,93
128,275,183,196,598,536,152,90
133,272,190,189,588,543,155,95
149,287,203,195,662,568,145,114
143,315,211,219,749,591,163,124
134,294,200,216,927,582,162,130
124,309,149,218,940,541,151,138
121,317,147,213,937,564,156,136
100,321,121,189,855,554,157,146
93,308,122,183,805,528,119,137
97,298,135,193,580,511,122,142
88,282,133,194,537,496,119,130
104,285,142,202,511,452,120,134
89,245,143,205,506,449,110,109
96,251,136,198,649,463,121,116
98,276,117,174,619,487,129,110
95,241,106,166,596,529,126,116
99,314,111,158,623,568,128,122
105,323,110,153,632,585,121,110
99,306,108,133,436,571,117,104
103,301,137,141,464,558,124,101
103,310,142,150,467,526,125,90
82,246,211,160,428,513,118,95
80,267,222,174,454,503,120,98
80,272,220,175,453,528,116,96
82,263,204,153,402,582,93,86
84,249,203,142,384,638,104,107
89,270,168,132,405,647,132,98
90,292,175,123,402,672,132,97
91,303,189,124,404,714,136,110
115,325,216,166,466,685,155,118
124,326,219,174,496,625,146,103
117,295,178,168,471,627,115,97
116,262,236,213,506,571,131,104
120,261,247,242,562,511,162,120
96,228,228,223,512,528,156,150
102,257,237,224,511,531,154,152
105,252,238,223,503,525,163,155
119,257,197,238,624,582,185,160
124,263,184,238,601,607,170,149
121,273,179,237,584,621,161,116
107,269,166,238,603,677,165,110
107,287,183,255,653,660,166,108
102,309,156,218,514,661,130,100
92,303,149,188,500,679,135,95
90,301,154,186,536,643,143,92
87,295,157,177,489,630,146,101
88,304,141,152,474,690,138,106
70,275,144,124,434,650,143,102
78,278,144,130,442,633,129,110
84,271,134,118,412,701,122,108
93,258,152,161,505,679,159,118
93,239,151,165,499,659,164,115
95,240,137,165,613,696,159,119
88,223,128,157,606,678,161,103
75,242,133,154,628,602,169,104
79,253,118,107,578,628,158,118
84,246,131,104,540,600,154,114
87,256,132,104,477,609,151,109
85,262,132,100,529,628,144,108
98,306,136,105,499,667,142,113
86,298,129,98,483,715,122,109
77,292,109,89,505,782,147,121
74,292,119,87,471,820,154,123
80,299,117,82,483,900,154,126
81,248,107,91,516,945,178,132
97,269,106,88,518,922,168,112
103,330,100,92,511,883,149,105
101,337,102,93,557,846,146,103
97,330,110,105,538,774,154,107
87,320,108,108,519,688,131,102
65,327,108,113,514,673,157,111
61,300,114,132,560,698,152,102
64,284,100,134,561,702,167,103
62,268,85,125,512,700,165,96
63,275,90,108,480,775,172,97
71,266,112,123,482,810,162,84
74,274,116,127,433,811,169,92
71,277,132,134,357,845,157,91
74,287,139,137,354,847,179,102
82,274,142,151,400,825,198,111
75,272,127,141,414,813,191,110
77,259,138,121,417,809,185,105
94,259,130,108,415,789,180,105
92,257,124,108,436,802,182,100
83,266,129,101,445,794,146,75
87,361,135,106,481,787,162,73
83,349,117,101,523,797,161,73
65,350,116,99,510,808,159,77
68,356,132,104,487,804,151,109
64,360,133,111,486,818,155,115
70,267,132,108,465,816,135,116
66,258,133,111,392,790,136,117
64,245,130,126,383,746,149,119
63,248,114,120,421,715,157,96
77,263,106,108,375,686,145,90
71,242,106,112,326,663,149,89
97,275,115,110,336,655,152,96
100,273,116,93,340,685,162,91
99,266,119,94,369,733,138,93
89,282,113,90,376,766,130,89
88,278,102,75,398,783,126,89
59,241,108,100,423,805,122,82
70,251,108,101,454,807,136,124
74,256,112,112,415,776,132,115
79,218,119,119,412,717,134,115
78,219,122,146,496,705,133,121
96,230,129,173,549,690,160,126
91,232,136,178,526,664,135,85
103,253,135,196,559,652,138,88
106,273,138,208,552,689,143,89
106,281,135,193,456,712,147,80
109,306,124,190,479,698,151,113
109,296,114,194,492,732,145,115
104,279,127,182,450,763,139,117
132,281,151,173,461,750,176,123
133,277,154,168,472,728,182,121
123,284,175,142,403,713,192,103
129,325,192,157,457,683,188,100
122,322,183,145,425,671,194,101
88,322,161,137,430,679,174,108
88,327,177,150,439,700,168,111
89,313,159,143,401,729,147,99
81,280,138,117,305,741,154,101
89,293,147,120,390,744,151,99
89,283,171,137,396,749,141,85
87,292,159,131,406,742,136,82
80,275,142,119,403,750,122,78
73,280,142,114,398,721,118,78
68,292,131,104,328,719,113,77
77,310,100,94,362,712,108,88
78,313,123,108,349,666,113,88
74,306,126,112,344,639,115,90
75,310,126,111,360,659,121,105
76,315,128,113,419,660,132,110
66,301,124,100,366,679,142,105
62,285,111,83,378,745,143,114
69,312,120,83,385,787,154,118
72,307,128,86,381,816,149,112
67,308,128,92,333,840,142,108
69,288,132,97,329,829,149,114
82,307,124,106,409,787,154,112
77,286,127,110,403,766,133,105
75,286,134,120,399,717,136,98
74,238,131,111,380,660,136,91
78,242,130,114,394,641,133,74
86,246,155,107,269,646,153,96
86,249,147,100,254,635,154,92
116,243,150,133,312,650,171,100
121,275,158,146,322,672,178,104
120,281,153,146,330,699,164,104
115,271,156,162,376,706,155,82
115,279,176,189,412,720,163,84
111,293,186,205,479,712,152,115
106,277,186,206,496,709,151,114
142,280,222,212,489,692,167,132
141,276,199,206,485,699,148,138
142,284,188,190,454,693,137,137
141,285,206,176,489,708,133,111
140,299,203,172,489,725,120,112
102,320,165,160,486,725,122,94
94,325,162,146,476,704,134,84
100,313,161,138,486,685,133,98
92,311,145,146,383,662,133,96
91,298,139,142,374,631,136,91
88,279,137,139,360,615,116,89
97,317,143,155,396,595,131,101
104,311,140,157,477,582,158,109
85,306,98,108,437,580,159,105
101,319,122,129,436,553,166,119
107,328,123,130,436,570,166,121
114,277,128,129,428,580,175,116
103,281,134,136,323,590,157,108
102,270,137,141,320,624,150,106
94,294,136,125,317,637,145,95
96,295,143,128,325,626,140,92
78,311,146,115,290,685,144,96
82,322,137,103,290,713,179,96
91,334,127,103,324,709,184,99
84,304,121,101,332,735,178,110
78,285,119,93,343,741,188,122
75,275,112,90,340,702,158,121
74,252,117,87,373,690,124,117
64,241,123,75,355,679,131,257
80,236,111,71,410,661,142,599
79,240,105,78,403,663,134,902
85,235,109,96,405,656,136,1040
79,261,103,97,371,640,129,1046
87,269,96,133,500,654,118,1034
71,256,103,151,493,635,111,887
94,272,106,154,499,638,111,577
92,300,94,148,495,667,107,251
94,311,103,152,496,667,114,226
89,310,133,155,390,685,131,154
91,330,132,142,309,742,140,110
67,309,136,136,303,733,147,112
79,306,134,134,333,738,148,109
85,274,129,130,403,761,143,107
100,277,120,96,376,724,122,102
99,259,113,85,408,672,125,97
98,280,106,84,393,692,137,96
89,272,109,83,403,642,136,97
84,281,114,83,364,597,131,95
64,272,92,74,355,625,130,96
77,281,98,73,316,627,134,102
85,290,94,82,361,589,156,93
84,280,127,97,358,652,154,90
89,276,123,98,392,663,180,90
95,275,126,106,395,630,183,93
84,291,132,117,440,662,175,93
84,273,141,118,444,677,141,93
83,278,116,110,412,673,141,96
79,278,114,119,399,715,109,93
85,296,111,124,446,726,140,101
91,287,102,116,434,725,143,108
90,328,102,117,411,760,136,108
93,334,116,115,435,724,138,109
97,348,122,107,421,702,141,112
91,354,140,116,440,702,123,107
93,363,138,127,490,675,115,95
85,327,129,126,505,631,113,89
85,319,148,176,535,671,146,100
76,308,153,185,516,650,144,97
73,315,160,175,496,720,157,96
102,335,189,194,493,724,198,107
105,330,194,193,469,741,198,99
117,363,181,154,455,700,185,83
117,359,187,150,464,709,191,87
117,332,170,155,439,646,173,86
108,345,215,143,381,648,167,91
106,349,217,149,417,648,172,92
95,299,209,144,419,655,157,126
95,296,199,133,432,668,162,128
93,300,197,121,414,677,163,131
67,235,138,91,409,677,129,119
67,336,139,78,378,745,164,137
66,377,137,80,355,827,173,119
70,381,133,89,373,799,159,121
72,396,132,94,412,759,168,136
71,400,100,97,413,729,174,136
79,327,110,104,438,621,158,145
77,318,108,113,483,476,151,141
73,325,112,106,443,501,155,138
72,296,123,121,407,518,161,126
71,302,128,120,392,555,153,128
73,320,118,133,430,560,162,122
76,298,121,131,338,604,161,124
81,302,133,148,360,612,166,142
81,303,132,143,367,615,154,141
80,321,139,148,383,616,157,134
68,312,141,133,315,621,127,117
61,329,142,132,366,602,128,108
58,316,159,120,364,563,121,81
54,311,157,113,377,543,111,74
59,313,157,116,362,514,141,85
58,293,162,118,344,494,139,73
67,292,157,121,322,475,141,81
64,285,124,114,306,509,140,82
79,303,119,119,340,544,157,87
82,294,111,125,354,565,125,76
84,302,108,132,381,584,122,76
89,297,109,124,378,577,120,78
90,295,106,127,376,574,121,73
86,273,118,153,378,538,118,99
79,242,111,142,392,498,108,102
84,256,102,140,399,493,123,113
71,235,113,144,400,491,123,108
71,235,119,152,515,482,159,125
61,240,106,147,512,546,159,105
64,267,144,154,510,574,173,113
61,263,178,157,525,603,168,105
59,266,178,155,504,673,171,104
56,264,189,173,520,669,162,88
60,307,190,160,506,625,156,85
73,286,175,154,510,687,146,75
73,276,139,149,525,662,141,71
77,306,140,149,574,575,152,70
78,313,119,123,499,578,142,86
76,282,128,118,484,570,150,99
66,287,114,113,509,470,144,97
60,279,112,100,460,494,168,100
59,237,97,98,404,509,171,108
63,254,103,89,362,527,160,100
72,256,104,91,385,598,145,98
70,305,120,91,356,604,169,103
71,319,125,103,367,605,155,105
73,327,138,105,378,675,148,99
72,327,143,103,395,665,145,97
59,322,131,90,372,625,158,89
60,298,122,100,415,676,138,92
60,289,115,86,461,677,138,97
57,274,99,80,448,633,140,111
55,262,91,80,437,632,152,112
59,260,98,85,539,625,137,110
65,233,118,78,478,592,142,104
76,251,121,81,443,582,143,121
76,275,134,81,464,582,130,116
79,278,136,79,488,604,116,115
78,290,146,77,426,626,123,116
74,296,124,69,443,613,131,127
66,294,127,76,457,642,122,110
69,279,116,83,442,643,132,119
70,280,123,85,426,638,127,116
78,270,116,85,360,659,115,121
76,254,109,86,351,733,100,111
79,227,105,86,323,770,105,133
77,229,102,77,312,819,105,118
78,233,94,81,316,873,111,117
85,232,105,93,351,930,129,114
85,236,114,107,409,923,125,110
85,276,135,113,410,900,147,100
87,272,142,111,429,881,140,99
88,266,139,107,416,821,140,99
77,269,127,91,388,726,122,93
84,287,140,80,376,705,135,103
79,273,123,69,366,691,114,96
82,278,131,72,344,657,119,100
84,309,152,85,325,724,124,96
80,291,153,94,319,764,128,95
70,276,136,90,242,764,112,85
77,264,140,126,327,838,113,97
71,262,124,135,332,874,113,91
59,234,109,130,340,863,137,97
78,250,154,129,363,871,138,100
82,257,155,133,368,866,144,102
85,245,156,117,363,821,175,117
87,243,157,105,376,840,172,118
97,232,182,119,456,828,158,112
84,239,150,123,523,813,163,113
83,256,152,127,558,838,166,120
73,256,145,120,507,834,141,106
72,252,149,131,516,795,146,123
72,282,125,130,477,812,134,124
75,287,125,126,430,809,125,119
78,290,135,125,411,784,118,117
82,292,138,118,418,745,95,95
83,303,130,105,446,729,95,81
74,263,114,93,422,690,99,78
71,246,112,114,459,740,118,89
69,222,99,114,438,714,130,85
64,218,92,120,463,732,134,80
98,249,181,157,447,751,164,110
101,255,187,154,525,776,163,113
98,283,202,145,490,749,150,108
100,301,207,140,503,805,154,110
97,299,208,131,484,820,153,116
63,273,142,87,448,828,147,105
71,317,137,93,375,795,147,110
70,302,110,94,323,763,161,115
68,290,103,96,353,725,156,111
74,284,100,97,350,694,157,126
79,302,103,94,369,662,139,111
71,272,113,91,331,678,142,119
76,273,115,70,325,684,142,115
77,265,114,69,331,677,142,115
86,281,122,66,323,693,136,93
80,260,119,66,293,733,132,96
76,236,107,63,289,750,124,96
74,254,105,64,294,741,113,102
69,239,106,63,234,719,109,105
58,251,103,62,316,721,109,104
61,242,100,65,356,690,106,97
68,254,106,79,394,654,103,97
74,228,120,84,398,657,125,91
77,254,118,88,453,690,119,89
75,243,115,91,425,686,134,91
75,254,112,93,413,701,153,100
81,239,110,91,384,717,180,107
76,255,82,96,392,734,163,118
75,255,84,91,310,718,162,115
78,258,87,92,277,723,162,123
81,247,89,94,287,703,161,135
74,258,97,86,277,719,141,126
71,249,95,75,289,688,141,117
69,222,85,74,308,676,160,119
69,217,82,70,307,684,170,120
61,227,98,64,285,706,157,109
62,219,96,72,295,680,156,96
65,233,108,76,271,720,169,96
71,243,116,77,265,762,153,95
67,241,117,78,277,780,134,99
65,264,113,77,291,789,135,91
64,305,119,66,292,814,132,94
61,298,110,60,294,796,115,92
60,332,117,59,288,785,131,106
67,334,119,58,268,740,140,108
66,320,117,68,258,705,135,113
69,293,105,68,349,693,133,113
75,290,113,73,354,680,137,118
73,247,101,73,353,656,131,110
73,248,107,78,374,685,120,104
81,270,121,86,373,705,117,101
84,269,125,89,277,691,115,105
86,278,124,89,268,711,125,99
86,329,126,86,252,724,124,94
95,333,130,86,213,706,122,89
93,317,117,79,203,690,118,81
88,314,114,81,203,683,121,74
84,300,110,81,211,664,106,85
92,256,114,80,221,656,131,101
78,268,104,73,225,666,144,100
74,249,100,79,286,692,147,99
79,259,102,87,300,740,147,99
80,276,102,82,283,755,161,98
75,291,102,96,358,741,173,121
85,287,106,114,378,729,184,123
89,315,106,110,477,699,192,130
86,308,101,102,503,643,191,128
87,299,97,106,515,607,185,124
89,284,93,98,483,616,163,96
80,274,85,84,471,592,138,92
78,270,97,84,346,592,129,90
76,267,99,84,299,602,125,95
72,266,104,80,294,611,125,96
70,257,100,78,270,601,114,95
70,245,100,68,297,637,126,101
71,228,96,62,271,634,124,99
68,246,119,84,286,633,131,103
73,245,114,82,273,666,141,114
67,243,122,87,267,686,138,121
64,258,131,91,238,706,132,113
61,255,130,95,284,748,135,109
59,257,113,77,309,757,151,100
59,271,114,78,319,732,165,104
73,289,108,77,321,721,178,100
72,308,108,77,364,674,176,100
80,308,109,72,335,619,175,100
83,292,108,73,311,586,160,104
85,275,112,72,318,574,144,96
72,257,110,63,321,556,128,80
80,247,96,62,266,552,126,82
74,249,83,77,275,557,137,85
73,243,87,78,278,548,132,77
64,260,84,82,253,564,158,83
66,252,79,83,246,565,151,81
66,236,106,84,299,577,160,93
69,245,111,75,308,622,152,93
75,259,121,79,313,660,158,96
77,271,121,81,367,663,127,86
74,301,128,84,373,730,132,86
70,310,109,79,352,758,124,67
63,330,121,84,357,739,138,66
54,324,104,74,371,747,137,94
71,299,102,76,361,747,133,100
73,286,113,93,850,691,137,107
73,299,119,100,1012,671,135,107
75,303,109,91,1124,664,126,106
75,311,126,101,1136,661,124,85
58,315,127,96,1127,653,124,74
59,306,118,82,817,658,110,66
57,295,118,72,588,663,107,64
56,282,125,73,285,688,97,66
57,279,110,61,147,676,115,66
58,273,112,67,92,694,119,64
56,270,108,65,156,722,133,75
63,275,113,79,393,726,139,87
66,238,97,82,494,732,149,91
65,250,104,84,536,756,147,95
64,251,101,84,562,759,147,104
69,277,116,88,579,746,149,105
65,299,118,76,470,734,151,98
64,322,123,88,401,704,147,100
64,324,113,91,364,664,147,97
63,351,117,95,364,640,155,92
67,357,106,110,394,603,173,99
74,334,117,124,415,592,176,108
93,337,129,126,518,570,176,104
105,337,149,164,597,548,189,107
108,326,157,160,588,534,186,120
111,324,154,149,544,535,163,108
106,319,136,145,537,514,172,104
90,310,128,145,437,511,166,111
81,297,105,101,365,515,149,111
84,291,96,108,384,504,141,109
75,267,102,111,412,494,142,112
78,264,114,144,528,506,114,116
86,256,105,137,567,517,123,106
84,265,105,141,571,518,120,102
77,325,109,147,569,626,137,91
81,405,113,154,560,722,150,101
81,414,123,183,551,750,156,96
74,425,127,190,521,733,178,104
77,426,135,212,595,724,182,104
93,370,131,224,674,627,179,114
120,291,128,243,741,500,178,114
117,302,123,216,739,441,177,111
115,292,128,221,814,455,147,110
116,311,131,198,775,451,160,123
103,357,126,175,777,485,160,124
70,374,138,153,783,534,151,125
75,388,133,148,727,568,163,142
78,459,139,136,668,582,168,141
73,473,135,136,656,629,149,131
76,443,140,159,580,642,139,126
77,462,130,165,511,634,137,122
82,438,126,163,503,620,148,111
91,349,120,182,523,605,151,110
92,300,132,192,520,557,148,108
104,307,140,181,574,518,193,121
100,236,143,183,567,508,193,115
100,263,152,190,606,495,175,105
91,262,143,165,563,500,167,106
107,280,131,168,563,581,170,108
105,281,124,165,513,593,114,88
107,321,113,158,502,699,121,104
102,291,104,133,477,709,116,104
104,316,105,146,536,705,146,106
95,317,121,156,547,651,162,115
88,319,126,165,547,674,167,117
87,278,130,158,577,552,158,109
89,273,130,172,655,587,163,114
91,252,131,163,625,595,146,108
81,247,122,154,633,617,148,108
81,237,112,141,621,630,150,99
84,271,110,152,680,657,158,94
81,280,108,152,599,649,155,94
75,319,126,172,579,674,159,96
75,322,138,177,589,669,156,116
72,331,134,182,588,632,141,112
70,335,130,183,557,649,143,110
76,343,136,177,597,603,160,113
76,307,113,158,706,586,179,135
76,290,84,147,672,578,168,121
78,279,96,176,691,554,174,126
80,263,140,192,640,528,178,130
79,260,149,210,655,617,169,142
84,271,167,238,562,611,143,133
89,291,173,246,592,646,148,124
111,285,174,253,663,708,161,130
114,277,146,236,719,701,158,129
126,270,128,228,772,666,188,123
135,265,143,239,823,718,202,116
155,269,141,229,822,689,192,112
149,303,144,253,783,650,190,104
179,375,182,288,797,644,195,121
174,380,191,279,720,610,183,119
174,392,174,267,653,572,178,125
204,402,175,288,692,581,182,132
206,387,171,252,704,570,173,132
180,312,134,240,676,580,176,116
198,314,145,292,688,606,164,130
196,320,171,308,702,575,168,125
154,296,180,313,683,536,170,121
142,317,183,311,655,622,167,122
176,326,185,301,622,618,171,125
162,359,187,308,654,635,181,109
167,353,167,287,690,665,167,109
168,338,153,275,644,737,170,115
197,318,158,279,675,724,168,116
180,335,156,264,663,770,166,126
169,323,148,219,655,800,145,128
176,327,152,221,593,816,146,125
175,363,166,222,608,794,148,121
147,379,177,242,591,775,189,126
194,366,188,242,603,732,190,123
226,358,200,242,555,682,205,119
218,343,200,244,606,663,220,118
217,314,201,231,604,628,218,119
225,287,184,200,596,595,187,109
177,262,173,202,592,609,179,111
139,273,164,197,567,613,166,106
155,274,158,229,553,622,140,108
156,266,160,245,585,694,136,104
146,279,161,256,623,727,167,119
159,295,169,256,596,729,163,114
183,258,154,240,587,795,169,116
184,241,155,189,578,792,164,115
188,247,136,170,604,768,157,113
184,226,137,154,576,780,131,105
202,224,132,172,606,765,137,93
195,232,147,211,626,720,140,97
182,286,138,212,567,739,146,98
185,328,147,205,477,720,159,102
189,366,151,225,447,734,167,101
166,364,142,236,481,765,163,117
154,364,130,205,446,755,196,124
187,368,138,203,481,745,196,126
192,373,137,257,558,742,194,128
203,353,131,281,646,696,189,141
200,364,125,263,618,670,183,137
208,405,128,275,620,658,186,128
191,375,115,296,643,599,201,129
180,328,115,253,635,599,207,134
160,320,111,197,503,583,212,120
161,311,114,193,478,565,216,109
157,284,118,174,494,596,184,107
138,295,132,127,423,658,169,100
132,335,151,107,317,684,159,98
147,342,150,104,336,726,149,96
139,334,158,95,361,747,165,101
137,361,152,97,367,779,163,111
138,358,143,108,405,754,158,109
143,363,120,112,427,724,161,103
159,368,119,111,418,706,157,119
179,388,136,113,394,749,170,127
169,332,136,106,370,707,166,125
176,322,141,100,349,722,172,134
178,288,151,116,368,744,175,133
156,258,149,119,372,760,181,131
161,278,129,115,395,717,149,121
161,330,145,106,379,723,150,117
159,329,146,98,353,734,142,109
165,334,150,99,385,751,140,106
174,339,150,99,415,743,122,95
167,297,154,112,395,728,118,100
171,241,141,119,394,718,116,95
211,276,159,120,403,704,131,108
198,271,144,100,316,684,129,106
187,295,149,98,251,679,139,99
170,305,147,92,272,693,139,93
164,307,142,98,288,718,139,106
105,286,125,103,308,726,129,105
105,281,122,112,317,737,143,111
128,268,120,113,338,748,136,138
160,275,128,125,360,747,140,139
161,282,132,123,369,711,129,128
158,304,129,121,344,715,123,118
161,308,139,114,334,696,108,118
138,294,136,113,351,677,116,95
95,280,125,95,297,693,121,94
115,295,122,90,262,706,127,99
108,267,118,94,287,693,144,100
106,266,131,113,333,722,137,100
114,270,137,118,308,729,152,92
112,358,135,121,317,746,149,86
103,346,133,117,351,731,149,76
107,359,126,117,360,738,153,72
113,377,102,95,438,717,150,69
120,375,90,84,465,683,136,74
131,314,96,73,457,650,143,82
132,295,127,74,457,635,141,99
136,296,139,71,432,592,124,101
130,283,145,72,332,602,141,107
121,304,153,88,291,669,154,109
114,353,163,93,301,757,139,106
105,387,169,93,285,804,141,90
111,390,164,95,340,838,152,106
111,372,169,99,326,870,137,113
106,387,200,119,332,856,119,107
112,354,186,118,335,800,123,110
131,351,199,121,364,780,125,119
141,355,224,121,324,777,124,131
152,398,248,129,426,717,127,122
160,359,224,113,418,656,129,123
156,353,230,130,475,628,130,128
158,352,226,132,447,594,143,133
151,334,208,125,463,568,134,115
147,308,170,111,376,564,139,114
172,311,184,96,411,615,133,114
170,313,179,66,358,661,135,112
156,309,141,65,373,713,122,98
143,323,126,75,351,735,118,88
144,320,132,83,361,755,121,89
139,334,116,89,328,743,119,97
145,312,121,95,287,701,116,82
148,299,144,86,268,678,111,87
156,286,151,86,260,648,118,87
150,278,144,81,223,640,125,102
150,309,152,78,247,648,131,102
161,318,151,73,246,648,138,103
167,309,137,72,251,633,148,116
161,312,158,66,272,647,152,120
179,326,177,66,301,665,144,99
160,330,174,69,281,693,143,91
205,333,173,76,303,696,134,94
200,338,173,74,291,728,134,77
207,354,155,86,302,732,139,75
202,337,140,105,308,707,133,77
198,309,135,101,319,686,130,104
139,307,135,108,320,687,144,107
136,322,138,112,331,655,138,107
128,306,139,100,312,649,118,108
112,314,138,79,278,663,118,116
122,297,136,87,258,654,134,102
117,285,137,71,231,640,128,102
129,279,123,68,220,642,126,102
147,271,124,71,198,647,123,98
145,290,128,78,205,642,127,93
145,298,117,75,258,667,124,83
175,335,130,73,269,693,118,78
181,328,135,69,256,708,117,81
177,351,139,72,264,731,131,84
178,366,161,71,292,749,126,86
172,381,165,66,237,777,127,98
166,353,156,68,232,783,131,97
161,361,158,78,275,776,140,104
150,333,151,74,285,748,134,103
157,291,115,70,257,725,137,104
182,271,115,74,260,666,123,95
199,316,180,73,278,629,126,102
208,307,200,76,290,598,123,91
212,309,205,81,292,608,134,103
221,333,209,86,296,596,129,99
203,333,209,84,300,604,136,97
183,325,150,85,282,617,140,96
173,322,125,79,265,641,169,99
177,331,112,82,267,642,163,101
178,305,115,76,276,679,173,107
180,311,115,95,294,708,181,108
157,306,151,105,298,720,172,116
146,303,155,103,264,744,141,137
160,342,178,101,245,753,148,127
168,369,186,99,233,749,138,126
188,392,200,89,216,727,125,124
214,381,184,83,245,721,124,116
210,386,178,80,266,695,117,94
194,374,179,83,272,672,113,94
168,361,181,86,269,640,113,84
203,346,166,75,258,629,121,84
199,333,169,72,231,624,132,85
210,349,167,69,213,602,129,87
224,307,148,70,214,605,119,90
238,298,132,69,215,610,119,91
192,282,136,69,214,589,135,118
182,299,135,79,208,589,136,118
180,284,131,85,258,614,139,116
183,322,128,75,251,599,137,122
169,394,133,82,287,578,159,124
167,679,126,82,342,886,137,112
201,766,117,74,382,1118,122,105
197,773,153,78,354,1179,118,102
173,776,167,80,348,1213,116,89
170,775,177,72,339,1256,97,102
168,590,175,76,301,1116,103,94
151,468,180,76,254,864,105,97
181,473,152,67,248,743,116,94
190,448,141,67,252,692,119,91
202,383,118,69,245,591,105,75
213,320,118,68,243,517,108,78
196,357,133,63,229,569,111,85
174,348,139,61,227,610,110,84
163,343,147,64,260,624,117,85
154,356,155,68,230,649,120,82
158,394,160,68,212,615,115,74
163,364,146,65,214,592,110,75
154,342,144,66,233,574,115,72
180,347,125,60,198,543,122,84
192,350,121,56,206,557,117,86
221,310,120,56,212,571,113,93
227,397,130,62,252,608,132,97
243,619,142,73,351,850,132,111
230,687,152,81,405,1080,115,102
215,719,162,81,403,1148,126,104
184,740,167,79,407,1189,138,111
177,767,170,81,394,1235,144,106
160,622,188,80,335,1100,166,126
169,558,200,79,266,893,176,134
189,535,196,84,273,816,174,139
185,537,192,83,251,731,180,134
173,425,197,81,239,594,182,150
179,401,175,77,172,544,154,123
193,385,176,77,182,511,146,120
171,347,190,72,206,463,144,112
162,265,189,73,225,513,134,120
182,242,172,65,219,535,106,100
179,252,165,62,231,578,114,101
153,273,140,63,223,593,118,93
172,306,138,67,234,639,124,105
196,327,140,73,245,692,135,91
192,361,147,77,248,673,133,100
192,365,151,83,245,655,136,97
200,457,157,80,278,723,142,101
230,621,141,82,316,805,155,98
208,724,139,73,355,918,137,94
211,768,133,73,362,971,143,84
207,770,131,68,357,975,132,84
196,722,126,64,349,942,119,91
173,584,116,55,283,866,100,104
200,477,115,57,202,698,105,107
181,407,111,57,177,637,97,105
178,392,112,60,185,653,96,107
209,419,133,65,160,639,98,106
187,508,133,69,217,621,93,95
166,646,128,70,281,733,97,109
169,694,124,67,313,892,104,107
188,701,134,65,328,939,105,111
176,729,139,63,340,1027,102,116
173,661,163,62,319,1080,94,108
166,517,180,67,283,1009,78,102
170,440,191,90,294,932,68,109
174,453,178,92,284,893,68,103
154,352,205,94,273,817,67,86
142,420,189,93,257,755,84,85
153,401,174,89,355,807,97,80
166,425,176,67,345,808,101,67
145,400,183,64,378,822,99,66
160,421,140,57,377,825,100,69
177,382,145,56,393,867,103,71
204,408,150,56,294,840,95,67
212,418,151,53,265,802,94,70
206,426,149,52,209,769,98,79
194,438,139,52,214,794,106,83
205,445,152,63,225,847,95,81
186,464,164,73,246,846,96,73
178,462,155,78,283,880,99,82
188,479,156,82,271,903,101,75
191,460,154,83,268,896,87,70
194,428,139,77,244,850,97,77
179,429,117,65,227,864,100,76
177,435,123,63,183,822,106,66
182,458,121,60,186,824,104,64
181,502,121,62,183,816,114,64
159,521,127,66,217,755,107,65
170,511,126,70,227,805,108,81
165,505,122,65,235,827,98,81
181,516,132,66,242,800,96,87
206,523,140,68,239,808,88,90
200,548,139,72,203,840,89,81
198,575,137,72,210,882,83,65
205,557,133,84,221,872,85,76
182,499,122,84,225,894,94,78
163,463,114,80,237,875,95,80
187,414,118,70,230,920,94,84
196,338,140,69,224,873,96,86
184,362,137,56,213,882,97,84
209,385,139,66,224,869,99,84
210,374,137,75,228,882,103,94
203,356,130,81,245,826,102,94
211,379,107,84,256,810,109,96
214,443,117,84,258,847,115,99
192,440,115,76,263,830,109,101
191,421,129,73,258,809,104,85
176,445,138,71,271,785,103,86
157,439,146,67,249,742,96,84
167,374,142,71,241,803,84,78
168,420,164,78,269,843,93,69
155,418,159,79,274,836,95,70
157,426,156,73,269,856,90,64
146,443,161,74,275,884,99,71
115,452,156,70,271,781,106,69
101,447,142,63,265,806,94,70
103,466,156,57,262,866,92,70
99,461,142,56,238,864,98,70
129,458,142,57,237,840,104,81
132,468,162,70,277,862,106,87
129,490,159,73,266,906,107,86
150,503,139,79,259,861,113,87
148,493,144,84,258,865,112,99
120,493,145,97,250,853,102,92
117,441,148,92,205,794,98,82
125,395,145,96,183,825,96,79
99,386,149,91,195,843,104,76
131,393,145,90,210,841,107,75
159,376,149,75,225,854,102,65
159,406,133,68,236,872,98,66
158,425,122,55,220,789,96,67
159,424,157,54,212,835,85,73
135,449,180,53,211,861,86,69
106,429,189,58,192,844,105,67
109,406,189,58,190,850,116,78
104,385,201,68,198,844,117,76
96,372,176,85,239,807,114,73
105,401,181,84,249,843,113,72
117,420,164,79,259,855,101,84
123,438,182,82,254,829,95,77
130,443,183,78,247,802,97,82
135,489,195,73,214,843,96,82
145,433,191,83,190,831,88,75
144,456,186,84,189,790,91,77
142,444,180,81,205,837,103,83
144,428,187,84,255,817,104,81
149,402,172,73,239,720,102,88
134,480,148,57,242,731,114,92
134,479,177,60,237,778,102,85
132,477,162,64,220,754,84,77
119,473,152,60,160,758,90,76
110,507,185,58,182,772,93,71
115,463,202,66,209,745,81,65
93,452,199,61,200,762,93,61
90,460,215,63,205,801,104,61
91,462,211,63,214,797,99,65
89,399,195,61,201,783,101,72
98,423,189,64,188,811,117,80
100,425,175,67,207,797,111,84
104,467,165,62,224,823,103,94
107,456,165,63,225,810,101,98
112,468,162,71,243,817,110,90
164,456,151,69,246,790,97,89
174,488,146,70,245,852,100,88
192,495,134,73,228,814,106,92
279,508,129,81,222,821,103,87
307,547,133,84,227,822,91,86
291,536,155,82,208,789,91,81
298,500,143,81,209,688,92,84
303,495,157,87,210,683,105,78
231,488,177,77,203,682,109,76
202,426,170,68,161,668,110,79
184,429,151,65,169,709,117,86
173,418,159,70,186,739,115,105
173,362,157,61,209,682,105,100
181,367,142,68,209,674,106,113
198,369,140,82,228,672,115,115
195,405,136,104,270,626,105,123
197,412,132,108,274,569,112,105
208,415,116,112,265,628,107,109
205,453,114,110,295,631,114,98
223,470,116,112,301,623,101,100
297,494,136,112,311,610,97,84
312,485,154,111,330,606,86,81
323,536,152,105,325,635,95,73
330,525,152,106,303,655,83,71
313,504,160,95,327,645,93,71
259,415,157,79,292,645,99,65
239,423,153,73,257,755,107,68
202,365,166,77,254,739,99,78
179,317,165,77,248,806,106,79
189,355,159,74,208,807,106,71
180,370,186,75,197,819,109,79
174,377,181,76,215,769,122,84
176,401,181,77,240,765,120,79
211,403,185,73,264,700,109,75
188,377,197,78,255,699,104,76
194,365,170,70,260,678,100,74
202,405,171,71,266,627,99,74
191,401,174,62,258,645,100,67
151,478,171,67,249,732,104,73
182,481,170,68,288,806,112,81
164,559,174,68,284,833,116,76
153,539,178,70,277,858,101,73
180,554,163,73,265,826,100,82
185,503,164,74,263,744,109,88
164,524,161,76,221,702,105,85
209,473,171,84,232,648,102,106
220,444,174,82,201,610,95,111
198,385,177,86,199,552,94,107
211,368,170,85,198,524,92,101
212,323,168,82,211,519,88,97
191,272,148,72,204,561,87,80
173,302,133,69,213,553,94,85
199,341,132,70,221,580,101,89
196,334,127,67,208,553,95,83
186,391,129,63,194,562,93,83
197,404,125,64,196,533,109,85
222,399,119,60,194,579,106,72
209,428,122,58,219,611,96,69
201,489,134,69,241,677,94,72
200,491,116,67,244,681,102,75
172,529,119,65,246,774,92,75
140,525,132,65,251,800,87,72
119,480,130,67,223,810,90,67
114,508,145,70,208,782,114,71
129,455,140,72,200,755,109,67
132,405,137,76,193,683,116,69
144,451,150,85,180,753,124,77
174,457,152,85,186,713,128,80
168,355,129,76,194,712,111,75
154,404,150,76,190,732,108,78
156,437,154,74,176,755,92,72
186,446,174,71,190,646,91,76
182,460,175,66,179,659,88,73
188,463,178,63,199,668,86,74
193,436,165,61,206,659,90,70
200,424,168,62,273,609,98,79
164,364,128,58,274,642,91,64
175,343,137,56,288,645,89,69
175,374,136,59,262,727,89,68
195,373,134,62,261,724,102,77
181,343,126,68,220,708,94,78
180,341,130,64,233,685,102,88
187,360,140,70,233,717,106,91
180,348,144,67,240,642,109,90
154,347,142,69,238,626,134,98
153,349,144,67,212,648,132,89
157,374,140,70,174,725,126,86
104,374,114,65,165,725,124,78
128,391,106,64,162,767,120,82
131,393,135,63,168,767,76,68
130,390,126,61,177,781,78,68
145,374,122,59,190,704,82,61
152,338,121,56,177,667,83,61
148,292,130,63,190,605,87,57
168,292,108,59,182,646,83,61
176,296,118,64,187,644,78,66
201,309,125,63,183,625,74,66
212,368,124,62,185,621,81,78
203,412,132,55,186,632,72,83
186,400,130,68,196,628,73,75
177,424,135,61,190,592,81,71
137,416,135,69,190,638,97,91
156,379,156,81,189,626,96,95
165,353,140,82,180,695,96,91
163,380,142,79,186,674,102,95
170,374,134,81,203,700,103,95
163,403,130,79,214,675,92,77
201,408,112,81,230,718,79,59
202,416,119,82,219,656,87,58
205,439,117,81,235,724,92,61
203,422,133,80,218,740,88,72
219,400,143,79,210,806,100,75
172,445,137,68,204,804,101,77
165,485,140,77,229,927,98,79
199,483,153,82,218,910,91,73
211,488,136,84,236,929,96,68
196,506,139,86,243,873,85,65
177,496,152,87,246,903,85,71
245,462,151,82,239,767,102,86
225,442,137,81,250,728,112,87
224,475,147,102,293,655,120,83
302,504,153,122,395,741,122,84
308,495,140,125,399,671,127,87
297,504,167,134,398,680,121,74
297,493,166,137,403,661,119,77
290,488,173,126,359,720,107,80
223,418,158,112,271,643,102,87
218,398,172,108,250,631,98,85
193,357,141,95,245,585,86,88
220,370,152,89,249,575,80,85
235,368,151,86,297,671,93,98
238,437,148,77,272,744,99,91
241,435,181,134,485,988,124,92
263,461,201,154,549,1067,170,89
240,513,197,155,535,1086,180,98
229,496,197,151,514,983,173,81
212,431,198,158,537,886,182,82
236,448,165,116,381,571,172,76
214,472,150,91,279,474,132,73
226,406,144,87,298,481,136,70
228,412,134,92,296,561,142,81
231,438,137,78,245,575,127,95
201,443,119,71,206,637,117,96
193,412,116,90,322,685,124,97
174,434,115,92,306,680,102,102
159,427,108,90,319,656,93,95
158,431,110,89,326,681,91,88
155,396,113,90,341,648,99,87
135,476,106,72,232,639,84,88
142,482,126,77,229,628,81,90
147,481,128,79,200,610,78,86
162,471,122,83,259,600,98,85
167,473,117,92,247,607,92,88
185,450,160,109,258,602,101,110
178,438,154,109,258,591,103,103
189,444,161,106,260,583,108,104
173,473,167,109,202,588,93,99
171,497,170,105,207,575,90,97
132,440,129,87,194,515,85,75
121,454,128,84,229,542,89,68
102,486,140,114,359,554,86,67
120,447,147,115,354,536,90,65
142,412,149,120,373,521,92,62
160,380,158,118,390,462,91,65
163,325,148,116,382,375,101,79
159,209,147,102,326,290,97,84
148,401,138,108,351,433,95,86
152,524,147,104,323,559,87,85
136,537,133,110,315,572,85,79
138,580,165,116,298,934,85,94
152,735,146,114,377,1115,96,94
154,694,149,104,358,1088,94,94
124,630,160,103,365,1046,95,94
118,632,165,102,360,1055,110,105
139,629,137,104,400,838,111,89
127,473,137,90,274,641,108,86
116,413,131,87,284,613,107,82
119,422,110,91,280,632,112,84
163,427,103,79,273,675,105,80
141,426,104,62,211,647,91,74
152,434,103,66,222,632,103,77
181,483,100,65,200,663,103,79
188,448,95,58,190,651,98,80
150,466,103,55,187,632,91,81
149,428,97,58,194,561,91,88
138,458,107,53,163,626,76,85
140,404,111,62,202,641,83,88
162,420,109,61,199,643,85,85
171,418,118,72,203,634,92,87
174,426,119,72,204,659,101,78
185,388,128,81,230,609,101,81
168,440,144,83,220,620,112,86
135,440,149,82,228,675,109,85
128,424,145,81,231,677,107,78
125,429,146,80,218,669,93,77
143,411,137,76,204,651,98,75
134,381,125,71,187,641,79,66
138,389,139,73,179,627,82,75
149,393,142,68,164,613,74,68
181,412,146,68,176,604,80,70
150,500,149,66,153,664,71,72
169,483,144,67,156,623,90,82
170,473,122,67,159,573,88,74
169,491,115,73,206,591,97,72
135,469,118,74,201,625,96,68
147,444,103,79,220,575,92,62
157,473,107,86,224,584,92,57
177,510,109,83,231,588,99,59
201,527,125,82,208,614,114,97
204,547,124,96,213,593,117,105
218,511,129,96,224,651,117,108
208,477,134,91,252,646,111,106
191,458,141,99,269,634,110,112
195,458,135,99,279,622,90,85
193,461,126,84,289,650,87,76
183,444,164,95,282,636,92,79
189,446,151,92,257,612,88,84
206,442,144,94,249,640,84,76
185,429,156,101,229,623,75,72
187,395,159,105,223,612,76,68
186,427,142,100,221,590,85,76
164,446,149,101,233,588,112,72
139,449,151,96,224,603,119,79
122,434,148,84,225,628,127,82
123,457,149,77,215,625,128,82
125,457,140,65,216,594,127,77
131,441,160,71,192,650,101,76
202,431,165,67,213,669,100,78
206,404,158,66,225,614,93,79
205,412,155,71,231,614,91,85
196,475,151,81,225,686,77,80
186,485,130,75,225,644,80,83
108,485,134,76,201,620,82,91
96,495,129,97,205,652,87,96
107,490,137,94,205,676,92,90
102,404,131,89,212,581,101,92
121,403,120,93,234,638,105,95
154,381,107,95,244,581,109,82
157,363,123,79,235,548,109,74
151,335,135,84,229,508,105,76
174,349,135,87,225,516,103,86
176,373,137,78,202,493,93,81
149,407,149,78,188,563,80,77
168,434,132,75,180,651,71,72
185,455,126,79,198,664,73,89
179,474,122,74,184,703,74,80
172,441,129,83,193,674,79,82
170,441,149,90,202,641,77,81
176,448,150,90,208,598,79,83
177,455,141,84,190,597,83,66
201,503,145,91,220,631,77,68
213,535,160,97,225,631,94,64
230,524,144,94,233,645,94,76
217,525,148,99,241,616,103,80
206,503,149,98,255,591,100,79
169,520,159,105,233,592,103,88
153,509,145,100,226,590,96,95
135,544,137,96,211,580,105,94
161,521,142,92,204,570,91,89
159,541,137,96,218,574,93,90
158,501,122,86,232,525,89,85
171,524,119,87,229,543,92,98
165,490,116,87,220,538,78,95
129,496,98,89,240,537,89,96
121,471,105,88,255,572,94,101
161,435,110,91,246,550,92,107
156,447,113,88,259,605,83,90
163,470,106,84,264,669,91,88
160,460,128,81,240,700,80,87
158,449,138,77,210,666,72,83
131,406,153,76,202,634,75,75
143,348,152,69,189,582,75,75
137,347,167,73,199,508,79,73
151,389,155,75,237,523,83,73
159,392,152,77,238,527,79,70
151,399,133,68,233,541,101,66
136,381,133,67,237,507,105,62
142,340,117,62,224,499,97,66
149,298,114,59,175,420,97,69
151,468,117,59,172,599,96,68
145,549,114,58,194,721,74,63
137,607,111,65,275,817,79,70
128,643,127,87,287,850,81,67
104,665,141,90,300,884,78,66
111,559,136,95,305,807,82,63
130,500,150,98,302,721,84,81
132,435,168,99,227,630,83,88
147,368,161,88,211,603,82,95
153,310,158,87,197,579,96,94
154,300,156,76,172,530,102,96
139,279,156,78,168,502,98,80
146,296,152,84,177,484,93,70
134,322,165,83,181,441,93,72
132,331,154,81,175,520,83,76
121,326,164,91,198,519,76,76
139,314,156,97,197,549,81,87
127,314,138,91,183,592,75,90
218,290,123,91,197,633,79,87
233,306,131,95,246,580,86,86
271,316,128,89,240,603,92,88
267,332,143,89,246,597,86,78
266,300,144,83,250,573,90,69
212,327,141,76,245,545,94,67
188,320,157,71,200,523,85,64
137,366,172,70,186,498,79,61
156,359,158,56,181,489,79,61
182,377,162,73,208,465,75,65
170,354,177,71,197,453,85,74
177,356,164,70,196,472,85,73
178,314,157,78,197,471,83,75
191,309,157,84,192,465,83,78
191,301,184,84,202,487,97,80
195,304,168,83,214,496,79,78
193,315,177,88,212,500,81,87
195,355,165,83,215,513,82,85
186,373,171,80,211,515,82,84
170,369,133,66,178,502,80,106
173,389,133,76,184,532,87,100
179,386,148,70,182,509,88,99
185,368,149,70,175,493,87,99
187,368,168,76,186,487,89,97
178,366,181,76,169,482,81,72
187,350,182,68,142,441,77,78
183,349,154,71,159,455,76,83
210,317,152,70,178,455,88,85
191,292,147,65,173,452,90,84
210,271,144,63,177,480,85,76
194,261,146,69,176,510,81,72
193,256,146,64,187,511,76,64
188,301,148,67,168,557,60,67
194,347,128,61,158,560,69,70
177,360,119,61,150,547,70,71
182,376,117,67,182,559,70,66
174,377,121,71,170,567,87,66
126,361,128,73,173,542,87,62
181,358,135,73,179,567,77,67
183,364,134,72,182,571,99,68
176,356,129,61,152,533,100,78
178,351,154,74,196,527,96,73
172,341,145,67,193,503,96,69
105,296,132,66,187,468,93,61
101,309,129,70,191,486,71,62
100,310,125,74,223,510,66,47
119,370,150,72,191,550,58,65
142,384,147,75,204,560,81,69
144,379,146,76,202,578,84,72
139,350,147,72,193,556,83,70
139,381,155,68,155,539,83,73
132,336,113,58,137,523,80,66
104,327,114,56,120,531,71,66
125,345,125,53,118,533,82,76
122,385,135,54,136,546,80,74
141,359,148,55,146,544,83,74
139,330,149,57,138,528,84,82
145,325,160,56,151,528,90,108
114,331,162,79,179,525,83,100
130,338,167,86,191,549,82,99
118,332,151,99,209,586,83,102
116,365,154,103,223,575,94,92
126,389,142,101,228,582,98,73
140,395,142,86,213,595,98,93
156,372,145,79,203,550,98,96
153,392,154,60,181,522,98,94
161,376,137,48,178,541,96,95
153,363,135,48,160,534,109,97
164,363,127,44,168,532,108,82
135,365,107,43,159,548,120,79
148,346,93,49,165,540,124,81
155,342,100,46,153,512,124,106
156,320,98,56,163,504,114,104
142,311,115,63,164,477,115,105
158,338,114,71,176,491,116,105
151,379,150,71,171,507,112,106
136,378,159,73,177,518,108,88
140,393,169,66,177,504,102,83
136,383,173,62,165,519,98,80
116,360,199,57,161,492,86,83
112,353,178,62,170,495,86,82
142,380,167,61,169,491,85,80
138,389,169,68,164,491,75,84
136,402,154,68,172,485,75,83
213,425,135,82,207,512,71,84
218,404,134,80,199,493,78,80
199,380,133,80,206,503,78,73
202,386,144,78,241,589,84,82
214,390,168,79,236,604,81,86
160,404,159,63,218,599,86,81
209,383,153,63,223,593,84,91
204,383,171,73,220,558,83,87
213,343,154,79,191,445,78,66
210,312,128,87,230,387,78,62
198,228,128,88,232,361,89,73
166,231,134,88,236,337,89,73
200,227,125,85,238,373,95,77
186,283,126,77,231,420,94,83
186,320,142,73,210,429,101,88
194,330,136,83,213,412,98,83
176,330,131,83,209,436,97,85
161,329,123,82,196,417,92,86
176,310,118,79,196,394,90,82
174,303,100,71,176,387,81,75
171,309,110,69,167,381,71,71
168,310,122,78,169,360,72,90
151,301,147,74,175,371,66,89
143,291,154,79,171,350,67,92
155,266,153,85,170,350,75,94
140,240,152,85,183,367,83,93
174,263,152,75,211,367,100,73
185,272,125,87,268,383,114,84
209,302,126,102,350,448,120,81
196,333,125,108,357,457,117,79
265,360,134,120,409,465,114,81
269,344,131,132,399,461,99,72
323,385,152,167,441,435,86,64
306,424,157,180,418,362,94,64
316,419,160,190,423,346,145,88
280,425,149,184,363,331,152,91
274,435,163,194,491,378,183,110
208,397,148,169,441,413,192,112
210,374,145,150,445,455,200,110
218,358,161,135,439,495,180,104
232,348,160,131,454,569,178,102
220,360,150,140,360,547,158,88
219,358,145,134,386,539,165,86
227,309,132,128,375,513,157,91
205,313,103,147,413,478,160,83
215,298,103,150,409,376,159,82
232,260,88,123,365,381,148,74
228,253,89,120,322,386,130,81
223,262,92,127,291,402,137,95
233,278,130,106,232,426,125,95
227,328,144,111,207,439,126,102
198,340,148,110,195,431,127,99
206,346,158,130,227,404,133,96
199,335,166,145,257,395,119,81
203,360,158,150,258,358,115,77
187,320,143,148,281,337,106,68
201,329,147,150,316,333,101,74
197,336,136,147,318,329,126,69
216,340,128,169,415,328,133,79
200,318,106,186,452,342,139,81
183,327,121,188,441,352,139,78
175,312,116,183,417,365,149,81
187,312,120,176,402,394,139,87
173,312,124,146,299,402,135,86
176,291,130,118,243,437,138,90
217,280,122,112,261,467,143,101
214,268,113,120,309,464,138,97
200,290,117,131,319,465,138,123
193,309,115,132,313,472,134,116
218,357,107,130,328,435,122,118
171,355,107,148,371,402,121,114
183,357,105,147,350,398,122,117
185,325,93,144,344,371,110,84
196,329,100,130,319,358,106,83
201,285,99,133,330,379,113,85
195,278,95,111,282,389,109,80
210,278,103,117,264,407,102,78
205,317,131,106,249,434,97,92
201,287,120,116,268,426,109,96
158,271,129,123,291,424,104,99
187,293,142,131,281,437,105,100
191,290,144,120,284,414,106,103
220,279,127,124,291,421,115,99
223,311,129,121,277,439,108,108
229,323,127,109,199,448,102,96
211,309,113,111,209,469,105,96
201,304,132,112,211,506,115,92
178,294,151,113,215,507,104,96
193,269,156,107,221,515,99,83
193,331,175,102,233,540,104,93
202,348,196,95,228,518,102,92
181,371,194,111,274,520,102,96
190,374,178,110,280,528,121,78
181,376,174,123,291,510,131,85
188,319,164,123,301,480,129,80
185,299,139,117,311,474,132,87
202,271,125,107,258,440,120,80
181,253,127,138,324,413,105,85
196,255,137,131,317,434,99,78
186,249,138,149,334,452,114,81
185,286,136,163,353,470,116,87
199,327,141,166,375,489,133,92
199,319,129,140,320,507,128,86
176,322,128,140,354,508,128,85
183,353,157,151,396,512,130,89
212,323,158,148,396,504,132,82
189,326,154,139,382,497,123,81
214,369,157,135,379,476,125,99
220,355,147,136,355,456,120,99
229,333,151,106,320,441,116,104
206,355,160,118,341,478,120,97
201,399,173,117,365,534,111,100
190,386,200,121,386,565,127,85
189,413,205,117,377,612,127,82
222,413,181,114,360,646,123,85
214,388,178,80,310,629,124,90
213,322,160,83,277,569,125,87
203,315,125,87,255,549,107,90
221,312,130,91,260,499,112,91
174,316,134,92,251,442,120,77
169,339,138,106,236,433,107,74
214,350,140,106,239,452,114,76
211,330,149,99,209,463,124,77
184,346,153,95,207,490,130,82
179,318,150,132,292,508,121,77
183,391,151,152,360,551,124,77
134,378,152,195,447,559,125,74
132,429,170,211,527,572,122,75
131,389,165,223,545,562,118,79
158,400,154,210,499,545,111,84
180,321,158,203,464,511,124,88
173,304,165,176,421,497,124,95
171,268,141,154,330,533,119,100
173,278,142,146,299,526,119,100
168,286,140,139,312,528,120,96
176,274,129,117,302,503,119,94
178,317,126,94,232,512,125,93
179,301,138,92,205,454,127,87
185,322,138,76,214,480,144,79
171,304,148,103,306,497,144,79
182,320,152,139,356,512,137,77
187,298,150,145,370,499,124,68
191,296,138,143,372,516,133,77
211,297,130,144,361,499,111,82
207,321,119,129,268,471,112,86
169,300,102,122,242,488,106,84
158,287,100,142,317,484,105,83
166,298,92,142,330,463,91,69
147,296,109,147,346,451,108,70
161,308,116,144,348,548,117,64
165,323,117,115,312,530,114,65
167,340,114,79,219,560,126,66
175,333,119,86,218,550,126,75
178,338,141,82,214,561,120,75
175,316,142,82,235,507,106,73
172,313,144,90,244,501,131,90
186,340,141,102,251,531,125,91
194,346,150,108,271,553,120,90
187,353,125,130,301,538,115,97
179,383,135,156,336,525,119,106
197,416,136,158,344,545,99,92
186,394,134,152,345,503,112,99
168,398,126,150,327,498,113,92
164,376,119,132,282,513,111,85
158,370,99,95,215,546,114,80
159,382,101,93,197,555,113,86
163,421,133,96,201,543,97,81
161,406,135,98,203,518,95,81
161,450,153,106,218,553,109,80
169,453,159,148,313,519,115,81
142,427,165,159,344,479,123,82
140,378,159,164,381,466,124,74
190,396,163,169,409,471,128,74
183,374,184,166,428,418,122,71
178,360,184,147,393,462,133,98
173,345,186,161,457,481,121,92
187,373,186,199,499,493,118,97
159,366,194,197,495,502,117,98
170,367,160,196,484,495,114,100
180,340,154,184,458,434,133,91
195,341,145,168,381,417,143,92
176,320,150,185,364,414,156,92
170,298,141,203,435,392,161,92
169,249,143,251,478,384,178,93
164,270,157,262,505,380,145,74
155,257,162,255,502,374,139,73
176,265,144,210,449,375,140,72
163,276,134,202,388,380,143,74
171,312,140,169,389,388,142,72
170,309,137,190,416,412,147,77
167,304,129,200,429,446,160,73
187,327,131,227,521,450,178,82
182,331,131,253,575,474,193,88
187,326,127,258,576,493,178,90
203,319,131,350,646,493,184,87
229,365,152,419,798,486,180,97
197,361,158,414,766,507,175,95
207,380,173,402,728,505,168,91
184,388,188,401,698,506,166,91
177,382,176,314,651,509,165,94
145,376,177,251,514,508,165,86
154,339,171,248,493,473,141,80
151,319,159,245,505,444,141,109
169,326,149,245,519,423,146,108
157,322,149,232,479,394,150,111
162,298,142,190,411,386,164,115
170,324,140,172,389,417,166,116
167,348,155,156,344,442,159,96
150,329,156,185,414,438,178,98
145,337,155,220,441,471,179,94
138,329,148,235,456,485,164,93
135,376,154,288,510,496,168,115
129,378,136,304,584,523,154,109
126,374,137,301,573,521,130,117
158,386,139,294,563,508,129,135
173,396,147,292,540,521,145,137
173,375,163,249,510,503,157,119
174,385,170,232,449,476,172,122
170,383,180,215,434,522,177,117
166,400,178,207,480,509,191,99
154,381,164,202,503,494,168,94
171,358,158,211,526,502,152,88
165,368,155,206,524,547,139,87
184,384,130,180,492,531,162,99
167,376,136,168,511,551,144,97
157,390,162,203,560,534,152,97
124,417,168,223,685,526,152,107
121,398,170,230,668,499,154,105
108,372,171,225,669,472,132,109
103,344,166,225,725,453,134,125
132,370,148,197,719,503,133,131
134,326,131,199,877,478,145,132
137,302,141,224,970,449,149,139
154,315,143,244,1019,466,146,133
195,326,141,269,991,486,140,126
183,317,135,282,985,458,142,122
187,320,144,263,767,497,135,115
194,313,128,248,687,522,136,104
183,319,123,228,634,529,152,112
147,341,127,211,604,519,152,107
154,350,133,183,616,716,154,107
149,398,143,216,618,866,162,111
136,422,140,216,1039,930,171,116
127,425,151,258,1243,936,167,119
115,415,149,254,1392,926,164,117
110,403,157,262,1401,757,158,112
107,373,165,244,1376,533,143,108
111,372,171,238,1063,333,136,113
104,375,164,206,783,221,130,107
114,386,171,199,357,158,137,104
100,381,155,189,124,118,140,107
95,381,129,180,63,92,151,107
92,359,144,215,40,230,169,134
93,336,147,214,29,359,160,124
80,314,142,217,27,503,151,125
76,304,154,252,510,601,153,124
84,287,167,286,537,720,175,131
81,276,164,281,666,729,166,104
85,293,164,301,746,697,180,107
89,334,172,303,784,654,182,103
94,326,176,269,642,630,181,107
89,340,161,224,646,561,167,102
86,340,162,209,600,608,154,104
147,329,159,164,552,658,137,100
165,283,150,157,582,692,143,96
162,325,180,173,614,666,141,92
163,303,172,168,626,640,155,101
168,302,152,144,633,577,158,95
126,321,154,179,670,510,180,113
104,386,150,175,627,453,172,114
110,379,101,158,617,508,175,112
107,387,105,186,626,652,162,108
102,398,113,201,732,715,166,109
100,381,112,179,734,747,144,105
91,318,128,204,772,780,143,107
85,270,129,232,753,772,176,112
85,289,144,215,770,658,185,121
81,271,139,213,615,581,167,115
73,274,141,229,611,572,163,97
75,292,137,208,561,570,176,101
75,321,129,179,530,563,143,106
79,331,114,173,531,658,114,85
82,359,120,178,549,668,118,91
114,381,115,153,498,639,122,88
132,390,117,170,501,582,131,91
138,386,114,165,505,566,157,88
135,362,114,176,485,470,157,86
135,336,114,195,480,461,161,78
108,311,108,209,586,489,170,84
84,287,92,198,590,513,174,101
77,270,108,208,603,515,154,107
76,271,139,211,635,488,151,106
75,290,153,223,706,509,147,105
65,292,153,212,744,508,139,102
72,277,161,214,868,511,124,114
67,288,154,203,873,551,121,111
77,306,140,215,873,600,143,114
76,307,126,187,896,599,149,121
79,348,138,189,796,617,150,152
71,359,131,175,649,603,148,147
73,362,146,194,739,558,151,153
67,335,131,187,791,510,140,173
68,348,145,198,695,487,140,238
72,346,150,203,756,438,155,318
75,386,159,235,815,515,150,371
70,440,143,233,815,553,156,383
74,487,146,217,746,624,149,464
77,490,136,212,802,685,152,667
77,458,116,213,746,683,132,668
81,418,114,190,749,684,135,731
82,388,160,177,1059,712,121,803
80,358,169,175,1206,683,119,768
72,353,164,151,1356,636,116,599
81,375,164,135,1472,643,144,590
72,381,159,121,1465,683,135,562
82,364,129,111,1204,674,136,513
81,340,114,111,1032,662,134,497
109,315,126,113,777,684,148,475
100,316,136,111,545,735,142,437
103,321,132,113,451,675,151,331
107,334,139,118,489,660,148,219
104,323,138,114,496,695,150,226
77,327,130,108,499,697,153,236
76,304,133,123,462,678,159,219
79,326,145,141,519,677,152,183
68,285,138,151,459,668,155,159
74,309,158,158,444,644,156,134
74,297,154,160,510,642,149,109
71,297,146,144,500,656,150,101
67,308,139,125,474,665,155,97
65,337,135,120,526,683,160,88
63,393,124,116,550,764,178,88
79,439,128,125,475,842,170,90
87,451,126,123,490,901,148,84
85,418,127,127,496,932,147,92
82,417,139,148,601,944,147,91
79,375,129,153,626,889,130,89
66,342,134,171,686,813,132,78
54,317,135,182,727,756,150,88
51,335,136,185,763,705,147,78
52,300,113,162,732,697,150,82
66,345,121,164,760,714,171,97
72,322,109,160,729,753,160,94
73,345,109,155,688,762,146,83
75,349,101,149,703,821,157,86
76,379,101,165,759,837,155,88
63,311,85,154,747,827,125,82
48,319,94,134,753,813,132,78
48,302,91,131,794,817,130,79
53,290,97,131,800,770,144,92
53,250,103,111,711,739,133,97
56,271,120,119,730,719,149,101
58,276,126,106,819,709,147,99
56,271,129,121,861,663,145,98
69,257,129,128,831,645,126,89
70,320,122,124,846,665,138,91
79,323,114,122,818,677,122,77
81,332,109,135,709,681,128,79
88,344,106,120,590,700,127,82
88,349,99,111,537,690,133,88
93,320,110,136,467,722,120,80
87,306,115,136,403,697,138,84
97,304,105,126,393,652,139,96
90,308,113,128,408,640,142,97
80,297,116,141,521,633,135,92
70,275,109,122,539,530,147,94
67,269,93,119,582,560,145,95
51,263,102,132,592,612,137,82
57,256,113,167,580,623,137,88
57,264,121,162,494,658,149,89
65,313,122,160,494,710,165,88
69,314,119,161,497,709,157,92
72,310,119,153,487,699,168,98
69,300,97,113,527,690,172,95
68,299,89,112,538,655,182,98
63,272,121,125,583,606,175,101
60,275,130,131,535,576,178,93
52,285,141,138,565,632,175,84
55,301,163,163,638,687,176,82
55,312,159,162,652,719,151,74
53,296,137,163,599,731,154,81
58,291,146,179,683,769,155,84
64,287,146,179,691,743,152,87
64,280,129,161,596,695,142,85
64,279,135,156,668,708,143,87
68,288,136,155,721,717,130,74
66,319,149,132,752,719,126,75
62,301,138,123,791,701,121,76
72,293,138,113,866,699,153,97
71,288,132,113,787,691,158,97
67,283,144,110,726,695,153,92
65,262,124,113,635,679,147,92
75,300,127,136,567,700,152,93
78,302,123,141,472,705,129,91
77,305,138,177,533,697,127,88
76,297,135,172,580,708,157,88
78,279,129,171,628,714,161,84
79,265,134,154,599,682,174,91
69,276,137,150,588,674,205,77
77,283,134,109,574,675,249,82
80,285,126,105,544,660,273,85
88,295,127,130,523,652,296,87
80,281,131,138,532,666,291,94
79,265,124,142,527,698,268,99
100,257,127,185,572,713,222,100
131,282,135,198,721,723,177,98
135,281,130,181,771,729,144,108
140,312,114,185,809,712,156,100
138,345,132,216,827,691,167,93
121,336,132,207,789,651,177,88
133,328,128,213,704,611,189,97
132,329,156,235,686,588,189,97
132,312,184,288,656,557,174,103
134,280,182,271,636,512,168,103
147,283,188,311,724,488,161,101
107,307,202,330,731,479,159,94
107,290,184,318,705,467,195,110
108,262,164,275,769,494,207,123
105,292,163,286,780,521,208,122
83,304,152,230,665,550,212,124
90,339,140,248,768,573,200,131
85,375,150,284,815,646,156,114
78,431,166,296,781,677,143,86
82,599,156,289,894,861,152,95
102,714,203,347,1142,1264,192,112
102,801,215,342,1324,1570,204,110
111,874,234,343,1357,1641,206,109
111,866,233,347,1417,1644,213,117
112,758,236,357,1365,1569,213,114
108,662,216,336,1201,1297,172,95
111,568,239,369,980,914,167,92
97,460,238,404,936,720,177,91
97,456,239,436,853,709,169,85
116,456,265,485,917,701,170,89
130,453,285,539,940,636,185,103
124,426,288,533,834,611,190,101
123,388,273,513,785,622,176,98
130,362,259,483,717,601,182,96
124,375,257,483,645,572,171,127
101,360,219,415,627,602,169,117
95,305,175,366,637,612,158,115
132,324,175,353,634,598,174,116
128,350,180,355,701,621,164,119
119,328,149,279,716,642,167,92
123,334,150,247,688,605,182,121
133,457,184,323,781,601,177,127
100,642,180,311,873,862,165,129
102,658,183,291,867,856,164,125
113,732,199,287,820,844,171,116
110,770,215,300,787,855,149,88
107,727,186,234,668,850,140,81
106,577,209,270,461,552,163,78
120,562,232,277,346,469,170,83
105,447,221,286,267,397,162,86
109,356,210,277,218,303,182,94
115,293,217,285,171,189,194,107
117,495,209,277,525,435,178,110
106,534,185,291,621,641,168,108
112,592,185,297,704,737,171,102
113,613,171,303,762,792,139,100
106,642,152,279,829,870,135,90
100,502,135,237,750,809,146,87
100,464,133,226,731,717,154,90
98,390,127,197,750,685,144,102
93,378,128,186,818,664,145,97
86,341,128,186,808,596,135,92
99,319,126,187,822,612,136,93
91,275,114,179,852,578,127,87
90,324,121,181,836,578,138,80
90,311,119,162,779,623,137,79
91,305,123,165,810,654,141,80
84,402,116,172,746,605,127,76
82,636,112,173,879,849,157,86
91,647,135,214,848,827,168,86
92,670,173,299,805,802,195,91
100,683,223,402,729,782,222,100
105,634,227,407,704,786,230,111
121,403,243,399,384,491,236,108
121,341,237,380,308,513,233,106
122,281,258,346,298,590,227,108
120,244,236,216,403,912,213,102
112,232,239,196,578,1268,225,89
113,334,228,219,758,1501,198,89
107,439,217,231,885,1533,200,101
103,615,167,195,959,1551,187,94
123,689,147,204,986,1395,192,98
138,701,134,222,913,1116,177,103
133,665,127,211,811,827,187,103
132,603,127,198,774,782,210,121
134,465,121,232,778,699,229,125
114,353,123,273,725,708,216,121
102,400,130,281,773,757,206,120
93,429,150,289,792,777,200,117
93,429,158,312,744,752,158,86
90,393,169,284,667,725,139,87
97,397,178,280,697,692,132,83
92,311,175,271,644,614,134,83
90,237,172,258,615,544,145,81
90,247,172,224,575,540,171,88
102,236,175,244,572,515,170,82
93,225,164,209,554,525,167,83
91,287,181,248,623,508,170,83
88,291,169,242,579,502,177,91
87,381,163,251,644,604,153,87
73,560,155,241,654,958,147,90
77,576,162,230,712,974,163,96
76,641,150,174,620,964,173,95
97,682,173,177,674,964,158,93
145,657,176,174,656,888,170,97
142,600,173,158,625,643,162,91
174,690,163,144,527,718,155,85
346,668,167,154,648,829,148,95
355,643,144,147,617,847,153,96
346,623,137,134,564,883,152,96
403,616,127,133,569,827,152,97
444,618,129,142,539,945,160,102
476,609,117,117,390,896,214,102
489,595,116,111,371,902,213,100
493,595,114,100,349,901,203,96
463,561,129,96,328,894,211,97
415,426,137,81,325,676,204,89
240,346,130,106,327,596,180,104
217,387,134,115,293,589,172,102
196,623,136,130,360,836,180,101
160,654,131,145,423,1045,184,100
162,661,111,146,402,1133,187,105
160,692,113,129,405,1174,145,85
121,683,121,121,437,1208,145,84
122,488,120,114,437,1122,155,83
120,405,109,106,373,952,156,86
97,399,108,104,397,873,153,87
84,359,113,103,401,846,155,79
84,377,91,109,373,883,156,93
77,457,81,116,351,892,158,95
75,503,82,105,345,867,155,95
79,566,88,110,325,931,160,91
85,591,75,107,304,963,160,97
82,646,80,108,299,911,160,82
91,606,91,97,240,912,167,84
87,586,96,107,272,976,167,88
89,552,91,109,272,931,158,90
86,526,95,110,263,951,165,88
81,442,100,103,260,931,167,99
75,420,126,94,271,864,144,95
74,410,127,86,232,813,132,87
74,397,127,75,248,789,175,87
64,428,129,76,272,753,170,81
81,398,132,76,277,835,191,92
103,424,109,70,265,857,193,96
121,415,102,74,262,840,195,97
119,394,108,120,258,874,169,97
124,375,118,127,286,875,190,109
121,384,120,133,319,780,167,120
112,370,124,136,309,753,177,127
99,360,126,131,314,790,180,131
97,360,120,93,293,751,170,140
97,443,112,80,240,860,175,137
91,470,100,66,175,851,175,120
99,460,82,72,194,858,178,112
102,476,89,72,189,859,187,110
104,478,93,95,238,872,201,110
107,398,94,98,255,772,192,118
107,385,94,105,261,854,200,113
90,392,92,120,330,860,195,116
81,380,83,127,364,846,185,119
86,376,79,122,375,822,174,114
93,351,69,118,372,799,168,106
105,365,73,118,393,806,167,110
111,368,89,102,323,823,157,107
127,360,91,91,275,809,172,107
129,364,100,71,212,845,174,108
136,373,101,75,216,855,186,101
128,342,128,98,177,880,180,94
135,342,124,102,200,871,178,94
128,326,124,104,203,869,175,103
137,349,123,107,219,876,172,101
133,357,122,110,219,933,162,117
170,398,101,92,228,903,169,122
175,417,111,82,217,870,178,127
173,430,119,92,225,884,163,119
167,429,117,86,213,871,181,113
156,413,122,84,242,783,173,97
111,386,113,79,240,755,180,105
85,395,99,92,257,793,181,104
76,390,92,88,276,753,182,99
65,374,96,87,300,753,157,95
71,422,94,90,302,734,166,98
73,394,100,94,313,661,160,109
79,328,99,77,293,562,154,110
82,316,114,83,323,528,187,114
93,278,136,91,343,419,199,122
116,161,146,95,344,535,210,122
122,176,165,102,388,886,223,103
129,206,178,109,419,1203,230,97
135,306,169,98,392,1485,210,93
152,386,149,112,374,1587,205,96
136,462,139,109,348,1541,193,92
141,495,114,97,287,1359,194,90
135,509,94,103,250,1068,178,93
153,475,98,116,385,592,176,136
150,427,105,102,391,161,185,132
155,355,108,100,385,132,195,135
154,319,114,102,375,99,202,140
153,295,116,91,379,73,220,143
131,276,112,80,269,60,211,106
120,493,116,84,295,529,235,108
114,654,116,86,309,800,223,107
125,736,106,80,319,906,208,125
125,758,99,80,312,988,196,124
136,783,96,77,279,1063,203,121
125,685,86,75,273,1036,197,130
123,541,98,74,266,924,197,131
104,421,104,83,264,921,180,107
114,375,110,101,290,907,178,114
115,364,114,103,279,867,182,115
123,358,113,97,225,779,154,118
124,380,98,91,216,758,145,115
124,402,104,83,214,694,148,114
109,410,104,60,171,663,157,107
95,360,104,77,260,657,156,111
76,365,105,82,267,663,161,107
82,504,119,89,263,782,162,105
101,546,119,93,291,859,158,111
113,583,112,93,310,939,175,122
121,614,117,78,270,981,170,131
120,591,138,100,286,974,166,117
144,471,124,105,304,854,161,120
164,426,120,102,290,842,184,129
168,490,132,102,272,858,188,131
164,523,141,97,246,888,183,122
166,573,129,78,256,953,190,126
160,576,138,66,247,970,202,122
126,564,142,73,231,932,184,108
119,475,132,69,236,836,148,93
138,399,116,73,266,786,192,89
145,331,105,80,262,729,174,96
125,302,98,84,268,759,166,111
141,282,91,81,271,737,179,110
149,274,95,92,297,733,194,115
136,298,99,95,311,712,166,124
148,310,106,91,306,682,172,125
157,316,102,90,317,637,179,120
161,331,99,90,335,643,178,122
157,331,93,85,326,663,173,121
179,311,97,83,305,644,166,113
168,279,95,74,296,658,165,108
163,283,91,69,291,691,162,107
157,268,86,67,275,704,151,107
147,257,84,67,278,695,147,115
135,258,71,63,273,711,146,125
128,266,70,60,275,714,159,121
124,246,69,59,250,679,172,121
119,257,98,61,261,673,183,122
125,250,105,78,249,653,186,106
121,258,108,82,246,629,175,93
123,270,111,88,234,602,168,96
120,264,115,93,247,589,166,107
113,271,114,99,254,550,151,101
115,249,115,83,248,552,175,103
101,258,126,81,226,557,182,104
107,259,128,91,226,568,192,111
112,268,136,92,223,616,185,97
105,239,135,92,187,635,193,98
99,303,138,93,184,647,168,99
92,296,130,92,201,650,165,98
83,324,125,81,205,670,171,84
92,312,114,89,212,642,161,97
95,328,95,82,218,623,150,103
95,302,83,80,199,615,158,108
89,303,72,78,194,597,163,102
92,288,68,71,189,615,153,107
84,296,81,52,178,622,154,136
83,312,130,53,190,667,190,140
79,304,133,57,218,668,185,133
89,317,138,66,213,678,201,139
82,302,148,65,200,674,188,135
84,330,146,74,225,668,189,106
91,320,118,70,203,657,151,106
112,324,120,66,181,678,156,113
106,296,117,65,206,703,128,104
110,303,117,68,220,681,138,113
107,293,117,61,185,700,157,103
105,291,115,61,182,697,165,95
90,291,125,61,185,691,156,89
93,314,123,58,153,705,155,112
88,304,108,56,138,720,148,106
85,289,109,58,133,713,164,105
82,288,97,55,121,703,178,118
75,271,102,93,142,672,174,116
72,251,110,96,145,629,177,101
71,245,113,96,142,601,192,114
100,242,115,95,168,561,180,125
97,250,119,96,180,538,157,115
107,263,116,67,169,550,164,111
138,278,112,61,171,538,158,107
140,283,114,61,182,527,167,96
167,311,119,63,166,552,157,87
172,294,134,66,175,538,158,81
166,277,120,61,167,528,152,92
144,274,134,58,175,577,152,92
163,299,131,58,169,589,165,95
118,281,119,56,186,587,166,94
114,297,104,57,176,627,167,94
130,317,112,75,190,638,173,92
126,316,97,78,185,611,175,93
101,281,99,78,182,629,141,86
96,281,101,78,156,606,121,77
93,275,103,73,155,560,117,78
81,270,97,53,126,557,118,69
83,253,99,49,129,532,129,75
81,251,121,54,121,510,134,80
84,238,117,58,127,532,136,94
87,230,109,62,132,535,147,91
83,254,114,63,135,525,145,93
101,255,122,64,132,551,170,92
107,266,97,62,160,534,174,96
107,274,101,58,167,522,182,96
130,274,108,57,161,544,178,101
153,268,105,60,172,542,180,107
152,263,106,55,165,532,153,113
160,304,107,53,161,543,136,120
169,295,124,54,151,557,127,117
159,311,126,61,153,555,122,118
139,315,150,65,147,562,156,114
132,322,138,67,146,568,159,116
123,296,143,180,137,565,155,102
124,297,130,226,139,543,158,99
122,266,123,234,144,517,155,94
119,233,96,235,150,502,116,94
121,237,99,235,154,516,112,83
126,232,93,166,150,545,122,82
117,270,100,96,146,554,137,82
112,284,98,64,139,577,136,84
110,282,98,53,128,581,133,88
120,313,102,55,140,567,136,88
131,383,114,53,149,618,132,85
124,367,111,48,164,652,114,88
123,381,117,48,168,641,114,91
129,389,121,43,169,640,112,92
124,363,113,42,160,619,108,91
100,278,103,43,146,531,99,90
106,257,97,41,137,476,100,86
129,254,105,45,143,488,173,89
119,258,105,55,143,490,173,89
107,274,110,56,140,506,168,87
123,284,113,53,165,499,178,88
145,314,118,60,164,506,181,84
139,319,110,57,151,506,144,95
148,327,105,56,162,491,146,99
166,309,102,56,197,484,158,111
160,305,111,59,181,515,156,114
158,294,105,56,197,497,153,116
150,264,104,58,208,479,122,102
143,246,99,52,206,482,149,99
122,261,110,47,173,483,143,88
113,259,94,42,168,454,137,85
96,230,88,39,144,470,146,82
131,252,83,35,160,491,159,86
135,260,89,38,171,515,155,101
148,235,75,41,166,552,163,96
160,234,75,48,171,570,166,97
154,251,98,51,183,609,161,97
128,247,97,50,161,587,147,101
137,246,100,66,157,557,160,99
127,272,102,66,167,521,148,100
117,274,112,65,164,485,152,102
118,259,98,62,153,423,166,104
112,238,106,63,152,448,178,99
95,236,94,47,143,454,148,81
106,239,97,49,143,442,154,89
102,238,88,49,148,472,151,87
109,254,96,51,148,475,134,95
108,256,104,52,156,466,116,91
110,234,111,51,141,519,111,83
89,245,113,47,135,536,114,72
97,240,114,44,123,505,111,82
92,258,109,40,122,520,119,74
88,311,107,36,107,532,121,76
81,342,102,46,115,530,141,80
90,328,96,45,114,551,149,83
84,343,100,44,126,594,143,74
83,330,102,44,119,635,139,74
81,318,96,49,118,685,150,81
89,300,105,39,125,662,163,86
86,297,105,39,126,654,148,84
80,283,97,39,110,663,157,79
79,277,91,41,120,611,157,82
80,242,89,40,123,531,153,74
73,234,86,47,126,538,137,66
70,225,93,51,130,510,133,72
77,213,100,54,135,465,123,73
71,210,107,55,129,488,112,66
65,203,103,55,125,503,111,68
67,209,95,57,121,536,98,75
64,214,97,53,111,542,96,68
71,234,93,57,139,591,100,80
71,231,83,58,134,624,104,80
74,225,86,59,145,658,97,76
74,218,94,53,137,646,82,70
71,229,91,52,139,669,91,70
66,255,89,47,119,644,87,59
74,263,92,52,144,595,101,68
72,265,101,47,138,544,129,72
69,258,92,53,150,517,132,69
70,273,111,63,171,491,143,70
87,257,120,64,185,491,147,76
91,256,122,59,187,536,157,75
95,258,111,63,192,571,151,76
101,299,113,57,203,627,156,80
112,285,98,51,198,636,149,86
104,287,92,49,182,658,145,78
94,310,110,47,166,677,124,71
90,318,118,44,156,663,109,68
88,300,116,48,135,659,118,79
74,315,114,41,129,689,117,80
58,316,117,48,119,711,121,80
66,310,111,51,125,749,125,80
68,314,118,49,122,809,118,81
73,324,117,47,129,816,127,75
80,305,110,48,114,840,132,67
89,285,106,44,118,830,129,71
84,275,107,44,122,791,123,72
88,291,120,46,133,753,137,74
85,258,123,52,123,716,117,75
78,255,126,53,140,663,102,73
73,256,131,55,152,652,112,72
74,256,125,52,140,633,125,81
72,234,106,49,141,625,136,89
73,247,112,42,142,654,142,88
82,255,109,42,126,674,149,88
90,257,99,38,121,672,171,99
87,245,96,38,129,731,167,94
85,240,104,41,122,757,151,87
87,256,105,38,124,756,150,85
77,245,110,47,132,762,146,85
76,234,113,48,138,751,131,80
90,279,136,58,152,712,136,78
92,307,142,57,166,685,134,74
86,313,138,60,274,661,128,82
108,317,146,53,303,638,146,87
104,339,155,56,308,655,126,84
94,321,133,47,305,644,133,95
96,301,115,53,299,641,130,96
120,286,114,50,200,655,131,96
107,280,101,52,159,675,120,94
113,283,110,55,146,652,123,93
134,289,116,61,140,647,109,93
154,308,130,63,148,678,107,90
144,321,128,65,164,669,124,89
164,318,132,69,156,643,129,87
165,306,118,63,153,626,135,93
203,313,142,58,171,614,128,84
188,327,141,53,173,638,130,83
201,302,148,51,164,693,135,92
186,329,147,44,159,732,124,101
182,340,146,43,180,807,124,97
161,350,118,45,166,844,135,103
165,322,104,43,159,817,139,102
155,333,103,45,166,756,121,93
153,337,109,44,201,743,124,96
168,323,115,50,196,693,117,96
130,296,121,50,192,643,108,93
143,285,142,48,205,602,112,97
133,300,142,46,212,585,111,94
159,300,136,53,206,552,103,83
154,290,138,48,210,533,108,104
156,284,138,58,297,559,114,98
155,289,118,66,341,584,110,100
167,298,118,80,355,633,109,101
172,318,132,79,340,662,120,105
187,343,134,79,366,662,154,91
186,340,135,74,342,659,165,93
185,339,138,75,296,694,164,91
180,307,132,68,275,650,164,88
157,308,128,63,283,628,159,88
145,280,119,62,264,615,150,88
147,288,120,60,203,586,136,90
143,285,115,50,190,527,136,90
137,283,123,42,189,547,129,90
135,224,111,43,209,565,129,91
120,263,109,46,180,582,113,102
120,241,93,44,188,605,124,99
126,254,100,41,190,619,123,96
121,267,89,39,194,639,122,97
121,284,92,44,166,610,129,99
126,267,92,48,163,585,120,75
134,299,98,49,177,565,109,86
131,282,85,54,200,535,128,94
155,280,84,59,221,502,137,106
152,293,87,58,231,513,131,105
147,282,85,55,221,541,129,113
150,249,80,53,223,580,162,125
138,249,78,52,214,600,177,121
130,244,81,51,180,620,187,121
133,225,75,50,170,624,183,122
124,242,87,54,192,607,195,148
121,294,91,53,187,589,172,133
117,308,92,49,173,579,157,134
96,317,101,48,212,592,141,125
89,299,97,45,227,556,148,124
92,296,89,39,232,569,134,84
82,258,87,38,237,543,121,84
87,249,89,39,242,525,102,85
87,258,81,42,221,500,101,92
107,278,82,41,213,528,115,90
123,308,86,41,211,608,118,91
128,329,99,50,232,663,125,88
127,331,104,51,229,688,129,88
126,337,110,50,222,679,126,89
108,327,116,55,242,697,115,81
103,296,120,61,228,623,129,111
88,268,109,62,200,583,120,108
108,311,109,60,213,565,116,107
134,299,103,57,221,585,120,109
142,318,112,57,204,561,118,126
148,309,107,53,210,559,90,106
154,311,114,48,215,536,101,108
143,267,129,54,205,530,97,106
124,266,133,53,198,509,100,102
142,273,123,50,183,528,93,84
125,296,120,45,172,574,94,74
120,322,120,44,168,589,89,77
118,323,107,38,160,589,92,88
125,314,103,42,172,592,85,90
97,295,100,40,193,569,99,89
95,283,100,46,252,524,104,88
95,252,97,47,256,526,103,86
90,256,96,47,258,538,99,70
77,250,98,43,248,540,115,71
81,253,97,45,267,579,132,80
83,268,93,44,220,578,146,84
80,279,91,47,200,558,144,81
88,289,90,52,203,566,148,83
83,304,92,53,199,562,166,80
88,306,109,51,167,509,143,70
87,312,112,48,157,525,128,68
87,299,111,45,150,523,136,71
81,275,110,37,147,492,134,73
78,263,125,41,159,495,93,63
67,259,111,43,132,510,90,62
71,224,115,41,137,483,84,71
74,229,131,45,147,516,116,76
96,263,134,52,151,529,117,74
119,274,123,52,158,508,116,73
127,308,123,51,168,518,115,72
125,302,117,53,166,526,112,66
127,311,105,47,171,524,73,62
132,300,96,42,164,542,72,61
119,315,97,40,147,568,84,72
108,275,96,40,157,572,89,71
117,309,102,46,156,582,90,64
117,305,104,46,140,557,87,59
108,296,114,46,219,570,124,73
118,264,108,44,231,545,120,68
121,263,114,51,232,522,123,69
127,231,124,49,235,501,128,75
140,238,121,50,247,513,126,77
146,231,113,53,192,469,90,63
144,237,112,57,172,470,86,66
214,274,116,59,177,477,82,68
282,391,105,62,226,517,76,60
288,623,108,131,417,729,91,68
284,666,124,150,565,896,94,68
280,700,120,149,568,951,93,69
249,707,117,148,562,984,88,70
166,694,117,151,568,1006,94,76
143,525,120,98,456,899,97,71
141,473,105,67,258,750,91,71
147,433,112,74,264,683,89,65
113,397,103,78,267,631,88,61
140,319,109,70,215,557,96,61
152,261,111,71,189,505,77,65
149,288,129,71,205,493,98,73
138,275,125,73,198,483,97,70
150,296,128,64,224,487,97,71
123,296,133,63,243,501,82,64
140,300,137,66,278,548,91,66
142,285,128,67,297,581,83,79
143,337,126,57,296,657,87,80
135,335,134,61,301,695,89,79
129,360,125,62,297,701,93,82
117,429,112,61,317,716,93,80
128,572,107,55,288,877,97,64
134,599,110,55,329,1025,110,62
125,622,106,55,321,1083,114,70
138,656,114,61,353,1104,114,72
125,657,116,63,322,1134,111,68
144,581,115,70,328,1034,106,67
140,559,120,72,310,856,90,71
144,544,119,75,345,773,89,66
173,529,127,74,368,784,100,68
170,621,127,70,471,865,124,68
140,625,120,69,477,917,133,67
161,638,112,64,471,958,137,67
161,646,115,67,444,933,144,79
119,624,96,72,416,924,145,84
119,520,97,77,322,811,133,87
132,466,126,80,323,771,117,89
115,414,142,84,338,712,121,90
111,397,143,80,359,798,137,81
111,389,146,73,342,808,137,74
114,355,150,71,308,784,133,76
110,397,129,67,286,721,137,78
101,418,112,64,279,711,132,76
107,488,102,60,242,702,107,72
110,501,151,67,281,716,105,73
112,502,144,64,308,741,108,69
110,484,148,84,349,705,111,71
110,452,144,84,351,763,121,76
102,457,148,83,376,778,119,75
93,457,106,83,342,749,123,81
99,492,107,84,321,699,116,81
104,503,100,76,309,840,142,91
115,517,113,100,371,840,143,88
120,440,109,108,382,770,146,86
121,425,95,115,456,768,139,79
115,353,119,131,466,745,139,82
117,371,134,125,448,755,107,65
105,407,133,108,386,749,120,67
117,391,170,108,400,787,112,71
133,418,173,101,313,811,118,71
155,522,184,77,311,904,128,69
159,490,178,78,317,791,137,94
166,467,187,97,396,807,129,104
174,509,209,89,394,772,137,107
182,522,215,81,402,757,144,108
194,457,205,81,383,688,136,110
189,484,226,80,375,737,145,98
190,510,225,50,278,718,139,99
189,484,205,44,207,714,146,99
177,469,225,47,196,675,133,102
168,471,234,53,278,756,146,100
170,460,218,50,273,761,134,90
163,431,218,61,284,753,131,77
161,451,201,65,286,789,121,74
165,422,184,66,292,832,122,71
160,381,170,63,255,806,113,66
170,381,164,72,273,780,128,72
174,407,156,65,286,795,132,84
161,435,143,63,272,811,134,83
150,468,130,61,273,801,129,86
124,467,133,63,241,774,121,87
94,462,132,70,265,769,113,98
95,439,149,71,256,760,102,94
128,385,158,80,285,685,99,98
139,401,162,77,309,738,106,93
144,448,193,94,322,774,112,106
154,468,201,85,315,801,94,103
160,481,191,87,361,819,91,93
135,486,192,81,359,868,87,88
125,448,200,89,351,805,99,93
139,444,156,68,352,794,95,82
134,440,150,66,344,725,143,72
155,436,145,65,325,781,149,72
165,457,146,64,309,781,153,72
171,441,129,56,284,803,196,75
157,419,131,52,268,771,195,68
152,409,161,61,284,802,167,64
116,398,214,59,265,711,171,64
118,398,235,56,284,732,176,86
110,401,246,52,287,775,120,78
112,419,252,55,285,749,127,80
133,436,277,45,257,767,132,81
142,426,245,50,234,745,134,81
137,420,233,49,220,687,129,60
141,438,230,50,216,634,133,69
143,414,227,55,267,651,127,68
119,397,191,61,281,780,117,66
105,409,184,63,286,807,99,67
92,385,170,64,296,793,106,62
105,355,162,64,318,753,95,58
106,416,250,65,309,753,90,62
114,436,241,65,293,648,88,59
118,468,288,60,317,705,90,65
135,494,289,62,303,763,85,75
124,604,292,62,301,935,88,71
124,611,237,66,275,1083,96,69
118,643,279,73,274,1170,95,75
114,636,233,76,276,1178,101,68
96,639,228,79,282,1195,108,63
89,570,231,79,255,1095,111,76
74,526,212,78,271,954,110,78
83,457,160,68,259,799,108,77
92,428,192,67,237,700,112,81
91,388,193,75,277,642,99,83
131,406,189,80,303,622,96,77
147,375,185,77,296,584,89,70
148,375,177,86,334,613,104,82
146,362,132,98,357,638,99,83
160,364,134,110,378,615,95,79
139,326,161,126,415,615,102,74
179,349,168,123,424,622,117,81
180,329,165,117,407,588,115,74
187,331,180,111,398,566,117,75
176,313,177,97,368,546,120,75
181,305,171,76,330,503,119,81
140,312,192,81,344,510,128,77
144,371,226,88,340,504,126,79
135,376,223,91,342,515,129,78
142,387,225,91,326,584,129,83
128,373,213,90,302,621,154,89
116,356,195,88,271,640,150,94
103,302,154,82,260,653,145,88
97,279,143,73,232,639,140,83
80,269,145,72,220,614,153,78
70,245,155,66,214,593,122,61
59,238,156,63,202,558,105,48
93,231,156,79,226,535,110,48
96,240,158,86,246,556,112,48
99,255,153,90,284,601,101,58
104,288,141,105,327,662,100,59
123,324,132,110,338,684,106,63
116,373,189,106,397,750,133,75
116,366,185,100,396,784,127,75
120,347,182,91,362,762,117,69
119,355,177,82,352,730,140,78
107,318,170,99,372,734,145,77
90,324,121,92,296,695,123,65
98,328,153,154,363,652,129,66
99,359,156,179,428,668,129,69
100,405,182,210,462,675,117,59
102,409,185,202,448,653,108,65
133,385,180,222,739,631,117,85
