101,90,313,51,53,46,153,213
170,99,353,51,55,47,197,323
175,112,372,52,55,51,241,429
177,156,522,57,60,81,251,444
176,159,539,61,62,88,254,449
164,165,548,63,67,86,264,469
94,174,521,65,63,116,246,414
83,173,513,62,62,120,196,341
81,137,367,62,56,114,187,366
79,132,393,63,63,169,211,412
73,128,407,56,54,174,200,395
71,114,418,57,56,156,173,377
73,114,439,57,60,160,194,359
68,113,439,54,59,152,178,312
66,111,398,54,50,107,160,280
68,119,364,53,54,103,166,295
68,116,347,52,53,103,160,284
54,111,301,52,45,91,112,250
53,109,280,48,43,88,110,223
53,109,286,45,41,55,97,199
51,97,237,48,42,57,92,176
49,102,220,46,40,65,92,171
51,97,226,42,41,65,95,173
52,101,228,51,44,65,103,190
51,97,198,49,44,64,110,184
54,97,211,49,37,83,154,247
60,93,237,54,41,87,159,255
61,90,243,53,40,107,161,263
66,96,259,47,38,181,213,342
71,96,252,49,37,274,216,349
90,121,249,44,41,288,192,336
86,126,231,40,36,285,187,330
86,133,263,48,43,280,187,320
84,136,262,45,41,264,124,234
81,142,327,45,46,172,105,209
61,119,321,44,43,135,96,150
62,110,318,44,45,135,100,161
61,103,313,35,40,141,99,178
64,94,292,39,45,112,123,233
60,87,261,36,43,103,120,226
52,87,259,39,42,102,113,221
58,101,261,40,44,103,120,228
56,100,229,40,41,88,112,215
53,106,296,42,40,54,83,151
52,121,310,40,41,51,88,158
58,123,304,39,44,49,108,230
52,117,318,44,44,41,103,222
54,118,322,44,44,44,110,262
56,108,278,40,41,48,118,261
61,90,239,44,37,51,122,263
60,92,256,48,38,59,115,209
61,105,249,45,38,60,114,205
61,107,253,44,38,57,120,182
58,110,284,47,43,48,113,192
51,118,306,44,44,43,109,196
56,113,295,39,41,34,99,196
55,104,303,45,40,37,106,199
57,100,296,45,40,37,106,184
61,106,274,42,36,36,102,167
64,99,243,43,36,36,100,151
60,97,233,42,34,43,106,159
58,94,207,36,39,42,98,154
60,96,205,38,42,42,134,233
56,90,219,42,44,43,143,233
63,97,217,47,44,47,163,268
81,106,219,53,47,39,179,294
84,111,236,60,47,39,191,307
92,117,250,65,46,48,170,263
94,125,244,69,48,53,177,284
132,126,248,69,55,56,195,331
131,127,286,66,55,53,200,324
132,120,305,62,58,55,212,371
133,129,369,89,85,53,213,385
136,129,366,88,87,48,208,382
100,141,387,88,83,57,208,345
93,141,368,88,84,60,220,399
107,166,387,88,82,59,209,371
100,162,352,61,55,53,199,338
92,157,342,62,48,53,193,325
97,156,310,63,46,38,164,302
92,154,301,62,45,32,132,250
82,135,266,64,42,31,121,222
81,126,218,58,41,34,144,244
92,126,203,55,43,37,165,281
87,104,209,53,44,36,160,287
88,102,210,53,47,37,145,251
98,117,205,51,46,38,149,261
116,164,200,56,48,36,128,243
117,184,199,53,47,29,108,216
114,188,217,51,44,29,121,217
113,198,247,54,42,32,143,214
112,202,263,51,42,30,140,205
99,176,280,51,38,31,156,233
97,156,296,51,43,38,183,224
102,158,293,53,48,52,187,232
125,163,291,49,45,50,181,235
112,145,281,55,52,56,177,222
115,132,286,54,53,56,171,200
116,141,270,53,49,56,140,226
129,164,267,54,46,46,141,238
107,162,295,58,52,48,134,231
110,163,354,57,57,44,134,236
109,181,341,60,59,45,160,302
118,198,356,62,59,41,161,312
101,177,355,60,59,38,165,305
105,174,360,62,65,40,168,309
108,186,302,62,54,38,168,312
110,190,316,60,50,38,172,315
100,161,301,55,50,41,174,292
116,160,295,58,52,42,176,282
110,162,246,60,41,40,196,292
108,158,220,53,39,38,197,295
101,149,212,53,40,37,183,247
95,158,215,56,40,34,175,247
92,176,242,51,39,31,164,286
95,185,309,44,41,32,136,271
90,176,325,48,44,37,137,257
84,164,315,45,41,36,120,252
119,176,322,45,41,37,135,252
110,165,355,52,51,45,126,207
111,153,307,51,49,44,159,286
117,157,298,52,48,40,158,288
121,159,337,51,50,42,163,278
87,145,348,50,55,41,150,264
79,147,287,41,45,35,157,273
75,130,277,43,43,36,124,192
66,131,264,41,46,35,132,201
58,127,206,49,47,38,132,216
55,136,184,52,51,40,136,257
57,138,211,56,52,38,125,237
60,149,214,55,54,37,135,254
66,142,245,58,56,37,129,263
68,137,266,55,55,37,123,262
71,134,257,55,46,35,121,227
68,127,242,51,44,35,135,244
61,114,238,54,46,36,158,301
57,111,212,49,41,34,165,294
54,129,217,49,43,32,164,277
50,117,213,48,45,32,165,274
51,118,244,49,45,31,167,278
54,120,247,49,44,35,135,192
48,125,241,53,46,38,120,172
48,109,251,66,47,36,116,179
46,120,255,63,45,35,113,193
47,122,220,66,47,35,104,182
57,143,206,69,52,33,108,187
63,150,207,67,50,32,199,259
70,155,192,55,52,37,203,260
70,153,231,62,52,37,213,251
71,171,244,62,53,40,219,243
71,153,245,57,53,41,226,243
73,157,256,59,55,40,165,190
65,151,243,66,53,39,162,177
70,166,222,64,55,40,160,211
80,147,246,61,53,38,157,241
74,148,253,63,47,34,163,252
70,142,254,61,46,34,162,246
79,141,264,52,45,30,162,252
74,121,254,52,42,33,168,246
64,122,231,58,49,35,160,202
71,134,228,53,48,35,143,185
84,127,216,54,47,35,139,192
79,152,226,61,51,37,134,182
83,150,234,64,57,36,124,163
84,168,253,68,61,44,129,170
84,157,261,70,62,43,133,177
72,157,279,72,62,44,146,166
70,143,257,66,60,45,151,188
66,138,261,65,55,44,140,173
64,100,249,58,44,34,145,196
61,108,254,55,42,34,153,209
58,107,237,50,42,33,132,209
72,118,281,55,42,34,141,215
81,125,300,53,36,30,140,225
83,128,310,51,34,30,144,203
76,147,317,53,33,27,128,195
87,150,315,55,35,32,142,215
84,138,307,52,34,29,147,202
81,136,300,55,39,30,162,199
84,136,280,60,41,30,155,242
86,110,274,64,43,32,164,235
86,120,276,65,40,27,154,210
78,123,276,66,42,29,145,208
72,123,249,60,40,27,144,232
69,142,257,51,37,28,171,230
67,151,248,46,37,29,162,222
59,137,242,41,39,27,183,253
60,131,199,41,34,28,181,249
66,140,191,43,33,29,168,222
71,137,194,45,40,32,140,186
72,133,190,45,38,32,149,228
81,139,237,54,42,37,122,205
81,138,254,53,45,37,111,199
92,145,266,62,47,38,119,202
85,134,249,60,41,32,108,191
84,130,240,67,48,34,117,159
71,124,210,63,53,36,141,174
68,123,180,61,50,35,141,174
65,103,325,70,62,41,165,199
66,92,323,72,63,43,165,201
65,97,361,69,62,41,145,182
64,94,370,69,54,35,117,145
65,96,370,68,54,35,158,168
50,90,305,52,44,33,220,245
55,115,313,51,46,32,222,247
54,106,276,45,42,30,232,258
55,105,247,42,42,31,242,268
62,143,301,51,49,34,223,258
59,141,240,46,43,27,135,164
55,123,226,46,40,28,137,185
56,121,229,45,39,29,128,172
55,143,235,47,42,30,131,171
49,117,187,40,37,26,125,180
52,114,196,42,37,29,129,188
52,116,212,46,37,31,141,183
51,125,199,47,38,31,139,195
64,123,208,42,36,30,126,190
63,113,192,41,30,32,133,177
63,137,205,42,35,31,129,167
64,148,247,42,34,27,117,157
71,149,265,43,34,29,146,149
57,137,252,43,31,31,154,159
58,141,262,42,32,29,145,160
57,120,245,40,29,30,173,197
55,118,207,45,30,30,172,183
44,113,183,49,29,28,152,188
51,113,189,49,31,25,141,179
54,121,167,51,32,26,149,186
54,129,206,53,32,25,118,144
53,118,194,46,32,25,109,142
56,127,208,45,34,28,123,145
50,123,217,55,42,32,127,149
45,113,221,56,43,31,133,147
45,111,188,54,40,31,133,156
43,119,184,54,41,31,133,166
45,115,171,55,41,28,125,152
47,119,159,46,32,27,136,161
48,119,156,43,32,26,124,155
54,119,173,45,37,27,119,136
55,110,163,43,34,26,122,139
51,100,154,40,36,30,114,153
50,90,150,39,36,26,94,134
67,113,155,38,38,29,100,142
58,111,145,38,35,28,107,151
60,115,159,40,37,30,101,149
63,119,178,40,37,29,121,155
66,120,170,38,37,30,128,159
57,115,188,39,38,31,134,176
58,108,170,36,38,32,144,172
60,105,164,39,39,31,167,197
65,108,146,34,33,29,153,186
63,108,149,39,36,32,177,212
58,87,129,42,31,27,168,189
62,90,128,44,32,26,154,186
61,101,148,43,31,25,150,168
52,107,148,44,32,26,149,162
50,122,184,51,33,23,115,159
50,129,172,47,34,24,127,171
45,134,172,50,34,26,131,173
41,125,162,49,32,25,104,157
40,115,188,49,33,26,109,163
40,109,162,41,30,26,121,138
34,97,176,42,29,28,130,147
47,95,216,40,29,26,139,163
46,99,215,38,32,28,152,172
49,111,220,38,33,27,159,188
59,123,246,43,36,29,169,195
66,132,252,49,36,28,169,194
61,138,221,48,36,30,163,185
68,140,245,50,38,31,187,226
72,133,226,49,36,31,183,231
66,120,189,44,33,29,167,219
61,122,210,53,40,34,158,209
65,115,233,53,44,33,167,218
65,122,212,54,44,32,129,170
63,119,212,60,45,33,139,186
64,117,233,61,49,33,138,199
70,103,212,52,47,31,156,205
76,115,224,49,45,32,148,194
73,139,273,48,41,29,152,203
72,168,330,55,40,29,146,172
69,179,338,59,38,30,160,209
66,190,353,60,38,28,144,206
63,204,348,70,43,34,168,219
76,190,315,72,43,35,167,225
75,185,272,64,45,36,171,223
78,187,267,62,42,37,168,205
78,192,297,67,39,36,169,205
79,173,278,62,31,29,146,193
64,171,268,58,31,29,153,185
69,169,252,63,33,31,155,193
79,166,254,60,36,31,148,164
82,176,186,54,39,35,140,160
72,172,215,54,40,37,147,158
73,166,218,56,39,37,155,211
74,155,217,54,38,36,140,210
68,143,199,55,38,33,151,216
71,102,199,51,36,31,161,249
76,115,172,47,37,28,154,250
77,129,171,48,40,29,143,224
73,113,178,51,39,28,141,218
66,113,172,49,36,27,127,220
63,121,204,53,47,31,128,187
59,149,202,60,52,33,128,213
64,147,212,61,53,34,132,185
68,157,242,65,58,34,132,182
71,155,236,67,59,35,134,178
72,165,208,64,50,33,124,178
76,152,224,60,46,31,124,136
80,167,222,62,46,31,141,173
78,182,173,51,41,30,150,179
78,184,184,52,43,32,166,207
72,180,210,56,52,34,197,269
89,166,258,57,54,34,202,282
84,147,281,56,53,34,192,280
81,130,298,57,54,34,190,293
78,150,327,58,56,32,181,270
88,178,334,55,49,26,142,209
74,178,296,51,46,26,136,198
72,175,270,53,43,22,130,177
77,172,291,52,45,22,123,140
81,191,271,50,41,24,104,128
75,166,245,50,38,25,125,157
78,174,236,49,39,26,117,157
76,171,228,50,43,29,109,157
77,175,174,58,43,31,114,166
74,150,167,57,41,30,126,186
66,151,163,59,45,32,103,164
68,141,159,63,45,32,117,171
78,156,160,58,41,35,127,207
74,175,181,51,38,32,121,204
79,171,173,50,39,33,128,209
90,175,176,44,35,32,137,228
82,172,168,45,38,36,134,220
76,159,199,45,37,32,137,185
73,134,196,44,37,35,149,196
71,145,192,46,36,34,157,197
70,156,197,47,38,35,148,165
69,157,235,42,39,31,152,165
74,179,221,46,40,31,145,156
79,187,227,49,40,30,143,155
80,175,239,49,41,31,126,147
79,179,255,48,38,29,128,147
80,185,235,52,35,28,122,145
76,173,247,47,35,26,116,156
71,164,234,47,37,25,118,149
67,168,229,51,42,26,116,153
61,150,210,55,42,25,117,160
66,144,228,51,43,26,120,173
63,138,221,52,44,28,126,166
79,151,242,58,46,27,120,195
80,173,240,55,41,28,177,213
76,166,239,51,42,29,193,230
72,173,231,50,40,30,193,229
72,192,241,50,39,29,186,236
56,180,229,41,37,33,273,274
61,187,231,42,36,30,243,263
64,194,223,42,35,29,232,243
70,195,235,44,32,26,235,240
71,176,212,46,37,32,251,242
77,181,208,48,36,29,145,156
78,169,207,45,38,30,147,153
76,179,211,45,38,29,152,160
75,177,185,50,40,30,148,153
78,185,195,48,37,24,118,137
77,183,237,47,35,25,115,134
72,164,233,48,34,25,124,155
76,149,236,50,35,25,116,150
72,149,245,49,34,25,120,183
70,143,240,50,34,24,133,186
76,143,184,50,36,23,135,193
78,135,197,52,37,25,124,159
82,129,205,51,40,25,125,172
85,129,182,47,41,27,118,167
85,129,195,50,37,25,117,175
87,145,207,48,36,26,129,180
96,150,223,53,37,29,158,217
97,150,223,51,36,28,154,209
95,134,221,51,34,25,151,187
92,137,205,46,36,26,153,194
85,122,210,49,39,33,195,240
71,135,177,43,38,28,164,207
66,168,182,47,37,31,169,214
66,182,194,49,36,32,174,215
72,174,194,51,36,33,168,202
70,180,182,58,42,26,109,149
79,181,182,57,43,27,114,148
93,155,190,59,47,29,133,174
95,149,188,62,49,29,156,232
94,169,196,60,51,30,157,231
101,204,212,51,44,30,172,243
117,222,223,56,44,28,170,246
107,233,203,54,38,27,154,222
109,237,215,54,40,26,141,168
115,224,227,63,42,26,157,205
112,186,213,63,43,27,142,190
95,154,194,57,42,29,152,196
100,140,189,59,42,27,155,205
105,131,168,53,39,28,148,204
99,148,148,45,35,29,144,191
96,153,161,45,39,28,165,225
91,162,187,49,39,30,166,231
88,160,231,46,37,36,176,241
78,159,232,51,40,35,192,244
78,169,315,52,40,39,188,258
77,172,315,51,35,39,170,237
81,158,302,51,35,40,209,271
73,155,273,50,37,41,203,260
86,158,274,49,39,43,183,258
82,129,161,47,41,49,184,229
94,135,164,47,40,71,178,216
95,156,168,43,37,78,127,158
99,165,186,44,38,78,135,157
92,161,209,43,33,78,132,146
110,187,279,49,33,90,135,159
103,177,280,50,36,82,195,248
100,168,288,53,38,77,190,250
104,170,278,57,35,74,184,252
111,175,270,60,39,78,207,286
96,167,222,57,41,62,211,291
99,174,211,55,39,53,169,231
102,190,210,52,40,61,185,249
99,198,199,49,39,96,186,254
94,206,215,51,40,140,162,233
97,213,214,49,38,156,165,251
103,210,231,52,47,161,164,269
110,194,235,51,47,160,171,291
128,181,240,59,51,156,166,285
123,168,247,64,51,194,169,293
121,157,234,66,48,189,166,285
122,175,222,68,45,185,159,260
117,192,250,70,48,188,127,207
98,196,290,61,45,186,167,218
110,202,268,55,46,106,159,185
119,210,264,51,49,105,140,153
105,198,258,48,52,120,161,155
114,187,224,49,49,123,171,161
112,174,174,48,50,110,138,182
110,197,215,57,53,110,145,204
99,180,258,59,53,97,160,215
104,186,271,59,48,105,179,257
90,225,282,57,51,96,187,273
93,254,320,67,54,97,186,282
88,236,315,60,50,114,194,322
91,241,301,63,54,121,212,357
98,230,327,67,52,116,184,337
103,189,325,69,57,116,179,340
106,179,298,73,58,116,206,358
118,187,303,81,59,130,234,410
117,199,306,81,56,128,241,409
129,214,287,85,62,112,245,403
157,220,328,105,76,117,258,447
160,210,320,101,78,119,266,464
153,218,291,96,80,86,233,382
160,198,276,98,81,96,223,381
156,187,265,101,83,101,215,384
123,198,227,84,74,92,196,323
115,191,237,81,75,94,203,313
120,185,267,83,73,109,235,344
139,230,283,81,73,105,222,333
130,229,266,70,64,100,236,349
136,224,242,65,57,100,228,349
136,218,243,63,51,116,206,303
132,216,221,67,57,120,186,288
102,182,258,71,53,113,181,302
99,179,293,69,55,111,178,278
106,226,325,69,53,151,198,313
102,237,327,69,51,141,171,295
96,237,341,57,41,123,186,290
102,240,316,48,41,124,182,244
116,242,295,51,42,124,206,271
101,187,255,45,46,116,198,225
125,192,245,43,50,122,200,245
129,182,232,41,49,119,186,242
148,203,245,41,50,118,181,241
139,199,276,41,48,120,152,239
144,217,319,47,47,77,144,247
126,226,327,52,48,69,147,233
139,231,315,51,47,76,130,228
120,209,278,52,49,75,162,255
117,207,299,52,48,70,144,225
112,190,263,47,42,67,149,227
109,169,249,52,43,53,200,268
91,158,269,55,47,66,200,262
76,141,273,53,45,81,180,248
80,162,213,55,48,86,183,245
83,149,194,59,55,88,191,260
84,145,227,54,54,86,149,242
93,143,224,51,55,72,150,236
97,144,214,52,53,52,174,275
104,117,196,48,54,47,176,281
108,166,205,49,48,46,160,259
107,162,159,49,45,43,208,335
98,179,144,52,44,40,208,338
94,183,144,48,42,40,198,308
80,192,174,53,37,37,194,303
73,178,177,53,39,31,205,310
82,200,191,52,37,36,152,226
82,179,175,50,35,45,152,224
81,180,186,53,35,44,145,206
88,177,166,50,34,45,149,213
97,158,173,52,35,46,141,211
108,132,196,53,39,55,156,196
109,130,214,59,48,55,164,230
115,119,208,58,49,56,160,235
111,124,243,56,50,56,152,221
105,127,241,56,51,57,197,285
83,133,228,53,49,49,178,275
85,176,236,52,50,50,168,250
92,184,248,53,54,50,174,263
94,186,218,55,55,54,198,301
90,204,241,55,54,66,145,222
106,214,227,57,54,65,143,222
107,196,198,50,45,65,174,269
102,202,208,54,46,67,169,260
103,226,211,61,49,66,172,249
99,213,211,57,50,53,171,251
104,209,268,58,52,57,187,268
127,223,292,66,63,56,166,220
125,214,281,66,61,57,169,230
131,182,286,67,61,62,177,238
133,190,266,67,58,64,185,251
118,199,210,68,57,57,190,263
90,176,197,60,47,53,194,279
99,202,204,63,48,56,186,265
93,210,190,58,43,45,195,277
92,215,207,73,54,45,188,262
93,208,208,74,53,44,172,252
105,207,208,77,53,45,220,285
101,214,200,73,51,41,219,290
112,222,274,72,56,49,188,304
134,214,356,70,59,53,234,374
141,211,369,74,68,67,228,365
131,214,371,72,73,70,179,325
144,212,425,74,75,74,210,360
142,226,404,79,77,69,216,327
127,251,342,79,77,67,172,293
120,265,358,76,71,78,197,293
119,265,435,85,73,84,199,309
102,256,444,106,86,82,206,296
91,250,473,111,85,93,203,293
96,219,502,112,90,96,199,266
100,227,500,110,93,78,204,288
120,247,469,109,92,66,199,278
113,242,423,87,79,72,186,248
124,234,405,77,74,63,183,278
119,249,464,70,70,59,190,276
131,227,444,69,66,70,199,315
135,204,401,63,65,72,202,323
134,219,475,75,68,65,176,321
123,211,471,80,76,61,209,336
156,242,368,77,65,75,217,325
147,235,369,86,70,67,197,278
134,275,431,93,78,73,206,312
143,267,334,83,75,73,231,335
151,288,321,83,69,83,208,290
126,260,326,90,76,71,190,285
128,264,343,90,74,70,181,276
128,229,283,78,62,73,181,237
126,223,294,80,61,74,156,196
119,255,326,82,64,62,155,201
114,277,342,77,68,62,168,257
121,278,329,69,64,65,169,246
121,278,331,71,64,59,162,247
144,309,327,84,73,56,150,268
148,293,262,78,70,57,173,263
141,319,308,79,66,56,164,232
131,339,349,96,78,54,153,239
137,336,366,102,83,51,179,249
107,306,376,89,76,55,204,252
100,274,378,94,82,55,179,249
102,231,436,99,90,55,213,265
98,195,419,82,78,49,226,279
98,193,391,72,74,46,217,274
99,212,390,80,77,57,196,258
113,221,405,73,67,57,193,251
108,190,262,63,52,53,164,247
111,203,224,63,49,54,173,237
101,202,235,70,51,58,154,210
109,188,220,68,50,43,154,204
103,202,188,71,52,39,165,241
122,226,187,69,47,47,164,213
120,216,197,66,49,49,139,194
119,224,234,74,61,58,130,209
112,212,224,77,70,58,145,220
117,217,218,71,70,64,131,204
115,219,238,72,72,61,124,226
113,234,258,78,76,61,127,230
114,232,221,67,66,48,124,221
117,235,227,64,58,58,126,310
106,216,227,66,60,53,135,310
95,209,280,64,61,52,132,296
101,235,290,64,57,49,126,305
100,223,304,62,54,47,143,316
100,255,302,62,53,46,128,224
98,267,324,63,54,47,154,254
104,262,299,61,54,47,149,250
102,228,282,60,62,49,150,240
110,232,257,71,70,53,143,237
107,238,265,80,70,42,140,233
115,250,270,85,71,42,126,232
104,238,242,89,69,42,124,228
112,289,259,91,69,41,132,223
105,308,337,86,63,37,147,251
106,284,325,88,64,40,183,320
102,258,326,90,69,40,179,325
116,291,318,95,75,45,179,325
108,256,323,104,80,44,174,330
110,233,281,100,79,44,158,297
109,230,388,93,83,44,129,265
102,244,402,91,82,44,152,230
90,205,409,82,78,38,167,243
87,202,425,67,72,40,169,250
96,216,516,73,80,42,167,251
91,219,448,64,71,39,188,249
88,207,437,68,69,38,201,302
86,208,474,74,74,43,194,303
105,205,463,79,81,43,198,293
98,183,369,83,85,45,200,287
99,166,375,89,95,47,186,270
109,176,386,87,99,51,143,229
125,216,352,85,96,51,153,237
111,220,328,81,91,49,187,293
116,259,298,78,84,57,195,304
119,269,293,86,82,58,182,282
128,266,264,88,83,60,182,250
122,245,274,84,84,59,181,266
135,235,297,84,83,60,138,208
129,206,291,81,77,52,126,193
128,191,294,72,74,53,130,190
113,190,330,75,72,51,127,195
99,176,334,77,72,55,118,141
96,215,391,80,72,56,173,182
101,211,410,76,70,56,176,185
98,213,413,74,70,56,176,187
103,211,410,69,70,54,170,182
103,250,397,73,70,53,174,183
108,254,328,73,73,53,120,120
116,282,299,80,81,53,123,128
128,313,286,81,82,54,119,174
124,324,235,77,79,58,195,254
125,299,250,82,81,55,199,253
109,264,236,79,74,52,196,254
114,269,239,76,66,50,200,249
131,249,264,72,59,45,195,223
154,250,278,74,58,38,125,122
175,254,271,68,54,37,105,110
178,253,277,73,62,43,147,163
167,219,311,72,71,46,150,183
155,216,292,75,72,45,150,179
144,216,324,79,73,43,144,174
121,232,308,79,75,45,142,175
115,232,319,76,80,40,98,120
116,246,317,81,95,53,132,142
131,244,339,85,95,54,157,164
120,223,323,81,95,58,182,189
129,200,314,75,92,56,184,193
131,197,302,77,84,56,186,196
132,207,270,69,54,40,152,164
103,187,277,69,51,50,139,169
107,209,263,65,47,45,121,173
93,220,283,65,45,50,137,191
103,244,267,57,47,54,142,202
93,221,277,62,50,53,136,196
95,244,289,63,59,46,122,172
86,226,277,60,61,49,155,167
87,220,251,62,63,45,147,149
73,217,251,64,62,63,148,151
75,221,224,59,59,71,152,155
74,222,134,48,51,69,162,160
71,222,129,46,44,68,135,133
62,209,121,43,41,66,132,129
60,181,178,41,40,76,144,204
66,180,184,45,44,74,146,222
70,227,208,53,49,76,165,225
73,228,203,54,51,76,148,222
77,250,224,55,52,77,155,237
91,255,202,68,58,48,138,170
91,281,233,71,64,47,139,151
109,301,222,66,61,43,101,141
163,317,234,69,63,66,166,181
169,327,219,68,63,67,164,174
182,366,211,60,64,67,162,165
183,340,217,57,55,63,167,165
185,306,283,67,56,65,197,215
154,299,299,64,59,52,151,189
155,273,303,63,59,64,139,180
135,229,314,59,51,68,141,186
131,229,288,65,50,68,143,194
113,182,234,62,50,66,106,143
108,168,228,66,49,60,117,145
97,169,234,66,47,47,142,163
113,206,231,70,50,41,159,169
140,265,243,65,61,46,145,155
140,279,228,59,59,48,139,157
132,274,200,53,54,53,144,174
136,294,189,58,57,50,127,160
121,251,172,56,54,50,101,145
99,202,155,50,44,54,108,181
101,185,215,55,47,54,141,193
102,204,220,54,46,47,142,187
109,268,232,59,48,50,136,182
108,277,240,60,51,56,139,195
98,275,238,64,49,54,139,176
100,316,185,62,49,54,108,154
99,303,175,62,50,56,107,151
83,226,156,54,48,56,111,154
90,259,161,57,46,51,112,157
87,259,161,54,46,51,116,147
80,222,187,56,45,52,128,148
80,225,189,56,47,51,129,191
76,227,201,56,45,49,127,193
72,216,203,55,43,47,134,184
82,201,216,55,40,42,131,188
86,201,207,50,38,40,125,199
82,199,201,49,33,53,129,160
84,199,210,47,34,59,138,153
82,168,181,42,38,64,132,149
80,174,177,39,38,65,128,138
73,188,188,44,40,62,118,122
76,205,208,52,44,51,150,164
76,196,211,58,44,48,148,168
87,190,248,61,42,50,176,231
85,204,283,68,43,49,205,241
85,202,271,67,45,59,217,257
87,202,270,62,44,58,180,224
88,223,255,62,47,56,177,222
77,235,232,61,46,53,149,160
69,225,202,54,47,56,118,143
70,219,229,61,44,47,103,133
62,201,220,61,42,48,136,156
69,185,246,66,43,45,134,164
78,170,240,65,43,39,134,158
78,158,226,63,42,34,128,163
74,122,195,56,42,33,125,151
72,125,188,56,45,34,109,143
59,127,144,41,41,38,135,141
48,124,150,40,41,41,151,199
62,133,173,42,42,39,152,206
67,137,180,42,39,38,160,212
84,151,177,40,36,35,151,200
91,150,186,42,38,34,143,212
94,182,183,42,43,31,124,162
85,179,161,44,41,31,117,151
82,183,164,44,42,31,105,144
101,191,205,45,43,32,97,140
99,218,205,44,41,30,90,125
98,193,206,45,35,30,85,133
106,207,216,48,36,33,108,141
115,210,203,47,34,38,109,145
95,192,191,52,34,39,111,150
95,162,213,52,37,42,106,148
97,161,231,54,38,52,128,150
90,156,217,48,42,52,116,153
84,148,229,45,43,48,120,144
88,186,220,43,42,49,126,167
102,191,222,43,44,49,126,158
103,194,205,41,46,51,103,147
109,208,234,43,47,99,103,135
108,252,226,44,44,104,101,149
98,230,216,42,43,104,97,135
83,221,206,40,37,106,96,152
83,223,226,44,38,101,108,200
119,224,205,47,37,67,125,272
125,193,214,47,40,71,126,282
131,188,214,50,45,76,129,292
134,188,198,50,44,73,138,287
149,206,182,45,40,73,135,261
125,193,202,46,46,69,145,235
121,175,220,48,48,63,144,238
121,177,242,53,46,56,143,224
120,185,250,56,54,64,174,276
96,163,240,57,59,65,173,281
92,150,214,52,55,63,153,247
112,181,211,56,54,57,166,231
110,207,207,48,51,56,163,221
118,194,213,48,46,51,126,156
123,213,212,48,38,55,124,147
115,213,204,48,34,49,118,139
103,190,192,42,32,48,97,123
98,154,168,43,32,50,110,163
85,157,154,48,31,44,101,162
73,113,144,48,32,38,104,154
77,127,166,50,30,39,100,144
75,150,141,48,30,42,99,144
76,209,140,47,33,44,76,100
77,217,142,41,37,45,75,83
77,220,171,41,40,46,114,205
80,209,178,44,44,65,129,218
72,192,182,46,44,68,129,229
66,137,181,45,43,66,130,228
66,125,167,41,38,66,129,231
66,140,153,38,33,72,83,130
58,154,204,45,31,57,57,108
48,174,294,48,31,53,51,83
58,181,303,57,34,54,47,75
74,181,317,60,36,59,43,65
86,199,331,68,43,57,41,60
87,181,295,61,42,55,45,72
89,166,236,57,42,54,139,214
84,151,243,57,42,54,183,287
80,154,245,61,43,50,211,349
89,118,222,52,38,50,224,377
91,128,251,52,37,60,230,387
92,137,281,57,47,64,191,342
95,151,274,54,50,65,169,299
91,150,286,50,52,68,185,288
83,149,289,51,54,65,188,293
102,205,266,55,55,56,185,292
100,216,231,54,50,57,188,288
101,228,246,51,49,60,181,277
98,232,208,48,43,62,132,211
95,238,215,52,49,60,146,253
78,191,219,48,50,60,148,250
85,168,232,47,50,57,154,248
87,154,226,45,48,55,148,265
85,148,240,46,48,50,152,280
79,135,232,47,46,50,131,203
74,138,291,45,47,49,127,189
69,146,265,45,48,49,138,198
69,142,266,51,49,62,144,175
69,142,258,51,50,65,140,169
85,149,263,48,50,64,129,166
85,147,196,54,51,65,153,206
83,143,193,50,47,64,146,244
75,152,189,47,46,61,136,241
74,148,190,47,46,59,136,243
55,149,178,43,40,60,129,237
59,156,175,37,36,59,112,210
72,167,182,39,40,59,106,193
73,157,184,44,40,46,118,212
73,158,187,48,42,49,127,225
80,156,194,56,46,49,132,229
74,154,194,56,44,47,119,222
59,140,183,59,41,44,113,180
57,147,167,60,47,42,110,157
60,142,186,59,46,46,99,127
53,145,210,55,49,51,125,186
63,170,218,56,49,52,132,196
65,169,264,60,62,57,131,201
65,165,283,55,59,60,146,237
68,166,270,54,58,57,155,257
65,164,254,53,53,55,136,225
68,152,253,53,56,57,132,222
82,227,229,45,43,58,131,224
85,239,237,43,40,58,166,289
85,249,246,44,42,53,161,276
100,265,242,46,44,50,171,281
94,270,240,45,40,53,176,297
83,213,223,54,47,51,173,294
86,201,189,55,49,48,133,208
84,225,207,56,51,49,127,201
67,233,222,60,50,53,117,196
67,215,213,60,49,60,132,196
72,225,217,60,45,58,142,222
67,226,221,65,46,61,157,271
71,195,199,62,40,61,163,278
89,176,181,59,38,57,164,270
88,191,180,59,40,51,152,264
82,179,196,54,43,54,164,265
94,196,205,51,37,49,139,217
96,192,258,57,44,49,143,228
89,192,261,59,48,47,131,224
90,187,256,60,47,38,139,226
92,187,236,56,43,51,138,231
78,184,229,55,43,58,163,230
69,186,174,48,39,59,173,210
88,209,171,44,36,59,178,228
89,200,190,47,40,61,173,226
86,201,198,47,43,47,159,205
88,181,200,48,45,46,129,187
97,183,185,51,46,45,126,200
70,154,174,51,45,47,189,259
80,164,163,49,42,46,189,263
88,166,177,58,43,46,193,271
93,186,205,64,46,43,194,275
86,197,224,63,44,42,181,267
90,197,246,73,52,47,117,195
110,218,245,71,52,49,196,260
107,222,239,67,48,52,203,266
112,204,215,65,49,54,216,279
128,208,218,65,54,66,238,317
129,238,194,69,66,65,248,350
114,224,221,70,66,63,191,307
131,241,221,74,72,66,191,295
148,271,236,73,69,62,186,304
139,264,233,76,66,49,160,278
139,228,233,63,47,46,154,264
136,242,209,63,48,49,155,248
124,225,198,58,42,46,163,266
106,197,169,57,44,50,154,245
98,199,173,51,41,51,170,259
98,201,211,53,43,48,161,227
115,195,223,51,40,46,153,228
118,216,224,49,39,47,123,200
114,222,230,51,41,48,174,230
112,212,214,53,43,49,176,247
126,251,199,57,50,76,186,273
107,261,291,67,64,81,191,280
108,238,333,69,62,80,197,289
116,235,330,75,68,78,195,280
124,244,332,76,68,76,174,232
109,213,341,83,71,50,165,224
112,213,444,105,73,46,175,240
129,254,480,119,80,49,169,239
116,248,497,116,79,50,153,330
110,252,501,114,79,57,165,334
127,250,487,113,72,57,168,334
124,239,351,90,76,60,173,347
98,197,300,67,74,57,219,404
112,224,313,68,73,72,198,335
113,223,305,73,76,70,203,338
133,232,337,67,76,70,212,346
132,229,327,68,66,65,198,325
128,242,301,72,60,63,158,250
119,214,303,68,54,44,169,241
118,201,361,66,59,53,165,246
94,229,386,79,68,54,174,258
109,232,399,77,65,54,183,259
110,214,398,72,65,54,178,278
108,226,371,77,68,62,187,277
110,239,334,86,75,66,210,271
104,238,305,78,67,66,211,266
85,231,285,75,66,68,200,258
91,260,291,88,71,83,203,242
96,251,344,88,80,83,209,292
100,260,330,82,68,74,180,289
101,241,310,82,74,74,171,258
98,245,334,87,80,76,194,260
103,254,357,75,77,68,202,310
103,260,309,68,67,67,191,254
96,272,333,66,71,65,187,263
91,261,337,61,65,67,190,271
99,256,361,59,60,63,174,272
101,256,332,61,58,67,177,233
102,274,395,68,58,65,171,253
106,243,386,64,50,66,179,248
98,263,400,73,54,68,165,242
89,274,360,73,54,65,163,239
95,252,364,82,66,77,179,254
92,242,308,77,63,76,196,249
91,250,316,82,67,77,199,247
99,224,328,81,64,75,209,253
100,208,328,76,61,76,221,261
85,190,322,67,55,53,212,247
85,177,332,70,64,53,196,256
80,168,320,63,62,51,184,252
73,185,281,51,59,49,189,259
81,194,289,60,60,50,179,256
80,199,361,60,56,56,187,240
80,198,350,59,51,60,180,223
86,211,355,62,52,60,188,226
87,194,354,65,53,63,175,218
92,175,330,63,62,81,181,213
93,224,246,62,63,74,146,201
87,219,263,77,70,70,148,188
111,217,327,83,80,78,157,208
126,225,323,85,81,81,149,203
125,228,323,81,74,63,142,200
129,177,324,79,74,75,155,199
132,207,339,72,73,78,202,236
111,199,265,67,60,75,189,216
101,202,265,65,59,73,195,212
91,191,273,65,59,74,192,226
91,205,265,62,58,61,196,228
90,172,232,65,57,56,162,224
85,173,233,78,69,51,173,241
86,272,252,80,73,45,185,266
88,275,255,81,75,43,194,293
78,266,328,87,80,53,188,305
74,267,314,80,75,61,189,287
79,276,317,64,65,60,216,285
103,186,318,61,63,61,218,272
103,186,318,59,60,66,224,231
105,199,235,57,49,58,219,216
114,199,236,71,68,66,214,221
113,205,215,75,69,71,184,209
82,189,191,76,69,74,161,193
84,196,202,81,74,77,148,187
87,186,228,89,95,94,147,185
79,198,221,79,83,91,148,175
79,183,222,94,96,95,155,175
82,176,219,98,102,96,158,189
79,178,295,104,102,91,152,208
79,164,315,103,89,74,158,205
76,149,348,112,99,68,150,221
69,134,383,105,90,65,128,208
63,169,384,102,82,63,162,208
59,153,315,93,80,71,162,191
51,158,340,87,84,76,162,211
52,193,319,79,70,73,175,197
79,232,287,70,63,70,192,221
84,232,302,69,61,67,176,244
84,233,328,71,61,67,170,247
86,239,265,65,45,65,163,232
86,215,252,58,46,64,180,240
73,173,269,60,50,61,174,235
71,140,254,58,50,63,169,206
91,144,225,72,49,68,172,223
137,164,224,73,52,64,184,216
138,155,218,78,50,83,160,198
137,160,214,73,46,83,146,177
138,178,205,73,44,82,160,225
127,174,221,56,41,78,174,211
79,146,224,61,44,83,156,211
76,163,250,65,50,78,148,228
70,149,248,68,50,78,148,221
64,122,243,67,51,83,135,182
70,130,242,66,52,79,111,174
60,125,249,58,45,72,122,166
59,97,214,48,42,60,122,181
59,109,178,49,44,60,120,193
59,117,210,55,52,58,127,210
48,103,197,57,52,57,127,208
48,94,178,60,56,68,127,207
50,126,222,64,56,69,121,182
50,119,234,62,55,67,130,178
48,121,224,56,51,75,121,170
52,128,220,72,58,75,126,181
54,127,230,76,59,68,116,187
54,99,192,76,61,69,112,185
51,88,181,74,60,73,123,193
64,79,170,77,67,69,111,191
61,70,162,67,66,66,110,185
65,98,185,63,67,68,140,200
69,95,179,58,68,66,146,218
71,98,203,65,68,63,139,209
55,96,198,62,58,52,151,205
55,93,202,59,54,67,147,205
56,69,166,56,48,69,124,194
47,70,174,56,38,67,120,173
48,88,150,49,38,64,108,168
49,96,179,57,38,66,96,143
51,117,178,59,39,59,113,167
45,121,206,62,42,62,120,163
44,126,240,61,46,66,120,156
42,115,265,61,48,76,134,165
42,107,250,57,49,77,127,164
42,87,249,51,48,75,109,130
43,74,240,48,44,66,95,122
48,78,211,46,39,60,102,145
45,73,173,43,35,47,89,137
43,74,164,39,30,52,95,141
41,70,189,41,37,53,103,170
46,75,178,41,38,56,109,175
49,60,184,44,39,61,97,156
56,83,179,46,42,60,87,152
64,87,193,47,41,52,98,143
66,91,196,52,33,82,107,169
73,115,313,58,34,90,105,178
70,117,310,57,38,93,119,197
71,107,319,58,39,99,124,224
64,104,315,62,48,106,118,238
65,98,293,56,47,82,106,201
53,64,183,56,46,72,109,191
58,60,193,56,47,68,113,231
53,61,280,61,48,62,107,210
52,60,277,54,38,46,109,197
50,61,277,56,39,50,149,209
49,63,286,53,41,48,161,218
44,80,288,54,38,49,151,157
46,78,199,48,35,45,169,167
55,89,218,54,43,49,183,177
61,93,223,60,43,43,149,158
65,102,205,61,44,47,148,143
62,89,179,58,42,43,144,142
69,93,181,69,58,45,138,155
63,82,148,63,53,40,109,136
59,82,178,66,58,48,126,148
59,76,162,70,59,45,125,160
67,80,173,74,71,49,142,196
58,73,160,66,59,52,129,179
62,82,193,70,61,53,142,181
65,82,174,58,57,47,141,191
61,73,166,54,53,50,124,179
55,89,184,47,42,49,112,139
56,93,192,48,46,42,115,136
55,89,190,47,47,41,108,156
54,89,197,52,49,43,93,128
57,99,210,49,52,48,94,122
55,81,188,57,50,46,127,171
57,86,181,54,44,47,124,180
68,95,214,53,47,51,118,169
68,101,248,53,44,53,127,182
70,95,248,54,44,47,126,186
72,96,254,48,41,51,88,143
74,87,261,52,42,59,109,138
66,79,228,62,38,56,107,130
68,79,193,59,39,52,101,116
66,81,184,60,35,50,105,146
70,82,178,62,36,47,102,142
82,91,179,64,37,40,104,179
83,91,206,54,38,41,104,180
88,81,188,54,37,41,104,185
87,79,230,61,40,49,119,198
83,89,226,66,41,50,126,208
74,81,250,71,49,50,161,202
75,90,227,69,47,49,162,208
68,97,271,73,46,50,165,220
71,94,236,66,44,45,159,186
68,93,246,64,48,40,154,174
76,93,242,62,40,39,116,146
76,101,246,65,49,42,120,140
82,96,197,63,51,43,120,149
84,98,205,65,52,39,133,183
88,98,200,59,49,39,137,189
94,113,191,49,48,36,118,182
96,108,180,48,42,38,117,180
88,114,211,44,41,35,106,155
92,132,202,40,40,36,85,132
93,132,194,36,41,38,80,128
88,147,207,47,43,37,105,143
91,150,200,47,41,30,106,149
105,170,175,46,40,29,105,144
101,161,218,48,39,27,108,137
100,160,231,51,37,21,110,134
96,141,203,50,40,24,100,136
90,129,207,57,38,25,95,124
90,109,202,59,41,25,138,187
85,117,161,62,41,27,132,184
85,121,160,61,42,27,138,191
83,121,179,54,36,24,141,206
80,120,183,46,34,25,164,220
65,113,197,48,35,25,130,174
72,107,194,42,37,25,128,174
82,103,198,41,39,25,138,191
75,105,200,46,37,24,125,158
81,117,209,49,39,23,95,142
85,123,198,49,39,25,97,142
80,114,201,47,35,23,99,147
75,115,199,51,39,26,71,125
80,112,191,47,40,27,73,126
93,121,188,49,45,36,136,171
91,126,194,46,44,34,138,167
96,133,191,48,45,35,141,161
93,125,174,45,41,35,157,169
94,125,192,45,43,37,171,178
77,124,175,42,38,29,127,138
84,119,182,48,37,29,129,142
84,121,204,55,39,31,153,170
91,131,230,59,43,28,142,171
88,128,207,62,41,24,127,161
103,127,213,62,42,24,140,218
108,136,264,58,42,25,138,219
103,135,246,50,40,22,107,196
104,148,236,51,37,24,108,185
106,153,233,49,36,24,103,184
88,155,235,47,37,29,118,128
74,142,150,47,36,29,119,146
77,144,154,50,36,29,118,146
76,141,163,45,34,28,167,184
81,135,154,43,36,31,171,189
87,119,174,46,35,27,159,187
87,133,176,43,34,27,186,212
93,141,198,48,40,31,196,229
86,136,184,51,41,33,160,211
82,141,222,53,41,32,171,214
75,141,211,49,37,33,174,216
75,132,232,52,40,32,149,191
66,131,212,48,37,31,143,178
85,146,231,49,45,31,150,176
85,144,197,50,46,31,139,172
93,150,184,51,45,28,121,157
89,147,187,51,44,28,117,147
90,156,202,51,44,26,107,140
71,140,176,47,35,25,105,135
83,145,182,46,32,23,99,134
82,142,192,45,32,25,117,157
89,142,170,46,32,25,125,152
92,127,180,44,30,25,124,149
98,114,192,41,28,25,113,175
87,115,202,46,34,29,117,182
96,152,235,49,35,28,110,167
93,159,233,48,36,30,124,181
93,154,211,47,34,30,129,181
91,157,199,52,39,34,154,171
97,166,200,48,35,31,168,199
83,132,163,47,36,34,164,199
83,150,190,46,35,34,152,190
75,152,209,48,37,33,157,204
70,153,210,44,32,30,146,190
60,140,216,51,34,32,130,146
59,139,218,52,38,31,146,171
56,115,192,56,41,29,152,173
56,118,184,60,42,31,147,158
73,144,188,62,46,33,158,222
72,146,171,60,48,34,158,229
75,140,149,59,45,35,146,227
76,141,156,53,41,35,158,225
79,137,142,46,39,39,173,233
64,112,146,48,37,38,156,195
76,111,133,43,31,34,154,185
77,118,182,52,36,33,150,170
74,120,207,53,38,35,157,178
78,119,228,57,38,28,139,164
84,121,221,53,37,28,129,156
77,138,230,55,39,29,139,170
79,144,206,47,33,32,152,173
78,134,170,48,33,30,183,231
75,140,141,43,34,34,191,234
74,137,180,47,35,33,195,226
72,129,194,45,34,32,195,238
71,123,184,44,36,29,186,230
76,129,199,45,37,33,125,157
77,122,194,47,39,31,116,151
71,126,184,43,34,29,115,154
71,110,189,44,35,30,107,129
68,117,228,44,35,30,105,140
67,110,222,41,33,27,126,157
69,111,223,35,32,32,127,166
75,108,206,36,34,32,116,155
79,150,181,41,38,32,110,146
78,162,150,43,37,32,122,146
74,189,214,51,39,34,125,154
71,206,222,50,37,29,119,143
78,266,243,48,39,30,124,140
78,267,283,49,36,29,125,144
79,270,296,48,36,29,114,152
83,261,256,44,35,24,84,128
80,259,255,45,37,25,80,130
62,201,241,54,38,26,77,123
58,172,218,53,40,24,72,119
64,159,197,52,41,25,70,88
59,157,191,51,39,26,78,99
63,150,195,52,38,26,98,120
67,148,188,44,38,24,112,139
62,162,161,41,38,30,136,158
51,156,141,39,38,29,142,164
67,150,176,50,49,32,144,160
66,172,188,51,50,31,139,146
66,188,196,49,46,31,134,158
66,177,228,48,46,29,119,141
71,185,248,48,45,29,115,149
64,200,256,37,35,23,113,146
70,177,243,38,37,28,110,155
68,159,244,41,40,29,103,125
74,161,217,41,37,27,90,120
71,155,212,47,39,31,166,210
65,161,175,45,42,31,169,218
67,160,184,43,42,28,165,211
70,178,168,41,41,28,165,218
72,182,181,41,37,26,184,224
72,251,186,39,40,27,122,136
70,258,202,45,37,27,121,130
72,256,197,48,34,30,183,159
71,243,213,50,37,31,191,150
75,241,218,50,40,31,177,144
74,174,212,53,38,29,181,139
76,173,246,51,40,30,182,140
67,177,252,50,40,28,123,130
79,184,251,54,47,31,113,133
80,186,256,55,46,32,106,133
82,174,264,50,44,32,102,129
81,148,225,51,44,32,102,132
88,162,215,49,43,31,99,136
81,161,206,44,34,28,103,136
71,153,187,44,35,26,118,135
75,161,190,44,36,33,154,165
78,170,194,42,36,34,153,158
70,151,227,45,39,40,165,138
67,148,259,46,38,41,172,144
68,163,257,45,38,41,169,142
75,215,245,48,42,36,129,100
74,224,248,51,40,34,119,88
84,227,243,51,43,31,109,107
82,232,235,52,47,32,113,106
85,221,227,49,45,33,131,117
81,173,235,50,40,32,130,117
84,138,226,44,40,34,129,125
71,135,212,54,42,34,133,108
72,172,244,55,39,31,118,114
73,174,256,55,39,30,87,126
65,167,253,58,40,31,110,136
81,197,257,59,37,28,114,145
84,207,258,51,34,28,104,144
88,185,241,60,33,27,101,135
85,185,239,65,41,32,137,147
87,197,223,58,38,31,139,176
67,186,224,60,41,34,135,168
71,201,214,58,39,30,135,168
70,179,168,51,49,34,148,188
77,179,154,46,43,29,119,165
76,205,179,47,46,29,114,158
76,190,167,50,51,34,166,206
68,165,155,49,50,34,174,215
73,172,160,46,47,36,171,216
65,179,153,43,47,37,169,216
59,125,127,45,47,37,177,200
60,136,126,38,42,32,143,176
90,151,133,42,44,32,139,167
83,149,130,39,38,28,134,145
89,153,152,50,46,30,140,143
93,188,163,50,45,29,125,133
92,186,178,53,45,31,143,142
63,165,172,51,45,32,140,186
65,172,203,52,42,29,155,191
56,163,191,44,34,28,155,199
78,130,184,48,36,30,164,216
82,143,184,53,35,29,144,201
86,158,184,52,34,27,161,190
84,149,146,49,34,27,145,184
84,152,144,50,32,29,144,175
74,158,154,42,31,28,125,161
74,147,159,44,34,26,132,152
70,151,170,45,36,25,109,112
68,151,166,46,37,27,106,111
73,143,182,49,43,25,121,149
69,131,202,49,39,24,117,148
72,129,186,37,35,24,110,139
72,117,172,39,34,25,112,140
76,122,181,42,33,24,119,139
73,121,195,51,35,26,110,130
63,131,168,52,36,25,121,129
60,151,168,53,36,25,114,133
63,176,170,56,39,26,130,155
59,169,161,54,38,26,124,152
60,171,164,49,35,24,113,129
61,167,164,48,34,26,103,123
55,150,179,50,39,27,102,124
53,124,198,45,37,32,160,131
62,152,202,51,46,38,159,137
60,154,191,43,43,38,163,174
56,153,188,45,44,38,170,177
55,143,200,46,40,40,177,178
68,142,195,47,38,36,106,151
64,127,204,47,29,36,104,148
66,135,189,47,30,37,120,111
69,138,210,46,29,39,118,131
70,141,187,43,27,36,105,128
60,133,200,43,30,36,111,137
64,171,219,41,30,29,113,143
61,165,217,39,30,25,91,139
60,158,191,39,32,22,95,151
58,155,188,44,34,30,106,159
53,156,159,42,32,30,99,154
45,114,142,38,33,33,93,141
48,104,138,40,34,40,118,143
46,104,162,42,37,44,169,151
48,111,168,37,38,40,172,141
47,116,174,36,38,43,175,152
66,117,185,36,38,42,197,175
68,119,189,39,37,37,188,172
70,127,172,36,32,31,140,140
78,119,168,35,30,31,127,137
79,111,165,35,29,33,152,160
64,102,134,38,29,33,130,144
61,122,174,42,34,34,131,146
61,126,186,43,37,37,139,151
55,135,195,46,41,40,198,203
52,136,200,46,44,35,180,185
58,162,192,43,45,38,180,184
59,153,153,42,49,40,183,197
66,150,146,41,50,38,174,195
63,152,145,49,51,37,123,140
67,152,135,50,50,37,131,145
59,145,182,52,49,34,141,183
59,142,189,47,39,36,133,171
52,138,182,48,37,41,155,178
52,138,192,44,33,40,139,176
74,138,211,46,36,41,130,181
75,109,200,47,34,39,111,138
77,124,222,48,36,37,186,144
80,131,240,51,35,33,172,134
79,126,225,44,35,33,182,159
67,153,259,49,34,32,181,149
71,147,256,51,34,37,187,162
72,131,261,52,37,38,115,152
67,120,246,47,36,39,112,153
69,122,244,48,34,37,103,135
66,106,188,43,36,38,127,148
66,115,179,37,34,35,121,133
63,126,132,32,29,30,118,138
64,142,184,36,35,31,124,130
69,143,183,37,36,40,118,127
71,148,193,39,32,41,104,105
68,144,211,44,34,39,120,131
77,136,214,46,35,39,124,133
77,122,174,42,30,37,110,136
79,129,186,44,31,37,156,175
81,99,176,39,30,36,150,179
80,101,147,42,34,38,153,182
76,104,133,41,34,39,146,181
76,105,127,44,33,39,154,186
70,104,107,40,31,32,143,156
62,113,166,44,37,31,155,154
64,105,171,35,33,30,145,140
62,111,223,36,32,28,164,153
74,134,235,34,34,28,159,148
73,124,235,35,34,28,137,140
72,129,218,34,36,32,138,191
76,130,219,37,37,33,161,201
76,131,183,36,37,33,148,192
74,113,177,40,38,32,148,194
75,115,185,39,38,33,145,203
79,108,161,38,33,28,127,154
74,113,146,34,31,25,107,136
72,109,145,36,35,23,96,126
67,122,149,36,36,26,127,145
72,129,175,44,42,32,139,142
62,131,185,43,42,37,143,143
62,128,188,44,43,37,130,137
67,125,177,43,40,38,140,143
71,118,164,37,39,38,116,122
72,120,133,33,33,33,120,122
83,138,185,42,34,28,128,127
81,134,193,47,33,35,138,151
80,161,204,47,34,43,149,170
80,153,210,52,36,48,157,178
81,148,224,49,41,49,154,176
75,133,175,46,43,55,164,250
77,135,169,43,43,58,158,243
86,120,158,45,44,57,144,260
80,152,171,42,43,55,150,259
79,169,145,47,42,60,145,272
76,174,143,44,39,56,146,231
83,206,138,44,40,55,213,286
69,204,145,41,37,49,221,260
67,189,164,46,45,50,214,258
63,167,198,46,41,57,208,242
63,155,206,44,41,57,196,209
54,111,210,42,42,52,154,167
60,94,204,41,44,53,140,165
60,104,183,41,42,51,140,162
56,112,153,39,39,32,145,163
59,119,142,39,38,31,146,198
53,117,135,42,34,28,107,161
50,131,149,48,35,29,102,159
51,111,138,41,25,27,96,157
56,125,148,43,30,30,83,149
61,133,154,45,33,31,77,98
77,139,164,43,33,35,92,103
74,130,184,40,34,36,110,121
74,139,219,43,37,37,122,131
73,135,224,41,38,36,139,181
72,160,228,38,35,36,139,185
55,163,222,40,36,36,135,187
57,167,218,36,34,34,120,172
56,174,203,36,35,39,134,194
53,167,202,36,33,37,132,162
47,135,207,37,35,45,131,163
46,132,209,36,34,42,144,164
41,134,187,36,32,43,149,170
49,140,165,36,34,40,123,136
55,149,144,33,34,40,127,123
60,148,132,31,35,31,133,119
69,150,149,38,36,33,121,134
76,164,144,37,35,30,123,149
73,145,153,36,32,29,136,176
69,139,150,38,31,33,143,213
64,140,144,39,31,40,146,244
60,135,121,36,32,38,141,225
49,117,156,40,34,38,139,210
48,119,152,43,35,38,126,189
49,124,160,44,34,33,105,161
49,148,166,44,34,26,89,118
43,142,188,40,31,31,147,143
55,148,170,38,29,31,148,143
53,156,161,35,28,38,145,140
54,158,155,38,29,40,147,134
60,144,147,38,27,38,168,152
61,150,121,41,30,35,129,135
54,136,118,41,36,35,129,142
54,125,119,40,35,26,141,157
53,124,133,38,37,28,148,172
48,110,134,36,35,27,122,151
47,107,145,34,37,28,124,165
51,121,144,32,31,29,124,165
54,132,158,40,35,30,114,159
61,134,148,43,35,31,109,149
60,140,150,48,39,35,158,199
65,150,140,49,39,36,151,205
65,164,136,50,39,35,150,205
69,171,130,46,37,34,153,206
64,160,132,39,36,33,165,201
64,160,153,32,32,29,129,171
60,153,156,35,35,28,137,170
57,133,153,34,37,29,135,179
54,132,155,36,40,29,148,181
55,142,166,36,39,31,155,214
54,147,172,39,43,34,158,211
57,146,166,35,38,36,199,262
58,137,169,35,36,35,205,256
61,123,160,35,36,37,192,251
60,128,154,37,37,40,173,216
60,117,128,36,34,38,172,212
55,111,129,37,33,36,116,135
56,113,136,41,38,40,143,148
51,102,140,36,36,39,150,148
50,87,130,33,33,32,141,155
49,91,123,32,32,30,135,152
49,97,119,31,31,28,126,134
46,100,113,39,31,25,90,125
43,111,108,39,28,24,96,138
45,115,109,42,30,24,112,130
46,112,111,43,31,28,139,126
48,114,121,48,33,29,142,133
53,118,123,39,31,27,137,126
54,114,116,39,30,27,129,112
54,114,109,38,30,27,143,132
53,115,108,36,29,22,113,130
57,125,99,31,25,22,110,124
50,125,86,31,25,24,118,140
49,133,96,31,25,24,114,141
44,134,96,32,24,24,75,120
47,138,88,32,25,24,72,114
40,124,91,33,27,26,93,139
44,125,99,31,26,21,76,118
41,116,114,32,31,23,109,138
43,106,133,32,34,23,113,149
44,95,140,31,35,24,115,154
52,94,151,30,35,23,125,129
50,84,147,29,35,24,127,130
52,75,128,28,31,25,103,107
48,76,132,25,28,28,113,111
46,81,130,28,30,31,122,118
35,87,110,27,29,30,92,110
34,90,110,28,29,31,104,147
32,92,116,29,31,31,111,152
37,86,106,31,31,32,105,143
36,104,130,32,29,34,94,133
37,129,159,33,27,34,96,139
43,135,167,35,26,33,95,125
46,135,166,38,27,32,123,138
41,137,159,35,26,27,121,136
43,127,149,38,27,23,121,135
45,95,128,37,27,23,119,128
43,110,112,36,28,24,108,103
40,108,106,36,26,24,65,72
45,110,103,38,28,31,74,97
43,113,82,35,26,31,74,99
43,138,102,36,28,31,83,104
39,120,123,40,27,31,81,104
46,126,123,39,28,32,103,142
42,121,129,38,27,26,95,128
44,115,134,42,31,26,94,129
46,110,109,45,32,23,85,132
50,110,90,40,31,22,85,132
46,108,97,41,37,22,74,92
47,114,85,42,38,23,80,107
56,135,76,36,34,22,82,135
59,114,104,33,32,25,94,142
58,110,104,35,34,32,109,154
58,113,130,30,26,33,94,149
57,110,147,30,23,34,88,137
46,79,152,32,28,37,88,121
41,84,138,33,28,39,84,116
42,96,161,36,31,35,77,125
41,98,168,37,34,40,92,142
41,96,155,36,37,42,102,150
43,100,158,34,35,40,102,148
42,108,167,34,36,41,134,181
36,97,154,32,39,43,132,179
34,98,140,30,38,38,137,173
36,105,161,42,40,43,132,167
32,103,169,43,41,45,139,179
29,106,169,42,40,43,116,144
32,107,165,45,37,41,127,133
35,108,167,49,41,44,128,135
38,110,184,46,46,35,130,142
38,112,191,48,50,42,152,175
39,98,190,55,54,46,144,175
40,99,199,56,55,48,136,183
39,116,189,52,52,49,117,173
40,126,169,49,46,53,132,197
46,134,153,50,43,46,94,154
48,136,152,43,37,44,93,150
51,160,142,40,38,42,88,146
55,154,134,42,37,39,88,144
53,143,134,43,39,36,69,108
50,140,151,40,36,35,69,109
49,144,178,38,38,33,65,107
43,129,188,36,31,29,58,89
41,129,204,36,32,29,55,88
39,140,199,35,30,26,34,72
40,142,185,35,31,26,31,57
43,149,156,36,34,41,47,79
47,154,148,41,38,47,66,100
46,151,176,45,37,46,69,99
52,151,200,48,36,46,68,99
51,143,205,50,38,46,69,98
47,130,203,54,39,39,60,76
62,131,208,53,37,35,37,43
63,122,170,51,38,36,58,96
57,108,155,48,40,37,68,104
61,116,146,48,42,44,70,109
64,156,151,48,38,40,73,119
46,156,141,45,39,38,75,121
45,168,147,46,45,42,59,88
55,187,177,57,48,41,47,81
55,196,190,57,47,37,64,95
55,187,241,55,49,36,72,99
57,186,248,56,49,37,72,101
59,186,252,53,46,32,74,100
57,167,234,40,43,34,75,98
56,164,235,40,42,43,81,81
55,157,176,40,39,43,73,60
57,149,173,46,45,46,105,156
55,134,169,46,42,45,103,160
46,132,166,47,39,43,103,162
46,133,155,44,37,30,92,161
47,119,174,43,38,33,100,167
43,136,198,39,28,34,66,96
47,166,226,47,37,35,71,104
46,176,237,47,38,36,78,128
51,168,238,48,40,44,71,130
50,182,241,50,44,63,82,128
57,172,242,57,58,70,83,120
54,141,228,51,55,72,81,111
57,147,263,51,63,71,74,86
59,148,272,53,66,74,74,86
58,135,298,55,67,62,63,101
49,153,280,48,64,54,66,105
50,156,285,51,66,51,63,102
50,157,246,51,61,54,65,99
51,167,236,48,57,45,63,96
50,165,208,48,53,38,47,74
55,147,275,58,45,39,56,84
53,144,280,55,41,43,56,83
52,149,272,58,42,48,53,87
47,152,306,61,48,49,59,103
48,149,298,57,46,49,68,114
42,160,263,43,44,46,55,100
45,170,269,54,44,42,65,118
46,152,262,49,42,35,88,143
47,135,233,48,39,39,88,131
44,151,237,48,41,41,87,120
50,153,236,50,42,41,89,123
50,176,206,47,43,45,97,149
50,181,220,48,48,52,79,121
51,175,203,45,45,47,86,130
54,160,194,47,44,49,82,132
57,139,171,43,42,64,93,146
57,103,230,47,48,66,81,122
56,100,234,44,42,60,86,120
49,120,267,49,55,64,85,121
60,128,268,52,59,67,88,127
55,133,257,51,58,56,87,133
56,147,212,41,55,50,87,120
63,157,204,48,60,58,86,125
64,153,190,45,48,56,82,131
53,151,211,45,46,50,82,147
53,168,219,45,47,44,67,130
54,153,214,46,42,46,75,132
44,140,204,39,36,37,70,128
44,136,184,40,36,32,62,108
44,134,153,40,31,32,57,75
42,106,142,41,31,36,55,75
38,120,139,39,28,33,60,75
39,125,140,39,26,30,68,78
40,122,137,36,24,30,71,88
42,123,164,37,28,30,72,102
41,128,169,35,27,27,74,107
47,119,179,46,35,40,72,107
47,114,180,47,37,41,66,103
47,133,179,47,41,42,64,97
51,140,159,47,40,42,65,82
52,137,157,46,42,42,91,151
49,141,156,40,45,39,84,155
52,138,158,44,46,41,91,156
51,128,162,47,44,42,89,155
42,117,167,55,49,43,89,156
44,117,159,55,52,44,61,79
39,107,146,52,44,35,84,142
49,136,152,62,60,37,88,164
53,137,158,63,59,35,99,172
55,137,162,58,60,35,103,188
53,136,162,58,56,42,106,192
54,131,175,64,61,47,85,148
45,103,201,56,47,44,87,125
48,91,209,56,51,46,86,136
59,112,204,58,51,50,93,120
63,111,209,60,53,45,100,130
64,113,204,51,46,39,105,127
64,146,183,46,41,38,101,133
60,151,194,43,38,36,92,109
48,139,213,40,35,30,83,109
46,141,234,38,34,31,77,87
42,147,229,41,35,37,94,112
49,117,231,48,43,43,107,120
47,113,203,47,41,43,111,122
48,114,186,47,44,44,114,132
46,113,153,47,43,39,121,140
46,104,147,46,43,37,103,121
52,130,150,44,46,32,88,127
52,127,159,44,47,32,91,126
57,129,174,47,43,41,89,107
62,142,194,56,48,46,83,103
68,150,221,64,49,48,164,176
64,135,216,64,40,48,168,170
65,136,228,66,43,51,168,176
63,149,206,65,43,45,167,180
62,145,199,60,40,42,163,177
58,168,200,59,39,38,100,126
57,164,203,54,39,38,88,115
55,169,193,54,37,38,82,121
54,169,199,50,34,37,79,115
48,164,192,51,39,37,77,113
51,149,178,43,38,37,49,85
50,187,179,51,42,36,71,105
51,190,177,55,45,39,77,113
59,191,185,56,46,43,82,120
61,199,185,52,39,43,82,123
64,200,178,54,39,43,86,124
62,165,173,52,39,42,71,105
65,164,172,46,41,35,62,80
63,177,196,52,48,46,64,70
68,191,205,50,51,46,71,82
65,208,231,49,55,46,78,115
65,236,223,44,56,51,86,125
64,257,235,49,54,53,100,129
56,240,220,46,49,47,94,129
50,240,224,49,48,51,89,119
44,221,214,50,46,54,80,86
50,208,276,58,44,52,65,66
47,199,278,58,44,50,88,81
49,193,274,59,44,44,90,83
49,192,268,57,40,38,89,84
63,193,285,60,47,36,92,84
60,181,233,58,51,36,94,86
59,183,219,54,50,36,48,57
61,193,222,53,48,42,46,51
61,175,223,53,50,45,53,58
60,180,204,57,44,43,50,68
59,173,214,54,39,41,53,82
58,142,235,60,38,43,55,84
56,131,218,59,42,41,57,85
54,133,212,61,43,41,53,79
40,116,199,57,42,43,58,75
40,132,231,56,51,54,56,69
44,142,233,55,57,53,63,95
45,156,233,54,56,55,79,101
49,154,248,53,58,59,76,104
58,163,267,60,60,67,77,101
56,166,243,59,52,56,76,95
59,167,231,54,47,56,76,84
60,158,263,52,47,69,75,95
56,155,261,58,45,71,104,107
49,150,263,52,45,67,101,106
51,141,273,57,46,66,103,109
50,138,274,63,47,67,98,108
46,135,255,70,50,49,85,88
46,134,248,67,50,39,42,70
51,126,312,66,61,42,51,77
48,160,290,61,59,42,85,105
45,152,286,62,61,41,88,95
49,159,314,56,56,47,90,98
48,159,314,70,60,53,91,97
49,169,232,71,48,51,89,93
49,133,262,75,52,55,56,72
47,137,276,74,48,55,50,74
45,165,244,76,50,50,52,80
44,167,259,67,43,44,50,78
36,168,259,69,45,38,41,76
36,173,260,75,43,37,38,60
34,169,255,73,46,42,57,85
34,138,254,77,44,46,79,85
44,141,276,80,45,50,82,101
46,142,287,84,42,53,82,102
45,139,285,81,39,50,81,101
47,136,275,80,39,52,72,78
45,125,271,81,40,56,43,72
41,125,228,75,45,59,52,62
42,107,222,71,49,58,63,71
44,103,249,72,58,62,73,80
44,111,262,74,55,62,77,91
45,125,257,67,57,58,84,109
39,117,263,69,57,57,106,151
34,122,268,64,53,54,102,156
33,116,226,62,46,52,100,153
34,114,232,58,52,47,97,149
35,111,284,61,54,60,96,139
37,117,294,60,50,62,89,124
46,145,301,67,49,62,91,115
55,153,295,63,50,63,95,119
55,158,310,67,43,62,94,118
54,165,294,67,39,59,99,114
57,176,304,76,43,58,80,89
51,148,277,67,42,58,78,103
42,149,286,72,38,58,75,113
41,152,264,76,43,65,75,115
50,159,278,79,42,61,63,112
49,159,250,69,43,106,62,100
51,167,251,69,47,263,79,92
55,186,243,69,54,278,108,112
59,205,227,62,52,282,108,110
56,198,212,58,54,284,107,126
61,190,212,61,58,285,129,148
59,198,229,70,61,163,128,170
54,185,282,71,56,213,108,153
58,181,329,67,62,223,114,181
58,189,313,70,68,240,120,188
50,194,328,70,63,230,119,179
71,227,347,67,71,237,119,159
73,216,327,68,71,174,116,158
72,213,300,83,77,164,114,159
75,204,331,80,70,166,114,153
82,223,320,80,74,162,101,172
69,180,311,76,66,154,94,200
68,203,361,85,73,165,87,203
68,222,416,96,67,162,92,206
64,219,396,100,69,192,89,197
59,204,418,113,73,262,83,177
63,208,440,115,80,262,89,179
83,202,460,121,102,256,110,199
85,186,466,124,125,317,117,191
89,227,500,122,125,357,120,188
103,231,535,119,125,491,165,196
104,241,517,149,129,510,165,162
91,247,486,137,114,516,178,204
90,246,461,120,93,483,191,239
89,245,447,135,97,448,198,246
74,283,423,132,93,266,163,259
84,299,424,101,83,240,158,263
82,284,404,101,77,232,130,211
77,276,374,101,69,227,102,150
79,259,353,88,68,260,82,151
82,218,381,90,86,254,117,220
66,192,414,83,88,242,132,247
64,197,422,92,92,250,132,248
65,187,415,90,94,265,134,259
57,170,489,85,100,213,162,309
49,180,441,77,82,176,136,250
47,182,448,77,87,173,122,221
60,178,421,59,82,158,123,222
62,195,466,67,85,144,146,292
62,191,401,64,74,135,141,250
61,167,419,62,75,144,140,250
60,174,370,61,65,169,147,257
50,207,386,60,63,179,149,259
46,192,339,64,66,162,125,162
43,216,348,66,63,148,109,147
44,229,388,75,65,157,121,157
46,230,381,76,63,129,120,169
44,211,363,79,65,118,120,168
45,218,400,80,64,119,117,166
50,197,363,78,67,122,101,161
47,182,306,73,63,121,90,143
48,155,308,73,63,122,93,113
55,137,318,77,68,115,83,102
55,123,259,67,60,110,81,96
59,119,328,83,71,126,103,125
59,112,307,79,70,112,113,162
56,133,382,83,71,111,130,171
53,140,376,80,66,118,135,173
53,149,382,81,65,128,144,195
48,157,335,63,53,115,135,190
51,151,342,62,53,110,125,158
51,129,248,68,50,105,95,149
53,128,272,70,49,97,87,148
48,117,274,74,50,81,70,119
45,124,266,73,43,79,95,154
44,130,242,75,43,79,104,167
46,137,254,68,44,91,106,164
45,138,237,64,55,92,116,183
52,146,203,59,51,94,126,206
55,127,240,64,55,96,102,167
88,127,283,71,56,102,110,176
97,160,281,67,56,127,117,177
107,168,293,79,53,126,111,183
104,162,304,86,56,129,102,156
106,174,314,84,57,127,97,150
81,171,286,75,55,141,87,146
70,147,300,81,58,114,84,161
49,129,286,71,49,110,86,146
52,139,273,60,46,108,81,154
48,135,275,65,49,108,81,170
47,141,279,68,49,116,68,159
46,129,270,59,46,111,77,156
51,134,260,54,43,116,78,157
49,129,269,57,46,116,83,164
49,132,226,48,40,112,85,146
53,128,216,50,45,82,100,181
59,121,210,51,49,78,93,208
77,185,206,56,56,81,105,233
88,197,205,53,56,82,109,243
105,191,221,54,59,83,109,252
114,200,249,50,57,72,113,249
113,200,237,51,51,91,109,224
103,136,239,51,47,87,107,209
103,120,239,54,45,84,99,194
97,126,250,54,42,95,113,199
87,111,221,53,42,99,99,172
84,139,234,53,45,79,100,182
84,160,236,47,42,75,100,167
78,188,266,51,44,80,103,167
67,184,262,46,42,67,86,144
69,210,264,44,41,68,101,169
69,204,261,48,41,74,97,175
74,213,271,55,46,79,82,170
68,186,266,48,43,71,82,163
68,196,228,58,51,76,106,190
64,167,231,61,53,71,121,181
64,170,237,58,53,68,129,161
57,145,228,54,54,61,131,160
57,155,267,57,58,60,130,173
62,154,276,50,51,63,129,172
73,164,273,47,48,68,143,219
74,156,259,47,49,66,141,239
79,174,266,53,47,66,139,242
100,167,212,54,48,80,141,239
103,158,207,53,47,75,161,247
98,162,201,59,54,69,148,247
99,176,201,56,53,76,145,231
93,160,183,54,54,78,150,235
77,168,152,52,50,67,155,236
68,166,153,54,50,64,135,237
76,176,169,52,45,67,104,188
73,166,174,52,44,61,106,185
75,168,173,47,38,60,99,177
74,169,197,47,40,56,91,185
74,184,194,49,42,54,67,154
61,164,182,46,43,58,106,157
64,192,189,49,45,57,106,163
61,182,206,53,47,55,112,191
61,168,199,59,42,53,116,195
57,155,208,61,47,62,115,189
58,178,205,62,44,64,85,181
57,147,193,62,43,64,81,169
76,153,200,60,46,66,86,155
73,155,195,53,49,72,111,136
78,178,211,50,45,68,112,135
81,171,232,54,51,67,118,154
89,162,234,54,50,65,123,178
81,162,215,52,47,62,123,168
77,184,208,53,47,56,97,164
78,171,209,49,44,53,93,162
75,165,207,42,37,41,83,133
70,172,200,43,40,54,110,144
63,175,216,47,44,56,122,162
61,151,216,44,39,57,120,161
61,140,189,51,45,56,124,165
62,132,162,49,44,55,128,176
67,170,206,49,41,62,124,190
66,167,239,47,36,67,108,167
83,178,258,50,41,67,108,169
79,176,265,45,37,67,105,166
77,175,286,46,45,74,124,188
72,134,264,55,47,64,111,153
80,125,216,52,46,55,121,156
73,121,233,59,56,57,148,196
77,125,218,56,55,55,153,203
79,139,226,72,63,50,141,230
79,146,218,65,63,39,146,227
71,183,221,68,65,42,144,225
63,186,208,70,58,41,121,210
60,184,210,69,59,42,114,203
56,174,219,54,45,38,128,152
58,173,217,54,41,39,116,150
58,156,214,52,39,41,103,151
61,158,187,40,33,45,98,133
66,176,195,40,35,46,114,154
64,180,187,51,44,51,100,144
59,177,191,50,44,50,95,137
59,169,192,50,46,50,114,178
57,164,193,48,46,43,112,171
49,154,203,52,43,42,95,152
50,156,170,39,33,35,86,151
48,151,182,43,32,38,89,157
58,144,197,42,31,47,76,119
59,134,210,45,38,51,88,135
63,142,242,47,41,53,88,133
64,129,262,49,43,57,106,163
68,131,259,47,46,56,112,183
57,125,259,46,46,56,109,185
53,122,242,47,42,59,108,178
48,100,200,42,40,57,110,177
46,108,167,43,40,57,104,154
43,140,185,40,38,56,104,138
49,147,165,41,40,47,99,127
48,145,166,43,40,40,94,122
51,142,163,45,40,43,97,125
50,135,185,43,36,44,79,133
57,150,209,45,39,47,69,124
60,160,217,43,36,48,81,126
65,163,219,41,36,48,85,145
64,171,224,40,35,46,83,157
74,200,216,39,37,41,81,149
67,175,176,34,35,35,85,140
68,169,179,41,38,40,80,143
62,169,169,38,35,39,72,123
64,175,169,45,39,40,91,121
55,159,150,46,38,42,98,115
63,153,138,45,37,41,96,121
56,144,146,54,42,40,104,152
56,146,145,55,43,38,105,153
55,146,214,56,54,57,154,194
55,152,219,55,55,57,154,199
47,147,216,55,54,59,155,199
45,145,206,44,53,58,152,173
45,156,215,54,58,60,150,168
48,140,134,52,47,43,93,183
48,127,129,51,47,42,89,182
48,131,156,54,49,41,92,184
53,153,151,56,49,39,88,199
63,149,177,48,43,34,91,209
68,151,194,45,43,32,90,156
65,146,198,47,42,31,110,172
65,138,184,43,39,31,112,176
62,126,178,39,31,28,135,220
53,118,176,40,34,30,136,209
45,121,164,37,32,29,129,200
51,112,165,36,31,33,125,184
50,124,168,40,33,33,116,174
52,113,176,42,34,32,93,72
53,108,155,41,30,32,94,85
51,103,150,51,40,52,91,99
55,112,150,51,37,50,72,110
58,105,150,51,37,50,91,108
55,107,158,51,38,51,83,109
55,128,156,50,43,54,76,98
55,129,168,41,35,39,76,86
54,125,167,42,39,39,78,66
50,130,156,40,38,41,75,113
48,122,149,39,36,44,76,120
44,105,140,37,34,44,95,131
47,119,119,41,39,45,96,133
40,129,114,41,38,45,100,136
45,161,145,48,41,46,90,114
51,169,145,45,42,50,85,106
55,167,145,49,40,60,75,105
51,157,150,50,39,63,102,127
51,144,182,51,40,73,101,130
59,104,177,47,39,72,99,142
56,107,175,51,43,70,102,143
56,114,192,52,43,64,102,151
56,114,192,50,40,67,86,146
54,116,175,53,39,64,86,149
43,115,163,52,37,63,92,133
44,123,168,51,36,63,97,139
42,109,168,48,36,77,89,133
44,118,183,49,35,75,85,120
43,136,186,48,36,73,78,115
41,132,199,55,38,75,75,112
37,115,201,56,44,76,65,104
36,113,182,58,46,58,65,94
34,102,179,55,46,69,59,82
31,99,178,58,50,66,64,78
29,135,192,56,52,64,57,75
32,146,189,54,48,66,67,101
35,152,207,55,52,71,82,120
36,151,195,55,53,61,85,122
36,137,204,58,51,65,84,121
42,123,225,64,53,64,85,128
38,111,246,68,49,63,77,107
40,107,250,70,43,64,73,99
40,107,266,71,45,59,74,92
40,106,264,71,46,55,69,98
34,100,276,65,40,74,84,91
35,107,270,59,47,73,86,103
34,106,257,57,50,66,84,95
35,110,244,60,52,68,79,97
69,116,229,54,52,92,81,103
105,131,167,53,53,83,77,104
110,123,143,55,50,91,74,102
114,122,149,61,51,101,79,112
115,123,151,59,47,107,90,120
103,126,186,68,47,93,97,151
67,97,180,67,44,89,91,151
59,95,187,65,46,86,107,160
60,102,199,57,41,85,109,154
63,115,205,58,42,76,107,153
58,118,198,46,41,86,103,119
57,120,230,52,43,90,101,121
58,121,243,55,40,91,88,108
53,111,232,57,40,83,91,110
47,97,232,60,45,84,101,117
42,87,224,63,50,71,109,125
45,84,207,63,51,66,109,123
43,89,192,65,53,66,106,124
42,97,214,71,59,67,103,140
43,93,213,71,57,71,90,138
51,86,252,74,55,69,80,135
50,82,247,72,55,69,86,139
50,78,239,69,54,66,87,129
45,74,223,65,48,67,74,105
67,73,217,59,48,61,69,107
61,72,166,54,44,63,61,95
63,73,212,71,52,63,51,89
64,68,210,71,52,53,68,109
66,63,222,77,60,58,90,135
41,58,215,74,58,63,91,130
42,57,219,78,57,60,90,128
41,53,189,66,51,60,100,135
47,59,188,63,49,58,90,124
47,59,169,57,42,48,78,126
51,61,178,60,45,52,80,126
52,61,162,53,45,65,86,127
52,67,139,52,41,65,72,124
47,63,142,57,47,67,72,126
46,63,149,60,48,69,72,118
41,63,147,64,46,66,73,113
37,66,201,66,47,53,74,123
33,55,203,64,47,59,76,122
29,55,231,70,47,56,79,136
27,55,241,65,51,61,82,128
27,51,238,61,51,52,74,125
28,43,203,59,49,49,70,115
30,45,227,60,47,50,82,116
30,45,207,52,45,63,92,94
30,42,184,54,42,60,84,99
32,48,207,55,41,64,89,108
29,47,213,54,40,73,97,120
28,45,194,50,40,72,89,125
31,47,200,49,46,85,99,136
31,50,206,45,43,89,97,123
28,50,186,46,49,91,93,115
29,50,180,51,53,89,93,120
30,54,168,52,55,92,93,115
27,51,147,51,52,79,75,107
28,50,138,47,50,79,73,104
30,46,156,51,54,80,73,103
30,53,188,58,54,74,57,80
28,57,209,55,51,68,65,82
30,58,227,59,51,66,67,101
30,58,231,60,51,57,82,117
28,60,217,57,39,56,81,118
28,66,203,54,38,61,85,122
29,58,179,54,43,64,75,118
31,58,162,55,38,64,69,95
30,56,173,58,37,72,52,85
32,54,171,56,38,76,70,95
31,48,143,46,37,74,67,90
33,48,140,46,32,71,65,86
32,51,141,39,34,69,67,102
31,53,143,34,40,71,68,96
30,54,150,31,36,65,65,89
31,48,148,31,37,65,70,90
31,47,172,46,42,68,76,90
29,46,173,46,43,66,94,107
34,46,167,48,40,68,97,102
32,47,186,58,43,68,89,103
36,44,184,60,43,65,84,100
35,48,168,56,41,65,85,102
33,46,177,56,38,68,68,74
30,42,171,54,41,65,60,95
33,43,173,55,40,71,78,98
29,47,194,52,39,74,88,105
27,45,187,47,37,71,84,98
32,48,232,56,40,67,82,93
35,47,235,60,36,75,82,72
34,43,218,51,37,71,62,62
34,39,207,60,42,72,64,74
34,37,211,64,47,72,67,90
31,32,147,58,46,71,70,94
28,40,150,56,49,57,71,96
29,42,148,56,47,58,72,100
29,41,138,46,41,56,62,85
31,41,128,43,35,59,67,80
31,47,173,54,34,58,59,86
28,40,158,51,27,60,59,87
26,39,163,55,31,54,72,95
23,41,167,57,31,61,67,94
21,40,184,57,34,58,59,88
20,36,151,46,34,58,57,78
21,39,165,47,34,51,55,72
18,45,186,50,34,53,48,59
33,46,181,57,42,41,54,65
39,46,163,55,41,38,71,104
41,47,174,58,42,35,72,100
43,46,160,58,42,35,76,106
166,40,136,54,41,29,76,106
250,40,146,45,32,26,76,107
249,41,153,45,29,25,64,66
251,39,127,39,33,26,63,66
253,36,145,44,35,29,61,61
196,35,138,43,33,34,54,57
60,35,130,43,34,39,58,75
61,37,137,40,35,39,64,92
48,41,153,47,35,38,71,94
40,45,151,48,36,36,69,101
36,46,152,47,35,32,67,102
31,43,144,46,35,27,59,84
28,41,138,47,35,32,55,80
34,39,132,44,31,33,74,101
33,36,141,43,30,35,93,116
35,37,169,48,29,35,93,119
34,40,189,56,34,36,96,120
36,43,193,57,32,30,93,113
36,49,207,58,33,31,90,127
38,51,187,55,31,36,75,109
37,54,170,53,33,39,78,112
39,57,163,45,31,39,76,111
37,61,175,51,35,42,83,110
32,56,152,47,33,41,76,112
31,63,165,46,32,56,88,125
41,72,165,43,30,55,93,130
44,73,159,42,28,56,95,131
45,70,143,33,28,58,95,145
47,69,143,36,28,58,93,131
54,65,128,35,28,38,94,122
46,54,115,39,29,37,96,111
45,53,135,47,32,34,95,121
45,54,172,52,31,29,90,106
42,57,169,48,29,32,83,88
35,52,171,48,30,33,78,80
35,56,181,49,40,34,66,89
34,53,175,46,40,36,94,116
34,58,157,40,38,35,96,129
39,63,185,46,42,40,95,128
40,66,218,55,43,48,95,146
43,67,213,52,37,47,99,149
43,69,217,55,35,45,77,129
45,70,230,61,36,47,87,126
41,65,212,58,34,44,93,138
42,64,216,58,34,39,101,129
38,60,223,60,32,41,102,126
42,64,208,55,31,46,103,130
42,71,206,52,33,46,88,118
43,76,203,50,31,46,82,105
40,76,164,40,31,45,79,120
43,88,181,36,29,41,82,118
40,90,191,41,31,36,79,110
40,90,158,41,27,35,91,113
40,91,161,44,26,30,91,116
43,92,164,47,28,36,76,89
41,81,137,47,30,40,112,115
40,74,119,42,28,41,110,109
42,68,145,44,32,43,116,112
49,95,151,42,33,44,117,115
52,101,172,39,30,34,120,116
53,104,161,42,30,33,80,98
53,105,164,41,31,36,98,112
52,100,147,35,29,33,89,116
53,75,138,36,29,33,89,124
57,72,131,40,33,33,87,126
58,68,153,36,31,29,89,113
66,76,195,54,36,25,85,118
70,87,194,55,34,24,84,119
68,91,215,56,36,24,91,115
63,90,212,55,32,24,89,109
65,101,206,55,35,26,126,181
60,98,172,46,31,33,118,174
52,94,177,46,34,38,119,168
53,100,165,44,32,37,115,173
60,94,147,43,33,38,117,175
55,93,143,44,31,36,74,105
61,101,161,40,31,31,76,103
60,103,153,38,31,28,82,112
59,98,143,40,30,32,98,117
50,113,158,45,30,32,106,143
49,111,155,49,33,34,115,141
39,102,127,45,30,33,114,141
41,94,150,48,29,35,119,146
41,92,144,46,29,31,112,138
45,76,129,39,29,30,120,125
47,70,133,35,26,29,115,149
49,73,161,40,31,28,117,151
48,72,149,35,30,26,134,166
44,66,153,36,31,27,133,174
43,79,157,38,32,36,123,174
42,79,174,36,31,39,141,158
38,80,179,31,28,38,140,159
40,92,181,37,29,38,108,147
40,94,181,42,31,37,114,134
55,84,176,41,31,30,125,135
54,84,167,42,33,30,100,126
56,86,159,44,33,34,97,119
55,78,139,39,31,33,98,102
56,90,155,33,29,33,106,116
39,94,158,34,31,32,87,99
41,99,142,31,31,26,83,103
43,108,170,31,33,23,92,118
41,113,197,33,34,23,98,114
40,105,194,38,35,24,80,96
42,101,207,39,33,24,79,101
44,100,234,52,33,25,78,101
38,84,200,50,30,23,66,84
37,81,181,50,32,24,68,90
36,83,193,51,33,23,68,93
34,84,193,53,36,24,72,98
32,79,176,47,38,25,83,101
34,84,224,54,39,26,80,99
35,90,232,56,39,30,90,103
34,85,231,59,40,36,87,94
33,83,236,65,41,38,86,88
32,83,232,63,36,38,74,80
33,97,236,67,37,38,75,76
32,88,233,70,36,35,57,62
35,85,227,68,37,30,76,90
37,94,232,63,38,28,74,90
33,97,240,63,40,26,74,90
36,78,196,60,50,30,84,106
42,78,216,64,55,31,90,138
39,81,215,67,54,38,95,145
37,76,221,65,52,47,104,155
58,83,244,65,53,49,113,159
66,104,245,59,44,47,110,151
73,127,243,53,42,49,108,123
77,137,268,49,43,48,93,99
80,138,250,51,47,44,86,94
69,130,226,53,48,45,84,92
64,113,216,55,50,45,80,91
54,86,193,58,50,44,91,96
53,82,156,57,48,41,88,92
50,93,159,55,45,36,83,72
49,99,142,48,42,35,75,66
43,100,160,49,40,37,92,73
50,117,183,53,39,40,92,71
45,114,212,53,42,38,102,91
44,101,231,54,42,40,102,93
42,97,248,56,46,40,103,94
43,94,246,59,53,40,100,89
35,75,229,55,54,37,81,80
38,71,217,63,53,36,78,71
47,84,196,66,59,41,104,88
46,86,201,66,61,42,116,90
52,94,197,66,60,49,134,131
48,91,197,68,61,51,141,145
48,84,181,66,64,53,137,140
39,67,179,67,60,50,119,129
39,62,168,67,56,48,108,127
38,53,170,65,58,39,86,86
41,59,179,63,62,41,83,74
40,64,168,58,60,41,109,91
39,64,171,53,59,41,120,94
46,71,187,55,61,42,121,95
41,71,194,54,53,41,109,90
44,79,210,55,48,37,106,82
43,75,213,53,43,45,76,60
43,79,216,54,44,45,61,75
38,76,201,50,41,44,79,91
39,76,208,47,41,47,86,108
38,65,188,41,33,48,83,109
43,67,207,57,44,44,83,109
45,72,198,59,44,44,81,100
44,69,189,58,43,45,70,83
46,71,207,66,47,48,78,84
40,78,236,72,52,46,90,86
55,82,268,62,48,46,102,91
57,78,273,62,45,46,101,102
61,87,284,66,51,49,94,105
62,83,262,61,48,46,83,89
68,78,241,54,45,55,72,92
59,76,202,53,45,58,63,91
62,83,227,60,46,57,73,77
59,75,225,62,41,53,78,106
56,77,220,62,45,52,77,107
55,78,255,68,47,50,86,103
52,73,237,70,50,47,92,103
67,85,261,68,55,48,93,118
68,86,258,63,55,48,95,102
69,89,263,61,51,50,108,103
66,90,230,54,48,51,96,96
65,91,241,50,42,49,86,91
41,71,177,35,30,50,76,74
41,73,191,42,38,55,66,66
41,75,185,42,37,66,75,95
38,81,176,46,42,65,90,102
40,82,173,54,47,63,88,103
39,83,175,57,51,61,88,100
37,77,150,53,47,62,91,97
32,69,148,55,50,54,70,68
31,58,153,54,51,54,81,85
30,64,148,47,46,64,83,87
31,61,148,51,45,63,91,89
37,62,149,53,49,66,91,89
38,64,150,51,46,62,88,86
39,64,188,56,50,63,100,94
40,52,178,53,51,53,101,98
44,57,188,50,53,56,101,97
41,56,178,46,48,50,101,97
45,70,184,56,54,49,102,97
53,69,161,51,53,45,105,112
52,70,169,52,56,50,106,111
50,72,169,51,52,52,129,145
56,75,199,52,51,50,129,144
53,65,221,48,48,52,144,166
44,59,205,42,40,49,123,144
44,59,211,42,35,47,122,147
42,53,206,44,39,48,93,116
34,46,184,45,40,50,102,122
39,46,158,42,39,53,87,105
39,49,163,44,38,57,79,106
39,50,194,58,41,57,78,102
40,53,213,56,37,50,79,109
40,58,227,58,37,57,74,118
36,57,228,59,38,59,86,136
37,60,229,58,37,54,97,133
38,63,207,45,34,51,97,135
40,64,195,47,37,51,94,130
42,71,182,46,37,45,85,116
39,70,177,44,32,46,68,90
38,68,170,42,34,47,60,94
38,72,168,44,37,50,61,102
39,72,166,42,35,51,71,100
36,65,166,36,35,49,75,106
37,66,163,35,38,42,76,109
37,65,187,40,38,42,68,99
35,57,177,36,34,41,63,84
30,56,162,37,38,40,75,117
34,58,152,43,42,42,75,113
36,59,181,44,41,56,73,110
36,58,156,44,42,57,73,110
40,69,201,52,50,63,120,136
38,68,202,50,49,63,113,116
34,65,207,48,45,63,112,116
36,63,188,46,44,49,112,109
35,66,186,44,44,45,112,107
32,59,146,39,39,35,65,79
33,60,143,39,36,37,72,64
35,60,137,40,38,42,74,76
33,60,147,43,40,41,75,77
45,76,181,54,45,45,91,89
44,71,197,59,42,43,89,84
43,72,214,62,42,39,79,88
42,73,215,61,43,47,77,84
41,74,206,61,47,55,86,85
30,54,182,51,41,53,69,73
33,61,161,44,41,54,68,68
32,56,142,37,40,54,68,64
33,64,166,39,39,43,124,94
30,64,174,40,31,41,121,102
38,69,178,42,32,46,122,103
34,75,191,39,30,45,124,105
41,79,193,46,33,45,140,126
44,80,170,44,31,43,102,108
43,79,160,43,32,33,95,97
37,79,152,44,34,40,97,97
39,73,136,47,38,42,99,107
35,73,130,47,37,41,77,90
36,65,138,48,36,42,68,81
39,76,129,48,38,47,71,85
44,79,138,49,38,40,76,87
43,81,141,48,38,40,83,98
46,88,142,42,37,40,78,89
45,89,137,40,37,43,85,99
42,84,146,36,34,41,83,104
51,82,159,38,31,37,86,118
52,77,151,41,30,36,78,126
54,75,161,42,31,39,91,136
54,85,157,45,29,40,95,134
58,82,157,47,31,38,97,140
48,82,134,41,29,39,89,127
48,85,145,41,28,40,88,120
51,86,133,42,27,40,81,112
64,96,133,38,28,37,70,106
63,97,151,44,32,38,82,103
63,100,176,49,32,37,87,117
68,104,171,48,33,35,87,112
67,110,183,49,34,31,87,132
68,98,189,49,35,28,88,143
77,107,211,48,33,27,89,154
88,134,235,48,35,28,99,184
91,144,249,46,37,27,105,218
88,153,247,46,38,25,104,209
89,193,261,61,42,27,107,209
85,194,238,56,42,27,95,199
74,179,209,61,46,27,94,174
80,184,191,63,47,27,88,122
107,246,201,62,47,36,100,129
102,226,183,54,47,40,111,128
116,243,233,60,46,40,113,139
147,264,257,56,44,39,105,141
151,273,265,53,46,41,119,212
136,217,264,54,48,36,121,217
134,209,266,52,46,32,109,225
123,190,230,48,50,34,130,222
88,165,198,49,54,36,159,236
83,173,194,47,48,36,151,185
98,204,180,50,48,33,142,199
101,207,174,48,45,39,150,197
101,211,166,46,43,37,136,195
103,210,177,45,36,38,99,170
94,189,176,50,41,39,94,167
91,150,186,45,40,38,98,156
89,158,203,45,43,36,98,158
88,156,198,42,39,38,108,168
81,162,201,40,40,36,117,175
78,168,202,34,35,32,115,177
74,171,211,38,37,34,126,176
73,160,207,45,38,30,116,160
71,164,205,48,46,46,118,154
76,152,179,46,45,50,110,154
84,141,165,50,52,50,117,169
84,175,173,58,58,52,117,185
82,178,173,56,56,52,119,195
86,179,183,54,50,36,107,192
85,177,186,56,50,32,110,186
79,175,191,52,43,32,105,163
69,138,167,42,33,30,94,125
73,141,160,42,32,31,89,108
73,142,150,42,34,31,92,111
71,146,157,45,36,30,101,118
67,138,180,46,37,30,102,124
59,130,180,43,39,28,96,126
57,117,172,45,43,33,100,125
48,93,165,45,43,32,100,121
48,105,174,43,39,31,84,114
48,112,150,47,41,29,82,116
50,108,149,49,42,29,75,108
46,111,150,44,38,24,88,114
42,114,187,47,40,30,87,133
47,93,178,43,40,32,87,157
50,86,186,37,39,33,96,154
50,93,196,39,34,33,110,156
50,84,194,39,33,33,97,153
53,87,163,38,33,33,107,162
48,96,154,38,33,35,108,141
57,113,163,39,34,35,104,145
56,108,141,33,34,35,89,144
57,118,158,34,32,34,82,141
55,114,160,37,37,35,72,106
54,103,156,39,37,30,90,135
44,88,150,40,40,30,90,125
42,93,147,40,39,29,90,126
46,105,149,44,43,30,93,133
51,112,178,44,38,33,123,162
56,113,184,43,37,34,123,144
57,112,167,41,31,34,121,144
58,112,170,41,33,36,135,147
55,110,176,41,34,38,134,143
50,96,155,35,32,30,104,105
49,113,147,36,38,31,88,83
44,107,143,37,41,33,98,100
48,112,143,37,41,34,78,125
45,93,117,32,42,36,81,120
45,97,117,33,42,37,77,128
40,84,124,34,40,37,120,153
42,106,125,35,38,33,122,168
36,105,121,38,41,30,120,149
36,107,107,36,38,26,118,152
51,110,94,38,42,26,122,146
59,106,85,37,42,25,90,120
64,89,93,42,46,27,92,90
63,78,94,40,43,29,100,93
64,98,126,44,42,32,110,100
55,91,119,41,39,32,106,100
47,95,127,37,35,32,108,105
37,90,123,30,32,32,106,114
38,93,156,34,31,31,101,122
36,79,131,31,31,26,90,127
33,103,134,35,31,26,92,133
31,100,135,34,32,25,78,130
32,117,147,35,30,26,101,139
35,121,129,33,32,27,104,134
34,118,141,33,30,29,107,128
41,104,148,32,34,30,105,122
44,114,140,34,38,33,109,125
52,102,147,35,37,30,77,99
52,103,129,38,42,31,77,100
54,98,124,37,43,32,76,101
55,104,128,43,42,33,86,108
60,101,136,43,39,30,80,101
56,96,114,43,40,31,82,113
60,100,131,41,35,31,77,101
62,102,136,44,34,29,84,92
56,101,122,37,33,27,88,84
51,124,129,38,32,27,93,100
49,132,143,41,35,29,104,110
43,139,135,39,33,25,104,115
43,148,129,37,36,37,103,123
43,146,133,39,33,37,99,120
39,126,127,37,33,36,93,108
40,117,111,32,31,36,87,96
51,114,131,31,31,38,86,94
55,110,137,33,33,27,77,97
59,107,156,33,41,30,95,107
59,101,161,34,41,34,100,108
58,110,172,33,38,35,90,114
49,95,149,32,39,35,89,109
45,96,147,34,37,33,90,114
42,98,122,40,34,33,89,116
40,98,113,41,36,34,92,112
38,87,97,44,38,32,97,99
37,88,106,44,40,32,99,104
39,79,102,45,40,34,110,105
42,93,111,39,36,37,115,102
40,91,107,38,32,36,108,103
43,96,111,34,30,37,105,112
43,93,107,37,31,36,106,116
38,91,114,39,35,37,100,109
32,70,121,37,33,30,70,102
40,76,125,42,37,30,90,113
39,67,115,43,37,28,88,101
41,67,113,42,37,29,110,112
41,74,103,38,34,27,103,112
41,82,91,42,39,28,109,113
37,76,102,42,36,28,108,119
35,77,114,41,37,30,113,135
34,83,113,41,37,29,89,117
33,79,108,42,36,29,89,109
38,75,106,41,34,28,90,114
36,86,102,39,37,27,95,104
40,91,97,39,37,25,92,99
41,102,112,38,36,25,94,104
42,109,119,34,34,25,131,150
45,136,117,33,34,24,129,153
44,136,112,30,31,23,115,150
41,134,109,32,35,25,113,140
38,127,109,29,33,23,117,139
43,127,121,36,44,27,93,108
35,110,127,32,42,28,96,114
35,111,121,33,43,29,118,151
38,113,121,37,41,30,120,169
41,113,108,38,41,31,116,170
35,113,111,35,31,28,112,160
36,102,118,37,35,27,107,154
35,98,131,36,34,26,78,114
35,94,144,37,36,28,122,98
33,92,163,38,37,27,129,108
38,91,155,37,39,28,119,104
40,95,164,38,36,30,126,107
40,98,163,40,39,28,138,147
39,110,161,34,37,25,109,155
39,117,168,33,41,25,102,147
38,116,176,32,37,25,104,147
43,121,167,31,37,24,97,141
44,113,172,30,32,25,115,132
43,111,170,30,30,26,105,120
47,107,169,32,25,27,115,125
43,102,154,30,24,29,111,130
35,92,143,30,27,29,112,145
33,89,133,32,31,28,101,127
34,77,130,36,31,27,103,120
29,79,116,34,30,26,91,113
31,78,114,34,31,22,95,130
37,77,116,37,33,22,118,155
36,75,116,37,32,24,100,151
37,89,128,35,33,24,100,153
38,87,113,36,33,27,105,155
38,83,110,38,35,33,112,148
40,86,117,36,36,36,107,115
40,91,113,35,36,36,104,109
39,79,101,38,39,36,106,112
37,73,97,37,39,34,100,120
36,70,132,37,39,30,97,111
27,65,122,35,36,27,74,96
28,63,135,35,35,30,88,98
27,59,126,34,32,31,85,91
30,58,140,36,35,32,104,90
29,57,129,35,35,32,102,86
31,55,151,36,35,31,101,93
31,58,142,36,34,31,88,86
30,59,142,32,33,32,97,96
28,64,147,36,30,34,92,120
30,70,136,36,28,34,87,130
30,72,109,36,29,35,103,132
30,72,116,34,28,32,109,134
33,75,131,36,30,30,103,131
31,73,122,30,28,25,98,121
31,70,125,31,28,25,101,108
28,74,148,32,28,25,94,97
28,66,136,33,27,28,101,127
25,74,137,35,29,31,100,127
27,76,138,37,34,33,95,107
27,77,133,35,33,32,90,107
27,73,111,35,37,32,76,107
31,76,117,38,38,32,57,81
32,65,100,38,39,31,59,88
32,64,84,36,35,30,84,121
34,69,103,40,37,30,84,120
35,75,106,40,36,28,101,139
33,77,103,39,37,27,104,138
33,79,115,36,34,24,101,134
33,75,139,37,35,23,80,111
35,70,130,37,37,24,94,126
35,63,128,35,32,23,86,114
37,60,134,39,36,29,93,113
38,80,125,40,37,29,103,124
40,89,105,37,36,29,105,134
37,90,97,35,33,28,111,155
41,93,97,35,35,29,112,186
39,91,86,33,29,22,104,187
40,80,94,36,35,24,95,179
39,71,98,39,34,22,87,168
38,72,122,42,35,23,60,134
34,72,137,46,37,23,59,84
34,81,141,46,43,25,68,90
30,73,143,43,37,26,70,91
32,82,137,43,39,27,76,94
31,75,127,44,39,27,87,100
31,74,113,41,37,26,78,94
31,73,110,37,35,27,70,77
34,75,101,40,39,28,125,144
30,63,104,45,41,27,131,149
30,74,133,42,41,29,133,159
32,78,158,42,41,29,143,169
31,73,158,44,39,34,151,173
29,70,159,40,33,34,121,130
30,71,166,34,34,34,114,124
31,64,140,34,32,32,114,110
34,59,133,39,36,34,108,107
35,74,135,38,35,28,100,118
35,73,142,41,36,29,102,114
38,105,185,43,34,29,102,140
39,117,206,46,36,31,97,155
35,120,196,39,32,30,103,157
33,114,210,41,32,29,102,143
33,114,205,39,32,26,88,141
28,84,160,35,31,25,92,131
26,70,145,35,29,23,90,114
29,77,148,34,31,23,76,101
30,70,128,32,32,23,100,108
31,68,126,34,37,26,111,138
32,72,130,35,38,26,107,129
35,72,112,33,36,24,112,131
33,62,106,35,37,25,118,129
33,69,100,40,38,26,117,142
32,73,103,41,39,25,110,126
35,90,120,41,39,26,109,127
34,94,116,41,42,27,101,120
34,99,138,48,41,27,97,120
34,97,138,45,41,27,84,107
33,98,137,41,36,26,82,97
33,78,117,41,36,27,103,112
30,76,128,39,35,26,104,117
29,67,98,27,32,26,98,114
31,70,106,29,31,24,93,123
32,77,142,31,29,23,92,116
32,89,154,32,32,24,92,104
32,84,146,31,29,24,97,102
34,83,145,31,28,23,110,122
29,77,138,29,26,24,118,105
32,80,160,35,29,24,118,115
30,68,149,32,22,24,103,110
35,70,158,42,25,25,102,114
32,68,158,42,27,24,90,91
35,67,162,44,31,25,90,99
36,52,112,38,31,24,88,95
37,72,121,40,33,25,85,91
34,77,106,30,30,23,79,87
35,77,112,33,29,23,86,92
36,82,126,37,24,22,70,81
32,79,121,37,26,24,68,99
31,63,108,34,27,22,88,107
32,52,109,39,39,28,108,119
32,61,99,39,39,28,108,128
27,53,70,33,39,29,104,138
28,59,83,34,39,28,146,134
27,56,88,36,40,31,140,125
24,53,91,30,29,26,135,128
23,41,94,32,34,29,133,122
24,59,105,33,33,28,135,110
24,60,102,32,32,29,105,108
24,59,101,31,29,24,100,111
28,68,106,35,37,29,86,90
31,72,114,33,34,25,81,83
31,66,128,34,35,25,79,81
34,64,129,33,34,21,80,81
33,66,128,34,35,23,82,97
29,57,134,34,30,22,101,98
26,55,124,31,31,26,102,98
27,50,100,33,32,27,103,98
24,48,87,35,33,27,93,117
26,51,83,34,37,30,114,116
27,53,70,32,35,28,98,115
27,55,91,34,34,25,104,118
27,62,98,30,33,26,108,140
26,62,100,32,33,28,110,120
26,60,106,35,30,25,87,110
25,79,105,37,32,25,89,111
26,92,91,38,32,27,82,109
27,92,101,41,33,28,88,101
27,92,98,40,31,27,76,93
27,94,96,38,34,26,75,90
28,82,92,38,32,26,80,96
28,63,89,36,31,25,85,95
28,57,79,36,32,24,76,88
28,55,81,36,32,23,74,83
28,60,118,36,27,22,72,89
27,53,116,34,26,22,66,80
27,52,120,36,28,23,84,92
25,52,114,32,25,20,84,85
26,56,119,37,36,24,90,92
25,53,116,36,37,24,96,87
26,56,122,35,38,24,95,86
25,58,119,33,38,23,73,75
26,59,130,37,42,24,75,86
24,62,133,33,37,24,126,96
28,53,111,33,36,25,123,113
28,59,112,34,37,26,125,114
28,63,123,34,39,28,124,115
28,63,117,31,35,26,119,100
28,61,115,28,35,26,67,83
26,62,109,29,35,24,66,95
27,54,98,27,36,24,75,110
32,46,90,28,37,24,76,111
32,44,87,28,35,23,78,114
31,42,85,28,35,23,67,114
30,50,104,31,35,24,62,84
29,49,108,35,38,24,75,92
25,55,108,37,34,24,79,97
25,53,100,38,36,25,80,97
26,54,104,40,35,26,82,112
24,52,101,35,34,25,87,113
24,53,102,35,33,26,83,97
24,50,97,32,31,25,79,88
27,52,108,31,30,25,75,89
26,49,106,28,27,22,83,86
27,43,97,34,30,23,89,103
26,39,97,34,30,22,80,100
24,36,97,33,31,22,78,98
24,40,94,33,34,23,76,94
24,41,92,39,35,24,73,88
27,46,86,36,34,25,68,80
28,49,86,32,31,25,62,78
29,48,97,35,32,26,76,83
29,53,95,35,30,26,83,92
27,66,99,29,30,25,79,80
24,64,101,28,30,23,70,75
24,64,109,28,30,25,77,79
23,65,98,27,31,24,80,86
25,59,95,29,30,27,78,94
26,44,113,33,30,27,75,95
27,47,125,34,28,27,102,104
30,49,138,41,31,27,109,128
32,52,151,43,31,28,108,129
30,56,165,44,32,25,106,124
31,58,174,45,34,25,120,136
32,60,185,50,44,29,105,134
31,58,183,45,43,28,95,124
31,57,176,47,42,28,92,120
31,50,163,45,43,30,102,156
33,50,147,48,42,31,94,147
32,44,121,41,33,28,89,141
31,49,157,48,39,30,85,126
31,51,162,43,42,29,101,146
30,51,161,43,41,28,91,102
27,45,148,35,38,24,87,99
27,44,150,35,37,26,102,105
25,34,93,27,31,21,103,115
25,33,88,27,28,22,85,105
24,34,96,28,26,23,87,106
23,37,97,29,29,23,84,105
22,43,99,30,30,23,65,96
22,45,93,27,31,24,71,84
23,43,91,27,32,26,105,102
25,44,95,29,32,24,103,101
24,42,100,29,30,26,111,100
24,37,88,28,29,25,110,101
25,37,96,29,28,25,104,101
22,37,112,33,27,23,62,59
21,40,114,33,27,25,60,55
23,39,115,31,29,23,38,51
22,43,118,33,29,24,54,73
25,48,126,33,30,24,71,81
24,48,110,32,32,23,74,75
24,46,110,34,38,24,84,78
25,48,110,35,37,26,93,80
24,43,110,35,37,26,87,78
23,37,94,33,35,25,77,87
24,35,88,30,32,26,92,88
24,34,71,24,26,24,91,87
22,31,79,25,27,22,87,92
23,32,76,29,25,22,87,93
22,35,90,33,25,25,90,88
24,38,99,34,26,26,86,86
22,36,101,38,29,27,82,93
23,37,89,38,27,26,81,90
22,37,96,36,30,27,79,74
21,33,82,35,30,25,80,65
18,28,72,36,29,25,64,63
20,28,72,32,27,25,64,56
22,28,89,31,30,27,75,82
23,31,107,30,30,27,74,81
24,36,113,31,31,27,65,81
23,36,115,31,30,26,64,83
23,38,116,33,30,26,77,110
21,36,102,35,28,25,74,93
22,37,87,34,31,26,93,116
24,44,110,31,30,24,99,122
26,51,118,32,33,25,103,133
25,52,125,29,33,23,107,140
26,57,134,28,34,24,98,142
25,54,133,30,32,22,82,127
24,45,111,29,32,24,74,121
24,44,107,31,31,24,82,109
24,41,99,32,32,27,76,74
25,37,95,32,35,25,77,89
24,38,82,31,37,27,84,85
22,38,80,30,35,26,112,91
21,30,77,28,34,24,104,91
23,34,95,29,37,26,102,98
22,31,89,29,37,27,112,91
22,31,100,30,36,27,119,98
23,31,106,30,39,27,98,102
24,32,104,31,40,28,99,119
23,27,82,31,38,25,97,109
24,31,85,31,36,23,87,101
22,35,93,31,34,21,85,111
24,40,95,33,30,20,90,126
23,41,92,31,27,21,95,121
25,42,92,28,25,20,92,125
24,42,93,26,24,21,91,123
25,39,69,26,24,21,73,108
25,36,60,26,25,21,79,81
24,35,63,29,25,21,80,89
23,35,75,32,30,21,82,87
22,33,74,33,30,21,81,89
22,34,85,34,32,24,92,94
20,33,84,32,31,26,78,114
23,38,102,33,30,26,67,100
24,41,116,32,26,26,60,106
27,47,121,31,26,27,90,119
32,50,133,32,28,26,98,142
33,53,135,34,30,25,104,146
30,51,126,30,30,25,109,148
31,52,116,34,33,29,116,149
32,56,151,38,34,29,95,143
28,59,148,35,30,28,86,121
28,58,174,35,32,28,89,101
31,69,187,38,34,29,115,151
33,68,194,42,39,28,122,145
34,68,192,48,47,30,136,150
34,68,197,48,48,30,146,161
34,67,179,48,47,31,146,161
33,59,181,51,49,32,129,112
32,59,190,47,42,30,126,113
28,52,165,37,34,30,121,113
27,50,164,41,35,30,102,94
28,50,175,41,36,28,97,90
26,46,184,36,31,26,94,91
30,45,166,37,33,27,104,115
30,50,193,43,31,24,101,116
31,43,185,39,31,25,102,121
30,46,186,40,31,25,111,127
32,48,164,39,31,25,114,139
28,51,156,35,30,27,97,122
29,47,126,28,30,28,87,110
28,50,124,36,33,28,105,110
30,47,102,36,32,28,118,115
30,46,96,35,32,27,114,103
28,41,103,37,33,26,114,114
27,39,91,37,34,25,114,115
27,35,84,30,30,23,95,109
24,32,80,29,30,21,63,95
24,32,86,33,33,27,66,92
24,30,77,30,32,27,61,75
24,30,76,31,35,31,81,97
24,31,80,31,35,32,83,97
26,34,74,33,34,32,78,96
24,33,64,30,31,28,71,95
26,33,66,30,31,25,73,97
26,35,72,33,31,23,63,83
25,34,67,32,27,22,61,85
24,34,74,31,30,24,62,91
23,37,87,36,32,26,66,92
22,39,88,36,35,25,76,94
23,38,87,35,36,25,75,89
23,39,93,36,38,24,87,90
25,47,94,35,38,25,90,92
25,45,92,33,41,25,111,108
28,47,94,34,38,26,116,107
27,48,94,33,36,27,110,105
27,51,104,35,34,27,102,100
25,42,101,36,33,29,111,110
25,44,97,35,29,27,86,94
21,40,93,35,31,27,85,106
23,38,91,34,34,27,114,115
24,35,77,36,43,34,131,127
25,36,77,36,42,31,124,120
25,32,92,36,43,32,132,125
25,35,97,36,42,31,123,110
23,34,97,35,39,30,100,100
22,35,97,29,29,23,78,85
22,35,108,29,29,24,72,71
24,37,93,27,25,23,63,70
24,36,96,29,28,26,108,133
26,40,103,30,31,27,108,135
25,36,103,30,30,26,112,140
25,36,91,30,30,27,121,145
24,34,90,31,31,27,120,141
23,35,85,29,29,27,79,82
20,36,81,25,25,26,83,79
22,37,80,24,25,27,82,72
23,38,76,23,26,26,73,82
24,38,81,22,29,27,73,85
26,36,73,21,28,24,105,87
27,31,71,24,31,25,107,93
25,31,73,29,32,24,102,90
25,29,82,30,30,25,98,73
26,30,82,30,27,23,96,71
24,29,84,31,27,25,64,71
27,39,111,34,33,27,72,88
27,42,112,30,31,27,75,101
28,43,117,34,34,29,79,105
27,44,114,34,36,29,87,118
27,46,117,34,37,30,92,115
23,38,99,31,31,27,79,99
22,33,98,32,32,26,86,104
24,33,85,28,30,25,88,131
24,32,89,29,34,27,90,117
24,30,92,30,33,24,89,123
26,35,108,29,33,24,95,136
27,41,106,28,37,25,87,128
29,43,109,29,35,28,100,108
32,43,111,28,33,26,111,126
35,46,115,29,35,29,108,123
35,43,94,28,35,31,100,117
36,38,104,28,34,32,124,123
34,41,117,32,34,31,125,126
32,42,122,35,33,32,112,109
29,44,127,36,29,29,113,112
28,58,191,45,31,27,116,99
26,63,196,50,38,29,91,93
27,60,195,50,41,34,93,91
28,60,189,49,41,34,96,100
28,56,182,48,42,34,96,94
29,46,122,41,41,33,92,121
29,45,124,41,33,31,103,117
28,46,120,37,31,25,88,110
30,51,135,41,31,24,88,123
31,51,147,44,33,23,107,133
30,50,143,44,31,32,112,125
31,50,151,42,31,32,107,127
30,50,147,44,30,31,108,138
27,45,133,40,28,32,114,131
30,47,129,42,29,33,94,125
29,43,128,42,32,27,112,133
30,39,117,44,34,27,111,134
31,40,135,43,32,29,109,130
32,41,154,43,31,31,102,121
32,38,160,39,30,32,109,130
31,40,163,40,29,33,89,118
30,36,153,34,25,32,85,125
30,37,149,35,27,29,94,116
30,42,135,34,26,27,108,146
27,43,125,34,28,24,112,158
30,51,129,40,33,24,114,149
31,57,143,41,34,24,114,154
28,57,128,39,34,25,116,160
29,57,131,42,37,24,102,136
32,61,131,41,36,24,96,119
29,53,126,38,34,24,90,119
28,52,116,38,32,23,87,103
29,49,118,36,33,23,69,89
27,46,119,35,30,22,58,77
26,39,123,35,28,24,59,84
29,45,139,32,27,22,62,94
30,40,145,35,31,22,70,89
31,45,183,37,30,25,88,97
29,49,187,37,30,25,90,105
27,48,181,36,31,23,78,84
23,42,169,35,29,23,72,69
21,40,153,31,25,23,71,68
20,36,106,29,29,21,80,70
22,29,95,28,29,24,97,65
27,35,96,30,31,24,103,74
31,36,99,30,33,24,116,93
31,37,106,31,34,28,125,119
34,37,112,32,34,31,125,137
33,36,108,30,33,28,122,152
30,30,105,31,34,28,147,211
27,37,135,29,32,28,138,209
27,41,133,29,32,25,128,200
24,43,132,29,29,19,111,183
23,43,135,28,30,21,102,168
24,43,143,31,26,21,91,121
24,39,144,36,28,23,99,130
23,35,141,36,31,24,99,129
22,33,139,36,32,25,103,132
22,38,152,48,33,26,106,149
22,40,157,46,35,25,79,119
23,40,144,44,34,24,72,106
23,39,146,47,34,25,87,104
23,42,154,49,33,26,110,140
25,42,139,39,34,26,105,137
25,43,130,39,35,26,103,139
25,50,122,39,35,25,111,136
27,52,125,35,32,25,100,141
28,49,120,31,35,25,78,125
29,54,140,36,37,25,94,128
29,57,153,39,36,25,98,123
28,53,150,37,34,27,93,123
29,57,150,37,35,27,106,153
27,57,147,41,33,25,105,150
25,49,123,34,28,24,92,136
30,46,102,32,29,25,100,137
30,44,100,36,30,23,109,152
29,37,101,37,34,23,98,120
29,37,94,33,36,24,94,102
31,44,97,35,37,25,93,108
29,52,123,36,38,28,107,156
30,59,150,34,42,29,103,161
30,62,143,35,40,29,103,163
31,63,149,38,41,31,115,184
31,59,156,40,44,32,121,196
29,53,147,38,41,28,107,165
30,49,123,38,37,26,102,151
30,50,126,35,37,27,102,156
29,49,123,33,34,25,91,146
28,59,134,32,34,26,111,147
32,57,128,36,38,29,115,150
29,55,127,35,38,32,116,157
28,53,132,41,38,33,120,154
29,53,133,43,40,33,133,158
27,42,119,41,40,33,109,139
23,46,109,38,36,32,103,144
26,44,110,44,40,33,99,133
29,44,112,38,41,32,116,148
31,48,123,40,38,32,99,135
31,45,118,40,37,31,97,134
33,45,132,42,39,30,94,115
30,46,130,39,33,28,109,126
29,44,124,40,36,27,93,114
27,40,110,35,35,28,92,109
27,51,150,36,36,28,92,107
26,46,152,37,35,28,86,106
28,48,150,39,38,28,87,132
26,50,156,40,37,28,80,114
27,50,160,40,38,27,79,114
26,40,140,43,38,28,86,115
25,45,131,38,37,27,87,117
23,44,124,34,35,27,77,89
25,45,127,33,31,25,74,93
29,49,136,39,35,27,92,97
29,49,116,33,33,25,85,91
31,47,112,36,36,26,92,100
32,49,125,35,34,25,84,85
31,48,114,35,33,27,99,101
29,44,99,30,32,25,85,104
29,45,97,30,32,25,84,107
29,43,106,28,29,25,83,120
28,41,107,31,30,25,82,122
28,44,121,31,32,23,79,129
28,46,121,30,28,23,77,121
28,49,129,31,28,25,82,122
24,50,129,30,26,24,88,114
26,50,115,29,28,25,88,138
27,48,99,29,28,26,74,123
28,50,110,32,30,29,76,124
28,49,130,36,29,31,83,135
31,50,128,40,31,33,72,144
33,62,189,45,30,34,70,122
34,63,200,47,33,35,69,116
32,63,200,47,36,36,87,126
35,69,184,45,38,34,76,120
35,70,184,41,38,33,74,101
39,66,160,48,40,32,75,109
38,65,167,48,38,31,95,122
40,70,178,52,38,28,83,120
39,69,199,53,37,28,85,121
39,67,203,56,38,27,91,129
30,61,179,44,34,28,90,117
30,62,170,45,38,30,74,104
27,58,168,41,34,28,70,99
26,56,142,40,35,30,78,114
24,55,131,36,33,31,89,115
26,61,145,38,35,31,90,115
26,59,152,33,27,27,102,115
27,58,145,32,26,26,104,113
30,52,166,32,28,27,98,95
29,55,166,32,29,26,89,88
28,51,168,30,29,24,99,93
29,49,148,31,31,28,87,94
29,44,139,32,37,34,88,107
23,43,115,31,35,32,92,103
24,41,116,30,37,34,90,96
24,40,94,31,37,34,81,94
26,45,118,36,38,32,81,103
25,44,118,32,35,27,75,88
27,45,118,33,33,26,70,87
27,46,125,38,30,24,63,78
28,43,127,38,31,24,59,95
25,38,107,34,28,24,56,82
28,49,118,36,24,23,68,90
29,49,122,35,28,24,68,97
27,49,122,33,32,24,67,98
28,49,120,31,30,24,66,76
29,51,120,32,32,25,72,88
25,46,117,31,33,25,59,81
28,48,133,37,32,26,65,84
28,51,134,36,29,26,75,88
28,50,134,47,33,27,85,103
29,53,129,46,32,25,109,112
31,48,122,45,32,27,109,112
29,46,92,41,29,27,107,102
29,39,87,40,30,27,103,100
30,39,100,28,30,26,99,87
29,35,119,30,31,25,73,85
26,34,127,33,33,26,91,91
25,35,145,39,37,26,88,89
29,36,141,40,36,24,87,91
30,37,134,41,36,22,86,109
29,37,119,39,35,24,75,96
31,40,112,38,32,20,53,87
32,39,93,33,31,19,54,87
27,38,87,31,31,20,75,91
25,38,76,29,27,20,79,66
25,38,78,30,27,19,78,55
28,35,71,32,31,21,80,65
27,35,76,32,28,22,88,66
31,42,85,32,29,24,84,72
31,38,83,31,29,24,83,85
30,38,84,31,31,22,93,98
26,42,116,31,29,23,106,99
28,44,112,30,29,23,98,103
25,42,121,34,29,21,84,94
25,42,137,36,29,24,81,83
26,43,144,37,30,28,90,90
26,39,125,34,28,26,78,97
26,37,126,34,30,27,87,113
26,36,113,31,29,27,88,112
25,38,102,30,30,28,86,111
25,39,95,28,27,24,80,94
26,38,89,29,28,27,89,87
26,40,81,28,26,25,83,59
27,37,84,29,29,28,102,113
28,39,83,29,30,27,102,115
27,36,81,30,31,29,90,117
26,37,82,31,30,26,88,112
25,35,84,36,38,29,107,135
25,37,81,35,34,27,92,105
24,33,93,34,35,26,95,104
23,34,103,35,33,25,100,117
23,33,104,34,33,25,94,129
24,31,106,29,26,22,74,105
26,31,109,30,29,24,75,95
27,29,90,29,25,21,69,93
28,33,81,29,26,23,70,75
30,43,92,30,27,24,81,91
32,45,100,30,30,26,78,111
31,48,101,30,30,24,75,111
29,56,108,30,32,25,79,119
28,52,105,28,30,24,72,119
26,47,91,28,32,24,53,99
22,46,78,32,33,21,62,92
22,47,91,33,33,24,73,94
23,41,95,36,34,24,70,92
25,42,100,36,35,25,76,92
26,44,102,37,34,26,92,96
26,42,104,35,29,27,87,83
28,39,91,35,29,26,79,87
27,35,79,34,26,27,84,84
26,36,78,34,28,27,104,111
24,33,86,31,26,24,103,112
25,35,109,36,31,24,103,114
24,36,108,35,30,22,105,127
25,39,114,35,33,26,128,137
25,41,116,34,32,25,108,116
27,44,129,36,32,26,98,115
29,45,114,32,31,27,105,112
30,45,126,35,34,29,109,101
30,49,137,35,32,22,85,92
39,58,158,40,34,25,91,122
43,60,165,41,35,27,97,134
42,66,171,41,33,27,90,151
46,77,166,39,33,28,99,174
62,97,161,40,34,32,92,176
56,95,151,37,31,30,86,166
61,104,159,42,35,30,88,164
62,109,167,43,33,29,87,167
63,118,173,43,31,30,95,158
53,109,170,46,34,30,104,156
55,119,172,46,35,31,110,166
49,117,155,40,30,30,109,156
50,108,144,39,32,33,126,151
43,91,131,38,33,32,110,134
41,84,133,39,36,31,111,142
43,70,115,37,34,32,109,127
44,68,104,39,35,32,111,134
43,74,132,41,37,33,96,130
44,86,154,44,38,32,100,131
42,92,151,40,36,31,97,121
42,92,181,41,38,30,92,121
38,87,183,40,38,30,93,153
41,95,191,43,38,26,95,144
51,136,214,42,37,28,110,139
55,145,236,45,34,26,103,148
53,147,234,49,31,27,117,174
56,151,231,49,34,28,120,139
55,148,218,49,33,26,113,136
46,107,183,51,38,27,94,145
42,100,156,52,44,31,100,149
41,103,145,53,45,30,97,125
37,117,163,54,44,29,92,124
39,116,148,53,43,33,90,133
36,114,154,53,38,30,95,127
36,106,176,48,29,24,86,121
38,107,181,44,34,28,78,113
44,95,170,44,35,30,70,131
42,96,173,42,36,29,69,127
54,117,169,44,36,27,75,134
61,134,191,47,39,31,80,133
63,150,208,50,36,29,76,135
61,161,238,50,36,29,99,143
71,178,259,54,36,29,112,197
76,184,272,56,43,43,163,222
88,187,304,55,49,50,186,267
91,177,357,60,57,53,189,273
93,184,347,63,60,57,187,271
90,169,346,60,61,59,187,252
81,164,346,62,59,51,157,252
64,161,302,67,54,47,151,223
63,164,232,60,47,43,155,219
58,142,219,60,47,39,151,210
53,144,199,59,46,38,175,197
54,131,193,51,43,37,164,169
51,122,177,48,45,34,145,139
43,111,148,46,44,34,137,126
44,122,162,42,43,34,127,131
44,125,161,46,40,33,86,138
44,126,173,45,45,38,80,141
45,130,182,43,43,38,90,138
47,133,182,46,41,39,89,143
47,123,177,44,39,36,111,140
48,114,172,44,39,34,106,128
44,111,154,49,40,31,102,125
41,105,147,49,45,31,90,123
44,147,176,47,45,28,93,122
47,158,221,53,52,30,79,113
47,161,252,62,68,39,96,166
48,171,272,58,65,37,98,166
52,174,273,56,61,37,123,191
49,133,259,54,61,38,144,210
46,120,211,49,55,36,140,210
43,117,175,39,37,30,130,164
42,97,139,41,38,34,130,156
36,85,151,44,38,34,110,124
36,80,153,46,37,34,94,86
34,78,176,49,42,37,89,80
33,83,193,47,42,38,93,83
34,85,199,50,45,37,92,92
37,88,187,51,48,37,104,90
34,91,184,48,49,37,96,88
33,84,164,45,43,36,107,93
32,76,150,43,41,34,102,95
29,74,150,38,37,31,115,101
28,67,150,38,39,32,108,101
32,71,148,48,47,33,103,110
31,71,154,48,52,33,93,134
34,78,143,52,53,37,121,135
33,77,135,53,51,36,112,125
33,78,159,58,52,34,107,127
28,72,163,50,45,32,111,121
32,75,162,53,41,32,122,116
30,66,161,48,40,26,98,114
30,64,156,47,43,27,92,121
30,63,139,42,42,28,107,131
30,68,145,46,41,29,102,130
27,78,207,57,44,28,91,118
26,75,221,60,42,28,92,113
27,73,220,58,39,31,107,127
27,72,227,60,44,32,116,124
30,67,235,61,46,34,117,125
40,59,215,54,54,37,119,131
49,80,228,54,54,36,119,162
51,79,229,55,53,35,107,152
54,87,222,61,59,38,93,152
59,98,202,62,60,37,91,176
56,95,178,58,52,32,90,165
51,91,160,62,55,36,85,135
48,93,158,62,56,36,102,130
47,85,153,52,44,35,93,122
40,77,161,57,45,36,103,102
39,76,155,58,46,39,102,109
39,74,154,56,45,37,108,117
38,74,155,62,54,37,88,112
36,77,160,64,53,32,86,110
38,74,171,58,53,32,78,98
37,76,158,56,52,32,78,94
38,67,142,50,53,35,81,97
39,63,151,52,49,36,83,95
44,60,161,50,50,37,81,100
42,58,158,52,48,36,84,113
45,52,159,55,51,37,84,121
40,46,169,60,47,33,71,108
43,48,199,55,43,33,71,106
43,53,197,57,45,33,78,131
42,61,203,55,47,34,72,116
39,67,205,51,40,30,76,112
39,69,210,56,44,32,84,132
42,78,198,54,46,32,89,142
36,82,199,54,42,31,92,118
35,79,194,55,43,33,96,123
35,73,196,56,43,33,97,123
35,71,184,46,40,31,108,124
30,61,183,47,43,32,121,144
33,61,173,52,45,31,118,148
32,58,161,56,46,32,117,146
32,61,166,58,53,33,122,148
32,61,165,61,52,34,108,132
30,59,157,64,48,32,97,137
27,53,170,57,48,32,100,133
27,59,187,52,42,30,107,133
26,55,189,51,37,29,103,142
27,58,191,49,35,29,103,143
33,64,183,44,35,32,102,122
33,64,171,43,34,33,93,118
33,57,142,43,33,36,90,133
33,59,171,60,39,37,83,126
32,54,177,60,39,35,82,124
31,61,203,62,39,33,87,124
33,64,209,64,40,31,89,124
37,70,211,70,46,30,90,135
38,71,177,52,38,28,84,124
39,77,188,53,41,30,86,122
36,69,154,53,43,31,79,133
35,64,156,57,42,33,91,139
36,59,158,49,36,31,85,110
34,56,159,50,35,30,90,113
36,48,129,47,33,29,91,119
37,50,157,50,31,28,98,112
36,48,137,47,33,28,88,105
31,48,130,45,36,27,87,105
33,52,142,49,44,29,111,139
30,61,163,52,44,29,108,142
36,62,159,61,49,32,102,140
37,67,174,63,49,33,101,140
37,67,176,63,48,32,106,136
36,65,185,71,45,33,78,99
35,56,173,69,44,33,72,86
30,55,178,63,39,32,79,87
28,50,171,62,39,31,87,89
32,50,178,66,42,33,79,90
35,58,172,56,39,33,75,96
35,62,181,62,41,34,95,107
31,55,148,54,38,31,91,90
31,55,146,48,37,28,86,95
33,55,142,48,38,29,85,109
30,45,131,47,37,27,117,135
35,44,130,39,35,26,106,144
37,46,148,39,34,27,110,148
36,47,174,55,43,29,109,143
32,53,197,54,38,26,109,133
34,54,212,56,40,25,75,106
32,53,224,61,42,26,91,86
32,53,222,62,44,28,79,94
36,56,218,55,37,27,80,97
37,51,193,53,40,29,83,104
35,58,191,54,43,32,84,98
34,67,181,50,40,29,63,95
34,69,172,48,42,29,62,76
32,74,181,47,41,29,61,71
29,75,191,46,38,28,61,62
30,76,202,53,33,25,62,81
30,73,199,53,36,27,80,79
30,80,230,59,34,26,78,83
32,76,206,57,40,29,81,100
32,77,197,57,42,27,74,102
29,74,181,50,48,30,71,90
29,75,180,55,52,31,52,88
28,65,151,46,50,30,64,83
24,63,149,46,47,28,61,70
26,60,169,51,48,31,87,105
29,60,169,51,42,30,89,103
29,54,174,46,37,29,87,103
30,54,167,48,40,29,85,106
29,55,188,47,40,29,82,107
27,58,176,40,37,26,54,69
27,58,160,33,36,27,54,83
26,54,147,35,35,27,74,110
27,62,196,37,36,27,69,129
28,62,190,40,36,27,70,123
32,68,196,45,39,30,72,124
29,66,198,48,39,29,70,113
30,71,200,48,42,30,76,103
30,69,152,47,47,33,91,104
31,75,155,42,49,34,102,114
28,71,160,39,48,31,102,116
28,76,164,42,49,30,111,121
26,75,174,43,47,27,98,115
24,73,175,43,39,25,87,89
32,70,171,45,37,26,77,83
32,62,167,44,35,26,80,85
34,60,168,41,34,26,71,85
35,59,153,35,32,26,66,77
34,59,161,35,33,24,67,81
28,57,149,35,37,24,75,86
29,57,134,32,41,26,75,78
28,55,127,30,40,26,68,67
29,55,162,36,40,26,74,80
31,54,154,33,43,29,70,79
30,54,177,39,40,27,59,63
30,58,188,41,35,25,54,67
30,56,185,43,35,25,59,94
29,50,150,41,36,25,66,92
28,45,151,43,33,22,63,90
28,40,120,39,29,22,66,92
26,35,110,38,29,22,65,91
26,44,127,42,33,25,72,78
26,49,137,40,31,25,61,78
25,52,133,38,31,26,65,81
30,54,149,41,35,26,65,81
30,53,160,45,35,25,71,98
32,46,145,38,31,21,64,90
35,44,134,38,30,23,67,83
37,40,130,39,33,25,65,83
33,38,120,34,29,24,63,85
34,35,97,29,32,29,72,69
32,39,116,34,33,30,78,91
31,38,123,35,38,32,91,105
29,46,127,34,36,30,93,105
28,47,119,37,42,31,91,103
29,53,142,39,41,29,81,100
28,53,132,38,41,29,77,95
27,54,128,37,37,28,68,85
26,48,143,41,39,27,63,86
27,55,208,44,35,26,63,85
28,63,214,44,35,27,63,85
27,61,227,44,34,27,60,66
27,60,235,47,37,31,48,62
27,61,230,43,32,30,50,56
28,57,183,37,31,29,49,56
26,47,162,35,28,26,46,56
25,46,183,39,30,27,57,58
25,50,176,34,27,21,52,48
25,53,173,36,32,24,55,59
23,50,165,37,33,26,57,62
22,55,172,35,33,27,59,75
23,59,133,26,32,25,46,87
24,67,140,33,42,32,69,90
24,66,133,31,43,31,77,101
24,72,178,31,48,32,84,125
25,67,186,41,51,34,83,121
25,62,180,42,50,33,83,111
22,49,176,38,41,27,70,108
24,53,202,45,48,33,74,104
22,41,158,43,45,30,67,73
24,41,133,34,42,28,67,69
26,45,141,34,42,29,72,69
27,53,163,41,49,33,81,96
26,48,140,36,40,27,68,84
27,49,135,38,38,29,69,84
26,54,148,43,40,30,72,84
28,59,141,43,40,30,68,105
27,59,131,38,40,31,60,96
27,60,133,38,37,29,59,99
27,62,150,43,39,27,61,97
26,56,139,37,37,26,57,99
24,49,147,37,41,26,54,87
25,46,134,35,34,21,43,71
26,43,125,35,34,21,55,69
24,46,139,30,34,22,49,69
24,57,176,33,33,24,57,109
23,61,182,33,37,24,58,104
22,61,191,33,37,25,70,111
21,65,191,31,38,27,60,107
22,64,173,29,38,25,59,111
22,56,146,32,40,26,54,82
21,52,132,35,35,24,58,81
24,50,117,39,36,23,48,72
24,49,116,43,38,24,46,72
25,45,112,43,39,25,52,67
25,47,129,44,38,25,61,73
27,57,152,41,37,26,62,73
26,57,163,38,35,26,60,71
26,54,179,34,33,25,61,69
26,60,189,33,37,26,62,70
25,62,173,30,38,26,67,79
25,55,155,31,37,27,62,83
24,53,154,34,44,30,67,85
23,53,136,33,43,30,73,90
22,52,122,36,40,30,70,96
28,57,150,36,37,29,65,93
29,55,147,34,37,29,73,94
32,56,139,31,30,27,77,115
33,61,140,33,31,27,77,135
34,60,148,30,29,26,74,132
31,54,138,32,33,27,67,122
30,60,152,32,32,27,57,117
28,59,160,32,32,27,41,95
26,55,159,30,31,26,41,59
27,53,155,31,31,28,46,71
26,49,138,27,29,27,47,78
26,41,133,29,30,26,56,80
26,39,119,30,31,25,58,80
27,36,114,29,29,23,49,79
27,34,104,29,29,22,48,88
27,34,117,28,29,26,57,85
26,35,121,30,29,26,49,83
26,39,122,30,27,25,49,82
24,38,125,29,29,27,50,83
24,43,146,32,30,28,47,57
24,42,135,34,32,26,32,51
25,42,126,33,36,29,51,69
25,36,129,38,37,32,57,86
25,39,137,39,37,32,59,88
25,39,131,38,37,30,72,94
25,42,132,40,35,30,74,93
23,39,124,38,32,29,66,96
24,42,123,38,34,26,61,81
23,42,110,37,31,24,81,88
22,37,102,38,34,25,89,107
21,35,100,37,41,25,92,106
25,41,141,46,43,27,91,97
25,42,135,44,39,26,100,101
25,39,141,44,40,26,86,102
27,41,135,42,38,26,68,84
28,37,138,41,28,23,61,81
29,32,134,31,24,22,62,77
29,36,146,30,28,27,51,77
31,37,151,34,26,27,51,74
29,38,155,33,26,27,47,65
28,39,150,34,30,29,50,62
24,42,120,32,30,29,49,63
27,42,127,35,29,25,51,59
26,40,114,30,31,25,51,73
27,42,119,32,33,26,50,71
27,42,121,31,31,24,50,71
27,42,130,33,30,22,48,71
28,42,119,29,30,21,58,76
26,43,119,31,33,25,59,81
25,43,111,29,32,25,61,85
25,44,109,32,32,26,59,86
25,45,101,34,34,26,59,84
21,42,97,37,40,28,49,85
24,45,107,39,39,27,51,77
25,43,106,40,40,28,60,81
23,45,113,40,39,26,60,79
24,41,111,36,37,26,72,85
25,41,111,35,32,25,66,78
24,48,120,34,30,25,68,79
25,48,118,34,30,25,66,72
25,45,112,34,33,26,73,84
24,48,126,34,32,27,61,78
25,50,134,37,34,28,68,85
23,42,120,34,32,26,61,67
19,42,120,35,31,25,52,63
20,44,116,33,30,26,51,56
22,40,100,38,35,25,57,76
22,38,81,35,32,21,54,83
23,38,78,35,32,22,76,89
24,38,73,34,33,23,77,97
24,41,84,33,32,22,84,98
23,41,87,28,29,23,81,84
22,42,85,30,31,23,80,73
20,42,103,31,32,25,74,76
23,41,104,31,31,22,76,69
22,38,93,29,30,23,64,72
22,40,97,28,30,21,75,81
23,44,106,32,31,23,76,81
24,45,89,29,29,20,63,70
25,49,99,32,32,23,58,68
25,49,99,32,34,25,61,74
25,46,92,33,32,26,47,69
25,40,71,29,32,25,42,66
26,40,74,32,37,29,51,68
22,37,57,32,32,28,55,68
22,39,78,32,34,27,69,83
25,42,78,33,36,28,77,93
25,42,91,33,34,30,85,98
23,49,108,32,32,29,93,103
25,55,121,32,35,29,95,110
24,56,109,31,31,27,84,91
23,58,109,31,32,27,84,96
24,58,104,29,33,26,89,101
27,66,112,29,35,26,78,102
27,66,106,26,33,25,72,94
27,64,115,30,36,26,83,116
26,60,120,28,36,25,74,99
26,62,132,31,34,27,57,90
23,45,114,31,29,23,54,83
25,36,111,33,30,27,66,95
26,38,107,31,29,27,59,81
25,43,124,32,30,27,66,83
25,42,116,33,33,27,67,83
25,53,120,35,35,27,68,83
23,55,123,34,35,23,76,76
24,53,120,35,35,24,72,64
24,52,116,36,32,23,66,61
24,53,108,33,29,24,67,78
26,48,110,34,29,25,84,91
26,47,131,38,30,28,89,100
25,61,151,39,32,27,94,101
26,64,148,39,34,27,94,112
31,64,159,38,32,26,105,124
30,73,161,36,30,24,95,123
33,72,144,35,29,22,87,135
33,68,130,37,29,24,89,148
34,69,143,39,30,24,95,156
30,69,151,42,34,27,85,143
30,55,147,41,36,29,84,138
29,60,154,39,35,30,80,126
35,59,179,37,35,29,82,140
40,59,171,34,33,28,77,126
40,65,168,33,31,25,86,124
42,65,166,34,32,27,88,127
42,66,169,31,31,27,85,123
37,63,153,32,28,25,75,92
32,64,155,33,32,29,85,101
35,57,148,32,30,28,74,96
34,59,147,34,29,26,71,113
37,56,143,37,30,28,69,108
37,54,128,37,31,29,72,105
39,50,112,37,30,27,65,95
38,48,100,38,34,29,74,117
37,53,115,36,34,28,76,115
42,56,117,37,36,27,86,117
46,56,118,34,35,26,86,120
44,59,134,34,35,30,90,146
44,60,153,33,31,28,98,131
43,59,153,35,29,30,102,115
38,62,159,33,28,28,93,116
34,63,156,34,28,28,89,110
36,65,156,37,31,23,80,73
34,66,150,37,32,23,88,110
39,66,164,37,35,21,79,111
34,60,155,39,33,21,82,111
42,63,154,39,35,25,105,135
40,62,149,36,34,25,115,145
41,68,153,36,35,25,95,118
40,79,136,36,34,27,93,116
40,78,125,31,34,27,93,112
35,74,130,33,34,24,72,84
36,75,127,37,33,24,71,91
36,72,127,39,33,25,71,93
36,63,121,39,34,25,81,93
35,62,122,40,33,24,83,99
33,66,119,39,30,24,83,117
32,64,107,32,28,24,70,99
36,61,97,26,28,24,76,97
35,57,106,30,24,22,68,94
36,59,107,31,25,25,68,88
38,54,112,32,26,25,67,84
40,53,127,33,26,27,103,133
35,56,122,34,26,25,100,135
34,54,117,31,27,27,104,139
31,51,116,29,25,26,104,138
30,50,109,31,28,30,110,136
26,50,101,30,28,27,80,91
27,48,111,33,34,31,88,99
30,52,103,32,33,29,81,93
31,55,101,32,36,31,105,120
30,54,97,28,33,26,101,123
32,61,100,30,34,26,102,121
31,64,94,25,29,25,95,123
27,62,110,25,29,26,118,133
27,62,115,26,28,24,102,120
26,61,119,26,27,23,97,107
26,54,114,25,31,27,103,127
25,52,116,25,28,23,106,126
28,50,96,26,29,23,83,117
31,48,111,24,28,22,76,106
31,49,110,27,31,24,88,105
30,53,111,28,27,23,94,111
30,52,107,30,28,24,88,99
28,50,110,31,27,24,89,102
24,51,101,33,26,25,88,110
26,57,123,33,27,26,83,124
24,52,118,30,26,23,65,95
27,61,113,32,24,22,66,98
28,66,112,29,25,23,66,95
30,65,109,33,26,24,85,95
30,63,100,32,25,24,92,75
29,62,104,34,29,27,95,91
28,50,104,31,31,28,98,97
26,42,102,31,32,27,95,107
28,47,104,26,32,27,78,104
28,47,107,29,31,26,66,102
29,93,112,30,29,24,91,109
29,97,114,30,29,25,94,109
30,101,115,31,29,26,98,102
27,100,114,31,28,25,98,95
26,99,96,28,27,24,98,95
24,55,82,27,26,23,74,76
25,47,76,27,24,22,82,80
24,38,77,29,24,23,87,83
26,36,68,30,30,25,89,100
25,40,65,33,30,25,86,105
26,42,73,34,30,25,91,109
23,44,85,35,30,26,84,95
23,44,84,33,28,24,84,100
22,48,89,34,24,24,82,92
22,47,104,33,23,22,82,93
23,49,102,33,25,24,72,97
24,49,105,31,27,22,93,103
24,49,117,32,28,22,95,98
22,43,114,29,26,21,98,92
24,44,109,28,29,24,98,88
23,43,113,28,28,23,110,87
31,57,109,37,32,26,88,84
30,57,99,35,30,25,76,77
31,61,98,36,34,26,70,81
29,59,90,35,33,26,85,95
31,59,89,34,34,26,73,90
24,45,77,26,33,25,77,89
26,46,83,30,35,25,77,87
28,47,97,29,35,26,84,88
29,51,109,30,36,26,69,71
29,54,116,33,39,26,78,88
28,55,118,34,37,24,89,97
27,54,119,33,38,29,97,111
24,48,106,33,33,27,90,105
24,42,110,34,34,28,93,105
22,36,96,30,29,27,81,85
25,39,107,32,31,29,103,112
25,43,114,30,29,25,102,107
27,44,113,31,31,26,103,108
26,47,100,30,33,24,106,106
30,48,113,30,38,28,117,129
28,49,101,26,36,25,84,99
27,44,81,26,34,27,80,92
26,52,87,25,34,25,81,92
27,50,86,26,32,26,76,94
23,48,69,25,27,22,69,66
23,48,79,27,30,21,69,70
25,51,95,28,30,22,82,75
26,44,92,27,31,24,80,74
27,46,98,25,28,22,78,73
27,46,112,25,29,24,74,79
26,47,107,24,25,24,101,76
25,48,100,24,25,23,90,84
22,46,100,25,24,23,91,83
21,43,90,25,25,23,89,81
23,44,83,25,26,22,95,85
25,40,100,28,28,24,73,95
25,34,95,29,32,24,70,84
25,36,96,30,30,23,69,86
27,39,98,32,30,25,82,96
27,39,94,34,29,24,85,87
29,44,85,35,30,25,83,80
30,47,98,33,26,25,99,104
30,47,103,32,28,26,106,104
28,46,113,32,27,24,100,97
27,44,115,31,27,25,90,106
23,38,106,28,22,22,87,101
24,43,108,30,27,24,76,78
24,42,113,30,27,24,83,87
24,41,102,29,27,24,82,89
25,43,105,30,31,26,79,76
25,44,109,31,34,27,78,75
25,39,100,29,33,26,81,74
24,40,82,30,32,25,74,62
24,46,81,30,31,25,70,61
25,43,69,27,30,22,83,72
25,43,72,26,29,22,80,75
24,43,76,26,26,21,84,76
24,40,75,26,26,22,86,80
23,37,82,26,31,25,93,87
23,40,91,26,30,26,83,79
23,40,84,25,32,23,86,82
24,56,103,26,33,24,100,93
25,58,107,26,33,23,97,94
27,60,111,26,29,20,93,89
27,58,104,25,28,20,93,95
28,58,110,26,22,20,104,90
28,45,91,23,22,22,91,96
28,41,95,24,23,23,88,93
28,41,88,26,26,25,97,90
28,42,93,28,30,27,99,85
27,42,91,30,35,28,91,88
25,41,85,30,35,25,76,65
26,47,78,32,36,24,80,74
25,44,75,30,33,25,86,76
25,52,75,29,30,23,82,73
26,52,71,25,26,23,76,72
27,54,67,24,25,24,78,79
26,49,73,24,28,24,86,82
24,53,73,27,29,22,70,77
24,45,82,25,29,21,70,83
22,45,80,26,27,21,69,80
22,42,85,27,30,22,73,87
23,47,97,27,24,22,63,76
25,41,114,26,29,24,72,83
24,41,107,27,29,24,73,73
29,48,109,36,38,27,92,112
27,46,105,37,37,25,90,103
29,45,90,36,38,27,90,105
28,46,79,38,37,29,100,106
28,44,73,37,37,30,100,107
25,39,81,30,31,28,93,102
25,41,83,31,40,29,95,103
22,39,83,30,41,27,90,103
25,38,75,28,40,25,84,108
27,41,87,36,43,26,83,112
26,37,77,34,41,24,72,79
28,41,80,32,31,24,68,76
29,38,80,34,30,25,68,69
26,45,95,32,31,23,65,79
24,45,90,25,29,25,79,85
26,46,91,24,29,25,88,88
24,48,108,25,32,24,90,88
23,50,114,23,31,24,91,89
24,46,100,23,29,26,115,110
23,44,96,23,27,24,109,110
21,42,96,26,28,25,104,108
20,37,73,25,28,25,103,107
21,35,80,27,26,25,112,113
21,39,92,30,26,23,80,72
20,43,94,29,24,22,77,69
21,43,93,28,25,22,74,68
22,45,95,27,23,21,76,72
24,44,78,27,25,21,76,79
26,55,91,28,29,23,83,99
27,62,108,30,32,23,88,104
28,65,115,34,30,24,92,111
28,65,120,33,33,27,94,110
28,66,123,32,32,28,81,101
25,58,110,30,29,25,76,79
27,50,98,32,34,28,76,93
26,48,91,28,36,28,80,89
26,48,93,29,33,26,80,92
25,52,100,37,35,28,79,90
27,50,100,36,37,30,74,92
24,47,95,33,31,27,76,91
24,50,95,33,31,28,71,90
23,48,93,33,31,27,64,87
24,43,91,28,31,24,65,86
20,43,85,29,28,22,73,88
24,43,96,28,29,21,78,65
24,41,97,28,27,21,86,70
25,43,89,27,28,23,96,77
24,43,86,23,24,23,108,80
25,42,93,21,26,23,99,74
23,44,89,20,22,23,87,69
23,41,86,21,23,23,81,64
23,35,86,20,22,20,79,62
24,35,89,25,24,20,76,66
26,37,80,25,24,21,77,80
25,38,72,26,25,20,89,84
25,40,72,27,29,24,95,93
26,43,81,28,29,25,87,88
26,42,79,24,29,26,77,83
24,41,81,25,30,24,79,72
25,37,82,25,29,25,85,117
27,38,87,24,27,24,95,114
24,40,77,24,27,24,97,115
25,40,73,25,26,23,102,118
26,38,70,24,24,25,99,118
25,42,69,26,24,25,89,72
24,40,63,29,22,24,77,81
24,35,67,27,23,24,88,86
23,38,65,27,25,25,85,84
21,40,76,28,27,25,87,102
22,46,81,27,28,24,84,99
21,44,86,25,29,25,83,87
20,44,85,26,28,27,73,82
22,42,85,26,28,25,71,85
23,42,76,25,26,24,71,79
22,32,66,22,24,24,73,83
26,42,62,27,26,22,79,81
30,49,62,27,25,22,82,82
29,50,76,27,23,21,80,82
30,50,76,27,24,20,89,80
32,51,85,29,28,23,86,78
29,48,81,26,24,21,81,80
26,41,81,25,25,20,81,80
27,41,73,26,27,21,81,90
27,40,84,27,27,23,76,77
26,43,81,30,24,21,80,87
25,41,80,28,24,22,80,90
25,40,75,28,24,22,89,103
22,40,74,28,25,22,91,93
21,39,69,28,25,20,84,90
20,37,68,28,27,21,78,78
20,37,70,28,28,21,67,69
20,39,70,27,27,21,65,72
22,38,68,26,27,20,66,72
23,43,61,25,26,22,68,82
24,39,59,24,25,22,80,89
24,39,61,23,23,21,81,89
23,38,65,24,25,21,65,68
23,39,72,23,25,23,58,65
23,34,82,26,25,23,97,91
24,34,81,25,26,21,95,94
25,37,85,25,27,23,99,96
26,37,83,27,26,24,100,98
24,39,82,27,25,25,108,101
23,40,77,23,26,25,75,73
22,44,75,22,25,27,68,62
20,45,69,21,25,25,62,62
24,49,80,25,27,26,99,87
24,46,84,27,26,25,96,85
25,48,78,30,25,23,96,85
23,44,80,31,24,20,97,95
26,41,79,33,24,21,106,110
22,39,66,28,20,17,72,90
22,39,73,30,22,18,64,89
20,39,86,29,22,21,90,110
23,40,90,31,26,24,93,107
22,43,99,29,24,23,83,92
23,47,100,30,27,24,82,90
24,50,89,28,27,25,94,92
25,47,80,28,28,23,72,63
24,47,77,25,27,24,71,74
24,46,71,28,29,25,73,75
25,40,71,27,27,27,83,88
24,41,89,29,28,27,80,88
23,45,93,29,27,27,74,85
23,51,94,29,25,27,66,67
22,49,92,26,23,27,71,75
20,48,94,27,25,24,74,59
22,52,83,29,26,22,63,65
22,55,81,28,29,23,77,72
23,50,81,27,28,22,80,75
24,48,75,30,27,21,73,64
23,51,76,32,28,23,64,73
23,43,71,28,28,23,67,83
24,36,77,30,26,22,56,81
23,36,73,30,27,24,64,87
23,37,81,30,30,25,72,93
28,36,78,27,30,23,68,87
28,35,75,29,26,23,85,89
26,35,72,29,28,26,85,85
26,48,76,29,27,26,87,89
28,50,80,29,28,26,102,120
24,49,101,31,27,28,111,132
28,50,111,29,28,27,100,123
28,49,112,29,28,26,104,128
30,45,117,31,32,25,101,130
31,47,124,35,33,25,82,99
38,49,126,34,33,25,71,94
38,69,134,35,36,25,74,95
42,96,139,36,34,26,88,132
57,132,181,39,42,29,90,207
90,231,192,44,45,31,92,240
98,254,189,44,46,31,94,249
99,256,183,46,44,31,110,258
100,255,179,46,47,31,97,243
93,238,132,41,38,26,100,200
62,151,113,32,32,23,99,163
46,115,111,32,30,23,103,144
43,101,106,29,31,24,82,129
40,85,113,28,25,22,76,125
40,82,115,29,26,23,78,106
43,73,111,29,24,21,91,103
40,71,107,29,25,20,85,100
41,77,105,29,24,19,82,95
38,74,101,30,26,21,94,114
37,75,103,30,26,20,91,101
31,71,96,32,30,21,78,98
35,61,90,31,32,21,82,113
35,62,95,33,35,23,88,118
34,61,93,35,35,22,78,95
32,68,94,35,35,23,70,89
32,68,96,35,31,22,64,96
32,80,125,37,33,25,77,98
31,71,123,35,30,23,72,100
31,69,126,36,30,23,69,101
32,64,125,38,35,25,66,100
33,68,131,36,37,26,65,94
28,56,104,32,33,25,58,85
36,61,101,35,35,26,62,93
35,61,96,32,35,26,74,98
34,61,97,32,30,24,76,99
34,57,93,34,32,24,89,98
33,65,94,36,33,23,82,87
29,79,101,35,31,23,80,100
31,88,106,37,35,27,75,105
35,104,104,35,39,28,78,108
41,110,106,37,38,28,65,106
49,125,101,41,41,32,67,112
70,175,102,43,47,31,74,109
71,172,100,40,44,31,74,99
69,166,113,43,42,30,72,98
65,164,133,42,46,30,77,102
63,153,138,38,43,26,86,119
43,91,143,37,39,25,78,95
39,87,146,38,39,23,83,98
41,79,135,36,37,23,81,94
42,76,113,33,29,21,84,101
39,71,130,33,29,22,70,74
32,55,125,31,26,23,71,78
31,58,115,31,27,25,72,74
29,59,128,28,27,27,79,82
28,64,134,32,30,27,70,82
26,68,111,34,32,28,84,82
27,71,105,34,32,29,81,79
28,71,110,33,31,27,79,81
30,74,102,35,31,26,72,86
29,75,97,32,28,26,74,74
29,72,102,35,28,26,66,73
28,68,101,33,28,25,70,83
29,69,92,35,30,25,68,94
29,74,106,38,35,29,85,95
33,74,101,38,36,29,86,93
32,73,97,32,35,26,83,103
33,77,111,35,34,28,90,112
37,99,133,38,37,28,85,107
39,102,129,36,33,27,79,118
39,108,148,39,37,38,84,129
48,125,184,44,38,43,89,139
52,150,215,44,42,44,91,138
54,153,209,42,41,46,94,163
52,152,235,44,50,47,92,171
63,172,238,52,56,43,108,193
62,191,227,56,57,45,112,197
72,189,205,59,56,46,109,201
75,197,234,67,58,45,113,194
78,201,212,65,52,43,112,192
70,185,197,62,49,41,90,171
71,171,232,61,48,38,84,172
71,163,245,61,48,41,82,169
68,154,216,50,47,43,82,160
68,175,215,52,46,45,80,145
70,182,237,51,41,44,92,147
66,173,218,50,42,43,98,124
53,182,196,46,39,42,99,117
53,179,197,48,38,44,92,142
48,173,200,53,38,49,95,154
53,175,179,52,39,51,102,148
78,173,167,49,45,54,100,156
78,161,166,48,47,53,104,157
78,156,175,55,52,50,108,135
83,151,163,49,50,43,106,131
83,156,176,47,55,42,96,152
81,176,204,47,49,41,94,166
90,218,210,49,49,44,96,164
93,229,204,41,41,47,105,179
98,256,217,44,43,49,110,178
103,255,211,47,36,51,113,190
102,279,176,44,39,51,107,214
98,275,193,48,41,46,102,214
96,278,192,52,46,41,92,199
90,242,183,47,44,39,98,207
82,237,197,45,43,39,104,185
64,217,212,46,42,37,108,140
58,204,187,42,44,41,117,141
56,182,189,40,40,41,116,147
55,189,192,47,43,42,103,129
54,186,177,56,45,39,91,112
54,157,157,59,52,39,95,132
58,145,197,63,50,38,80,146
59,165,205,66,54,39,93,137
62,173,219,63,54,37,95,139
59,175,212,56,55,37,93,141
64,182,214,54,48,35,84,134
61,190,200,52,54,38,92,125
58,195,198,46,49,36,82,132
57,185,185,42,47,37,86,136
59,197,194,45,47,40,86,141
56,201,196,41,49,43,98,137
57,192,181,38,43,38,93,132
63,191,171,40,41,41,93,140
60,195,180,42,40,41,90,144
59,210,176,39,42,40,103,168
61,212,171,39,37,38,92,164
68,213,175,42,43,37,97,160
67,221,188,41,44,37,113,218
69,225,183,44,44,42,118,216
70,223,177,43,45,43,111,196
69,223,175,42,47,41,120,198
63,221,180,41,39,41,116,201
66,230,164,41,43,41,99,133
65,236,154,39,44,36,90,119
63,221,163,39,41,34,96,127
64,214,190,47,42,34,85,136
64,200,190,46,46,35,81,150
56,179,196,47,41,31,84,142
66,170,215,52,43,31,87,161
65,165,213,53,42,32,76,151
67,172,212,53,42,35,79,143
62,171,202,50,37,34,87,139
62,162,198,48,39,37,90,146
62,171,181,44,37,36,85,127
61,166,205,43,35,32,85,139
56,160,175,41,33,28,83,145
57,161,179,47,37,28,74,133
60,151,192,47,37,24,65,130
51,128,180,46,37,25,72,135
54,125,146,47,38,24,64,121
52,130,143,42,36,24,61,104
60,136,142,37,36,23,75,119
57,143,127,40,33,24,77,112
57,165,131,42,39,29,85,116
58,172,129,39,36,29,89,132
73,170,159,40,38,28,92,146
67,174,156,44,37,32,86,164
65,179,148,43,38,31,82,164
64,156,143,40,30,27,71,156
66,153,137,41,34,27,69,151
48,145,108,44,37,29,74,138
48,142,113,47,40,31,80,120
52,145,129,48,41,32,81,130
54,186,147,49,42,32,84,138
51,181,156,46,41,32,88,140
53,198,158,46,39,31,88,141
56,205,200,41,38,26,77,150
54,210,225,41,43,35,98,147
54,180,228,44,42,36,104,149
54,183,223,45,42,37,109,149
52,180,221,41,43,37,112,168
49,175,222,41,41,37,118,161
52,178,204,39,37,30,106,162
51,172,199,34,37,30,102,171
48,172,203,37,37,35,100,163
51,174,219,41,36,35,97,156
64,174,197,45,39,35,100,161
65,169,184,45,37,34,99,157
62,172,185,46,36,33,95,149
68,172,187,48,40,29,89,156
71,173,176,47,44,30,96,145
65,162,146,44,40,30,89,129
64,159,147,43,41,30,89,125
68,190,148,44,41,29,88,128
64,190,141,41,36,30,94,121
59,177,138,41,34,30,90,131
55,178,175,42,35,28,87,134
52,166,168,42,34,28,87,132
48,147,167,40,38,33,101,124
48,145,167,38,38,30,95,121
51,139,171,41,41,31,97,112
50,136,135,39,43,31,94,98
51,149,166,46,46,33,109,123
53,144,157,49,44,30,95,116
54,150,162,50,43,30,97,123
49,144,163,45,38,28,88,112
48,161,164,44,36,30,92,104
50,156,145,45,33,27,69,78
46,144,165,41,31,27,75,111
44,139,164,43,31,28,75,104
48,146,164,42,30,29,71,108
49,133,173,44,33,31,87,136
48,127,173,38,32,31,91,156
48,126,149,41,33,31,98,145
52,122,147,41,32,30,96,156
54,127,155,47,33,29,96,168
54,119,150,48,33,29,95,152
53,127,143,48,36,27,91,129
61,134,150,43,35,28,83,119
58,131,147,43,35,28,89,131
56,118,128,36,37,30,93,142
58,121,147,37,35,30,77,137
59,108,151,36,33,33,84,147
55,101,146,36,33,33,81,152
59,109,150,37,36,34,81,131
62,108,150,39,32,33,79,138
59,103,118,35,32,30,82,143
59,104,126,36,38,30,88,134
55,106,122,34,38,30,94,132
54,102,136,35,46,29,104,208
53,130,150,34,46,30,101,188
54,132,149,34,48,29,109,188
56,140,152,37,45,28,103,206
58,140,158,41,45,26,97,203
57,145,141,38,36,27,93,145
53,132,149,39,39,26,93,144
56,143,157,40,40,26,87,139
53,137,151,36,37,24,81,112
51,137,170,37,38,27,86,113
46,126,172,39,39,27,75,85
49,120,153,40,40,27,90,104
44,106,165,39,37,29,85,108
41,121,183,38,36,28,85,108
43,135,165,35,34,28,83,110
46,138,166,35,32,27,80,109
45,137,169,40,32,29,91,132
46,151,175,42,33,28,90,134
46,146,158,43,34,31,96,136
45,130,157,41,34,29,96,141
51,140,158,45,37,31,100,146
52,146,156,48,36,31,83,131
53,132,124,48,36,32,94,138
55,122,134,52,39,33,94,140
54,124,130,53,37,32,90,135
56,117,144,49,40,31,93,144
54,117,174,43,36,29,100,133
52,120,182,41,34,29,91,123
50,119,166,36,33,26,84,117
51,123,165,37,37,28,87,112
41,115,151,40,38,26,83,128
39,97,102,35,37,25,68,119
40,102,95,37,38,24,68,116
43,103,92,36,37,24,67,121
53,99,108,35,36,26,92,124
53,104,106,29,33,25,92,92
55,135,204,43,40,28,99,117
58,155,214,43,41,27,97,119
56,157,222,44,40,28,106,127
47,151,215,46,41,25,86,130
45,158,219,47,41,26,83,128
43,140,141,36,35,24,81,107
39,116,117,36,34,26,91,100
39,113,108,33,35,27,89,97
40,122,135,31,33,32,92,119
43,115,130,30,32,32,86,128
44,112,135,29,33,32,85,127
46,100,180,40,33,31,79,129
49,110,181,43,32,32,90,126
46,102,160,43,29,25,89,107
44,113,155,44,29,26,96,100
43,107,155,45,29,29,121,121
39,117,122,34,29,28,120,129
33,121,129,36,37,28,106,119
33,126,134,35,36,30,103,110
44,111,140,38,42,32,107,131
44,116,151,38,38,26,79,123
44,110,156,40,37,27,74,113
46,93,148,34,31,26,74,123
48,113,145,36,31,25,81,123
39,119,143,33,25,21,73,100
38,127,120,33,31,25,81,101
39,128,93,36,31,30,98,104
42,130,93,39,31,30,106,98
44,115,100,42,36,31,100,134
43,109,121,43,36,32,100,138
41,94,118,42,32,31,103,132
42,91,112,37,31,27,91,134
37,89,110,37,33,28,85,134
37,101,113,33,28,27,88,110
37,101,145,33,30,28,92,123
38,100,155,34,29,27,79,117
40,107,159,37,29,27,75,121
43,115,177,35,30,27,75,122
42,100,196,36,33,26,69,114
43,99,158,35,33,24,56,90
47,100,147,34,34,24,56,114
48,94,149,34,34,25,84,122
47,83,128,34,33,25,81,121
43,83,83,33,32,27,94,122
47,95,90,32,30,27,95,122
44,96,107,32,28,28,93,107
41,90,98,29,30,28,82,102
39,96,128,31,30,28,85,112
40,93,131,32,28,27,71,106
35,79,133,31,26,26,71,107
35,73,122,32,29,26,69,111
35,81,129,36,28,26,73,119
36,72,106,36,31,27,84,120
41,74,106,35,29,26,89,124
40,74,102,37,30,25,90,124
40,83,112,35,29,28,101,128
41,93,108,34,31,28,88,118
40,95,117,32,28,28,81,109
37,93,123,35,30,27,77,106
39,93,123,33,30,29,80,102
40,84,118,36,31,25,68,93
36,63,116,33,26,23,86,100
39,79,109,34,30,22,86,105
35,85,100,32,32,25,92,110
33,85,96,32,32,24,90,125
30,95,117,33,30,23,92,117
31,96,115,34,34,24,89,106
29,82,111,32,30,24,88,96
32,83,129,34,27,21,83,110
32,82,145,33,26,20,81,100
35,82,133,33,30,23,82,108
36,88,138,35,31,26,67,105
36,84,135,34,29,24,61,103
36,79,116,31,31,25,66,119
37,78,103,34,32,27,71,120
33,67,99,32,31,27,64,117
34,57,95,32,28,24,62,118
39,64,92,33,32,26,87,135
37,65,101,34,33,31,107,197
37,71,101,29,33,30,107,203
41,70,101,39,34,29,114,202
40,79,107,40,33,30,117,212
36,76,111,40,30,27,101,203
34,76,104,38,28,23,74,120
38,68,107,39,31,23,72,106
34,70,115,33,31,22,67,106
32,64,117,29,30,22,64,83
30,64,127,29,29,24,66,101
35,70,132,31,29,23,74,111
34,72,125,31,28,22,72,118
36,75,118,27,26,23,66,117
34,75,115,28,30,25,62,116
38,82,112,30,31,24,69,114
37,84,118,32,29,23,73,107
44,90,136,31,27,26,76,97
43,87,140,32,28,27,73,92
48,85,147,30,26,26,74,97
47,90,140,31,31,27,68,101
48,84,138,28,33,28,58,106
39,80,125,29,32,27,67,111
41,89,130,28,32,27,71,115
38,90,124,30,33,25,78,131
39,82,136,34,33,26,79,119
35,88,138,34,34,25,75,107
34,86,133,34,34,25,84,104
38,84,117,34,34,24,84,104
40,87,130,33,33,26,81,76
40,88,132,29,29,26,82,121
43,85,135,30,30,29,90,124
44,94,134,31,29,28,80,135
40,93,135,31,28,29,83,134
46,90,120,31,27,27,77,135
46,85,102,30,25,27,71,95
42,84,85,28,22,24,71,104
41,72,92,27,25,28,76,114
41,68,91,27,26,28,71,110
33,68,97,31,25,29,77,121
35,74,94,31,27,29,86,123
36,70,89,35,29,30,80,114
37,73,83,35,26,26,74,95
35,74,97,38,30,28,82,121
33,73,85,33,30,26,80,111
31,67,87,34,30,26,71,108
31,67,92,30,28,23,81,113
30,63,109,31,33,25,81,131
28,60,100,27,29,22,76,112
29,56,95,30,29,23,73,109
34,65,95,29,28,23,78,107
33,64,101,29,31,24,70,103
36,67,82,28,27,26,80,74
38,65,86,28,28,27,84,87
39,66,89,27,28,26,91,101
31,57,92,27,29,24,91,116
34,59,86,28,28,25,96,126
36,58,95,29,32,21,91,138
34,59,99,30,31,21,85,127
33,62,100,28,32,21,78,122
36,66,103,31,32,22,83,113
37,65,107,31,31,24,87,138
32,59,99,29,26,24,80,127
30,57,90,28,26,24,82,128
31,49,90,28,26,26,86,132
28,43,106,26,27,26,83,128
25,42,117,27,29,23,81,102
25,48,127,28,30,22,83,96
25,48,126,29,30,23,82,99
26,50,127,34,33,23,84,110
25,47,109,32,30,20,79,112
27,45,96,32,29,23,67,108
26,43,80,30,28,23,67,117
27,44,84,31,29,25,74,125
27,47,81,27,28,27,72,141
30,54,81,28,28,29,72,142
28,51,79,25,28,29,82,136
27,54,81,26,28,28,81,133
28,53,73,24,29,26,70,127
27,50,71,25,26,23,66,85
24,42,72,27,28,23,69,80
26,45,63,26,27,21,60,89
26,38,64,28,30,21,65,108
25,35,75,27,29,22,70,105
28,38,85,26,29,24,81,145
29,39,92,26,29,23,77,143
29,49,97,29,30,22,73,133
28,50,99,27,28,23,76,119
28,53,101,30,30,26,94,130
26,62,115,30,30,26,92,112
29,70,146,36,31,27,96,143
30,68,157,36,32,28,111,172
31,71,160,38,31,28,113,177
33,78,157,37,28,26,97,168
34,70,150,37,32,28,89,177
32,69,125,32,30,27,88,164
33,62,109,31,29,28,74,146
33,61,104,28,30,28,59,135
32,59,120,28,32,27,59,134
30,64,129,26,30,28,70,124
29,58,131,29,32,29,76,128
27,59,133,28,31,27,71,120
26,58,139,29,31,28,73,132
30,56,136,32,31,28,79,134
29,54,127,32,30,25,72,117
31,62,131,28,29,22,75,105
33,65,129,27,32,25,83,113
33,69,120,27,33,25,88,101
33,65,108,25,33,26,85,116
33,63,106,25,32,27,87,116
32,58,94,26,31,27,74,120
33,54,89,30,29,25,71,114
33,55,98,31,29,24,70,115
28,59,104,30,28,22,73,105
27,59,99,31,28,22,69,99
36,68,100,31,28,23,70,87
34,69,109,28,31,26,91,114
40,70,102,29,33,26,98,135
41,69,112,30,33,26,95,133
44,67,113,30,33,24,99,140
38,64,120,29,32,23,102,143
41,71,112,30,30,21,86,130
35,69,114,26,27,21,81,112
37,68,97,24,26,24,81,109
36,72,97,27,28,25,83,109
35,69,88,28,29,25,84,110
29,65,90,28,30,25,81,116
32,74,109,30,30,27,93,124
33,73,106,31,32,27,92,135
31,72,153,34,31,26,85,137
34,70,157,37,32,25,80,145
37,66,155,37,35,30,90,141
35,55,149,37,36,28,70,129
33,60,154,36,35,26,72,130
31,56,121,33,34,25,73,123
28,58,120,30,35,28,85,122
26,70,148,35,31,22,72,106
27,74,142,37,31,23,88,138
26,69,146,37,31,23,85,124
28,72,131,35,29,23,89,127
31,76,136,35,26,20,80,112
30,68,110,30,26,22,76,112
33,77,151,31,26,24,66,100
34,78,149,31,26,24,68,103
35,83,168,34,28,25,63,103
33,78,156,33,29,25,68,106
