48,89,187,55,32,28,91,82
47,96,237,62,46,30,93,83
55,120,235,71,46,27,92,85
57,139,245,69,49,25,71,50
58,151,310,106,59,26,67,45
57,148,332,133,88,29,66,43
56,150,358,146,91,29,64,41
48,152,370,157,97,30,41,30
47,149,433,164,96,31,35,29
54,146,492,174,108,33,36,26
55,163,500,157,92,33,34,26
57,172,513,158,90,41,36,28
61,188,554,152,98,42,38,26
76,204,586,224,113,44,58,33
77,233,552,225,129,50,61,37
78,244,662,244,130,112,95,46
83,259,642,242,129,117,102,49
79,243,623,249,119,118,110,85
67,238,601,185,123,121,103,89
63,222,658,190,97,120,104,89
61,200,544,184,99,68,75,85
61,198,574,180,99,61,97,88
60,193,556,168,123,61,89,56
55,182,577,201,125,67,89,58
70,229,524,243,122,67,87,88
75,266,518,239,142,65,87,91
73,253,498,244,149,60,55,92
73,266,526,244,145,62,69,97
77,292,585,265,157,51,71,91
76,351,664,209,168,48,69,62
72,340,765,260,177,49,69,58
90,364,795,276,215,54,64,49
147,366,817,302,230,54,44,43
158,357,762,266,220,51,52,48
156,259,697,278,214,52,56,47
176,270,595,222,191,49,57,72
180,263,616,251,159,45,57,73
146,277,634,247,130,42,60,73
138,372,688,248,137,48,78,78
170,374,670,241,146,52,84,83
164,455,723,243,151,54,104,90
165,466,726,210,135,54,173,130
166,464,663,171,124,60,179,134
164,415,645,180,108,56,169,131
129,415,651,172,109,59,164,143
113,313,627,176,102,63,157,128
95,302,559,152,121,64,80,90
120,310,607,171,134,59,75,87
117,290,555,164,133,62,78,87
120,306,586,174,122,61,81,61
125,305,571,185,123,53,85,65
138,310,673,226,115,53,79,63
111,304,643,253,132,50,67,54
109,275,617,250,130,45,67,51
103,255,576,236,122,39,62,48
95,343,682,241,122,45,60,41
68,328,564,196,105,43,59,37
65,335,585,160,65,65,61,36
66,352,597,161,76,73,57,37
84,412,616,184,82,75,59,36
90,378,590,196,89,78,42,35
103,399,684,224,111,78,44,36
101,393,683,214,118,66,44,39
108,441,697,222,115,57,42,36
110,451,825,259,133,58,50,39
104,428,738,233,132,50,50,37
108,447,680,225,129,52,48,37
110,438,687,230,124,47,44,36
105,385,728,217,118,45,43,37
89,310,574,170,100,41,31,33
91,313,670,182,98,44,35,34
71,251,664,185,79,42,31,34
64,313,702,199,79,39,30,31
62,329,660,206,94,40,31,33
67,338,648,195,87,36,30,33
70,362,573,198,102,36,27,31
70,381,576,189,111,37,29,31
84,372,504,177,119,39,32,35
84,359,466,171,108,40,31,35
90,358,465,178,137,45,31,35
88,315,464,177,124,44,30,35
89,282,438,168,123,40,30,34
85,304,502,177,121,39,30,30
86,302,511,177,123,38,32,27
93,316,525,170,92,36,33,27
89,313,513,174,103,33,31,28
89,337,565,178,102,34,31,27
80,274,495,155,92,30,29,26
83,292,493,164,95,29,25,25
61,259,459,160,99,25,23,26
64,256,448,151,90,31,22,25
64,264,395,138,83,29,22,23
64,255,439,141,93,31,21,25
79,256,448,175,103,32,22,27
85,266,438,172,106,32,23,26
86,340,506,162,101,29,25,29
84,381,524,164,102,32,25,31
85,388,533,207,108,30,26,29
73,390,523,180,98,30,32,29
74,390,621,189,96,33,32,33
72,346,565,187,99,33,31,31
81,293,586,213,115,33,33,31
88,334,541,174,109,37,36,35
85,319,531,168,111,38,33,38
86,354,473,178,115,37,36,33
88,354,513,186,113,36,36,33
78,334,503,184,110,33,33,33
79,305,522,193,111,31,31,30
81,315,550,197,106,30,31,26
75,268,585,187,104,29,25,28
76,278,587,186,129,30,26,29
82,313,600,172,118,33,31,30
74,308,613,163,118,33,30,31
69,313,646,183,129,34,29,33
75,362,626,195,133,36,32,31
85,378,639,193,114,36,32,32
93,371,676,204,122,36,28,30
99,359,661,207,122,36,28,32
97,343,616,182,113,37,29,30
91,287,553,164,102,34,28,30
96,259,520,177,114,35,29,28
93,222,461,152,107,32,28,30
95,219,464,146,105,34,30,27
99,222,463,166,112,32,50,37
104,275,538,160,115,32,51,39
88,256,521,138,100,29,51,40
79,277,494,162,114,31,53,41
88,380,504,196,137,34,54,42
93,387,484,180,135,34,55,49
99,379,493,209,133,33,57,49
100,403,571,238,129,36,60,49
110,430,571,249,129,36,63,48
99,362,545,222,102,32,63,47
104,365,545,223,95,30,46,33
98,346,510,209,92,33,46,35
103,371,442,201,93,31,45,37
92,322,441,174,78,30,39,39
88,319,460,174,86,30,38,39
76,377,601,183,83,32,39,39
74,464,696,167,87,30,35,36
65,430,762,169,96,33,33,35
69,450,818,180,95,32,32,34
87,475,837,187,88,32,33,35
95,437,781,181,105,32,32,36
105,496,713,186,101,38,35,36
123,586,800,196,100,39,54,41
121,572,821,202,105,40,56,40
115,563,788,190,103,42,55,40
107,568,889,200,90,43,58,38
107,440,850,190,88,37,56,38
91,337,710,152,76,33,36,30
92,335,641,123,60,31,32,31
88,346,702,133,61,28,32,33
89,313,524,111,48,23,23,33
77,350,560,120,48,26,23,31
78,358,588,117,46,28,24,31
79,356,563,112,48,28,22,33
79,318,555,113,43,30,25,30
78,320,598,119,48,29,23,29
78,281,618,121,49,30,24,32
83,260,624,130,55,29,26,31
82,295,667,128,53,29,25,29
93,337,657,156,69,34,32,30
96,338,649,160,68,33,35,31
92,332,653,163,71,31,36,27
86,303,610,159,68,31,35,28
82,273,569,163,71,33,37,28
87,239,571,142,62,28,32,28
85,260,616,162,66,28,31,30
84,262,632,159,66,30,32,32
81,298,635,153,65,30,32,35
82,303,653,157,64,31,46,41
72,288,645,163,61,30,48,42
78,284,607,149,65,34,51,40
82,303,527,141,62,33,52,38
81,295,516,144,63,34,53,36
96,296,518,145,66,33,40,34
92,331,475,134,67,33,41,35
84,311,433,112,56,30,37,38
78,283,443,113,53,27,35,38
92,295,430,116,54,26,34,41
78,294,337,97,49,27,46,41
77,270,331,91,44,25,58,40
79,289,328,100,51,27,66,42
80,311,402,108,55,30,77,45
60,273,408,111,54,29,77,43
59,266,437,116,53,29,71,42
56,260,433,111,50,30,62,41
70,336,467,105,52,32,62,41
70,350,463,100,49,31,55,38
71,363,450,96,50,31,57,39
73,358,428,92,52,32,59,33
72,352,466,124,64,32,56,32
61,261,440,146,68,30,49,31
63,241,426,156,71,30,57,41
64,218,452,165,76,34,61,41
63,223,457,163,73,33,59,44
65,208,454,144,65,33,62,49
60,200,443,119,56,32,63,48
66,197,417,103,55,34,62,45
74,208,487,96,54,31,57,47
77,231,513,103,56,32,58,45
73,269,483,98,53,30,55,40
81,284,487,99,52,28,55,40
79,274,486,99,53,27,50,36
74,285,419,93,46,25,55,40
75,295,408,86,48,25,55,53
81,285,431,91,51,31,98,108
72,269,424,102,55,32,97,115
70,267,430,100,53,31,98,120
67,247,412,96,53,33,98,119
64,269,422,97,55,34,100,115
57,237,403,86,49,29,78,72
60,254,415,76,48,32,89,62
62,284,420,70,48,35,107,104
62,306,454,64,46,33,109,117
61,285,460,68,42,31,109,118
66,305,479,71,44,33,114,120
63,304,514,80,42,31,105,120
64,313,540,86,48,31,87,94
67,317,506,81,47,32,109,117
64,289,487,77,46,31,109,123
60,293,474,75,48,33,95,122
62,284,404,59,47,31,95,121
72,302,442,56,44,31,94,111
71,278,425,54,41,29,62,74
72,299,460,57,43,30,69,89
70,285,454,60,41,28,63,87
68,282,488,68,41,29,71,89
49,205,370,64,34,24,63,90
54,218,396,74,36,25,60,84
56,233,434,80,40,25,56,65
62,228,418,79,39,25,88,93
65,234,416,87,41,25,83,96
66,232,436,92,43,27,85,99
58,217,417,88,44,27,98,116
55,208,345,85,43,29,118,140
47,200,354,83,42,29,107,123
52,204,313,80,43,27,110,136
51,230,310,74,42,29,113,138
60,231,340,75,42,29,105,154
61,219,325,73,41,26,80,131
63,237,380,90,45,27,66,130
61,240,378,84,42,28,59,114
61,219,364,84,43,27,57,108
59,228,389,88,44,27,66,89
59,219,378,89,41,26,62,83
60,218,350,82,41,26,66,100
54,209,372,80,41,27,65,100
54,205,369,82,39,25,60,101
59,207,332,79,47,31,61,117
58,184,310,78,49,32,68,117
54,179,353,80,47,32,86,126
61,194,397,82,48,32,86,129
65,232,404,79,50,36,99,131
56,248,403,77,42,31,92,98
53,266,433,80,43,30,88,97
52,249,388,71,42,29,69,69
61,267,328,76,46,32,75,102
59,246,319,77,47,28,59,104
64,311,343,83,54,31,69,102
69,325,372,80,51,30,69,102
71,349,382,83,51,31,71,99
57,322,371,74,46,32,72,109
55,318,396,76,44,32,72,103
51,244,380,74,37,29,71,128
46,200,349,79,40,30,78,132
45,153,316,72,39,29,81,149
51,159,324,76,39,25,76,129
50,163,348,76,38,25,77,130
47,141,340,73,35,24,66,110
46,148,343,75,36,24,82,108
47,153,363,78,36,24,76,119
44,142,353,70,34,22,82,112
52,163,303,76,37,24,85,114
52,177,303,72,39,24,86,113
73,318,337,83,51,28,82,117
85,403,396,80,55,31,79,81
85,415,422,85,57,33,74,101
83,416,424,84,58,35,72,107
85,417,438,89,60,36,69,122
71,341,416,75,51,34,44,118
57,290,384,77,47,33,55,124
64,316,359,79,48,34,51,105
63,305,363,73,44,32,51,101
64,320,345,75,44,30,65,143
60,299,317,71,42,29,80,147
59,258,336,73,42,28,72,146
47,202,334,67,39,27,75,144
51,281,432,71,42,28,74,142
48,265,450,66,39,34,114,100
51,267,442,70,40,33,106,99
60,291,415,77,44,37,112,100
61,301,470,91,51,36,117,112
72,273,398,95,55,35,122,112
71,267,378,96,55,28,77,105
78,284,435,97,54,28,78,113
74,262,405,91,53,27,72,110
88,299,403,85,51,30,64,99
95,351,450,80,53,36,68,100
102,377,478,80,56,38,71,111
109,415,464,79,63,41,71,98
111,416,466,77,60,40,73,96
108,400,419,72,57,37,79,97
103,355,359,78,54,34,72,115
99,341,317,82,55,35,93,125
89,312,357,86,48,34,94,128
97,358,379,88,53,36,97,161
88,343,381,91,52,36,93,164
87,331,406,86,50,33,95,153
92,343,480,82,46,35,113,138
95,379,453,84,51,36,117,157
84,349,496,92,50,41,115,123
87,364,549,89,52,41,123,121
78,345,525,88,49,43,124,116
65,314,524,99,52,40,94,108
65,254,547,105,53,44,97,69
73,267,544,101,53,38,99,72
88,362,514,118,65,47,91,87
88,377,563,124,72,57,96,103
89,396,506,120,75,79,95,101
88,412,491,115,77,81,106,109
81,397,522,133,78,81,102,107
64,304,544,118,68,77,116,126
68,338,666,128,70,80,121,117
83,342,735,149,84,64,142,142
84,334,750,155,81,58,125,148
84,317,727,151,81,59,141,184
86,347,723,157,86,59,129,171
83,308,609,156,83,44,119,173
71,299,561,141,67,35,104,164
80,305,515,130,64,36,107,157
79,322,509,116,62,36,94,114
85,329,526,139,67,37,96,119
90,358,497,129,66,44,92,113
84,334,494,129,63,44,75,96
78,331,536,138,63,45,92,95
84,321,531,142,61,44,94,112
80,301,486,112,50,41,100,107
72,254,546,112,47,36,112,111
75,259,514,105,44,38,115,115
66,228,513,92,42,34,99,142
92,358,551,101,66,42,89,126
92,349,569,106,67,43,79,116
95,374,598,126,74,41,67,118
96,394,657,125,77,38,64,111
99,417,647,121,78,40,60,68
87,388,652,105,62,34,56,65
82,399,689,102,59,32,51,59
81,375,624,71,48,35,85,93
80,370,607,80,46,36,96,96
74,352,608,109,47,33,110,122
80,307,611,137,58,37,115,139
83,284,556,140,56,39,117,142
79,285,528,139,57,38,94,120
79,274,476,133,55,37,88,127
88,266,461,129,62,37,71,108
67,222,352,97,46,33,63,87
63,232,366,95,51,35,62,86
72,280,369,102,58,38,60,92
71,280,346,101,58,38,46,79
72,318,326,89,61,41,44,69
81,391,369,104,68,41,42,66
84,399,383,101,65,38,37,60
79,376,384,93,60,31,31,37
79,372,419,93,61,31,30,34
72,339,402,85,51,26,45,42
62,273,376,71,49,29,50,51
67,265,353,71,50,29,67,84
67,254,351,66,49,28,69,92
67,256,335,72,50,33,82,97
95,361,439,89,65,37,79,97
106,410,472,104,70,37,76,92
107,421,466,103,72,37,69,65
106,420,485,108,72,39,72,61
107,425,512,111,72,36,62,74
82,339,457,94,54,31,57,72
69,296,454,83,44,28,57,72
62,279,455,86,43,31,72,84
65,295,433,97,47,32,70,84
63,285,380,90,46,32,70,69
59,275,367,95,47,32,69,67
64,236,340,105,48,29,71,90
67,246,386,115,61,31,71,92
67,235,448,115,60,28,72,91
67,229,518,139,66,31,78,99
69,222,518,141,65,32,84,102
59,202,518,133,64,33,90,109
53,162,512,129,50,29,74,103
47,147,475,122,48,29,73,102
51,179,410,104,44,26,65,95
54,214,419,96,44,26,65,104
79,304,454,94,49,33,91,124
78,308,408,87,48,33,93,122
79,311,376,81,47,35,94,129
75,302,412,75,47,36,100,130
75,296,415,89,48,35,99,121
54,242,375,103,45,30,84,101
55,268,445,111,50,30,82,101
60,275,453,112,52,31,87,89
66,287,424,105,53,33,78,87
64,279,442,103,55,35,74,86
58,248,435,86,50,35,62,52
56,217,358,79,46,33,60,48
56,227,412,81,46,34,69,62
52,215,417,80,41,32,78,64
55,215,356,71,37,30,78,65
66,294,380,90,48,30,72,59
74,296,398,98,54,34,88,70
75,304,378,95,53,31,79,58
76,318,381,98,56,32,73,57
86,363,395,103,58,34,75,85
80,310,364,87,51,34,89,90
79,336,436,93,53,34,82,91
78,316,401,96,54,31,76,93
74,287,416,102,55,31,79,91
63,252,448,100,53,29,79,66
61,262,491,105,54,28,66,68
55,234,423,90,47,25,53,84
65,232,421,95,48,30,74,89
68,250,387,81,45,30,70,94
69,215,335,75,44,31,80,102
70,221,290,62,40,30,82,104
72,251,376,64,43,32,83,83
76,307,413,71,48,29,69,107
74,303,422,82,46,28,67,106
71,307,425,86,46,29,60,100
73,291,426,89,49,29,55,98
72,283,367,88,48,31,58,97
67,295,476,90,50,33,71,63
73,341,534,88,52,34,72,58
75,347,532,85,53,33,70,71
70,344,517,84,51,33,70,77
69,323,490,85,49,32,74,85
56,274,360,71,39,30,59,83
61,257,326,81,44,32,61,82
60,292,376,92,48,32,63,96
63,302,371,89,47,31,57,86
64,337,424,94,51,33,65,82
62,315,413,95,51,34,76,89
56,304,377,89,51,32,84,92
59,280,370,82,52,33,81,81
56,262,395,88,52,35,106,94
50,242,415,78,46,30,102,94
58,275,430,82,51,31,93,87
52,259,416,78,45,32,89,88
49,235,382,77,40,32,97,108
49,232,350,70,40,30,69,99
50,195,280,67,42,31,65,98
55,210,315,73,43,31,67,117
55,196,310,68,43,29,61,116
54,197,328,65,42,27,46,83
62,224,332,74,46,28,61,84
63,230,346,77,45,27,66,101
59,201,329,66,36,25,67,81
56,189,373,71,39,26,65,80
57,193,371,72,40,27,68,84
53,184,400,74,37,28,67,94
55,218,442,76,37,27,61,76
50,209,421,77,40,29,61,96
57,292,515,82,43,30,63,96
60,298,517,80,41,29,70,95
56,290,549,79,40,26,65,81
59,300,528,91,47,31,64,82
74,420,656,105,56,32,69,92
70,373,558,99,53,29,67,90
72,394,617,112,58,31,74,96
74,392,569,109,57,32,69,98
69,366,540,102,55,28,81,97
56,218,384,85,43,24,74,58
55,229,433,93,44,24,77,86
50,179,309,75,38,22,64,81
57,188,313,75,41,24,70,106
56,177,335,71,36,23,56,108
51,162,354,81,38,25,70,131
54,142,327,99,47,28,81,120
56,164,334,100,48,29,82,118
46,158,356,102,48,28,79,98
47,167,366,102,48,28,78,99
48,164,328,94,46,26,85,76
48,179,326,66,36,26,75,83
46,168,387,72,38,28,79,83
47,182,391,73,38,29,84,80
44,174,365,74,42,30,101,78
49,189,392,76,41,31,88,69
49,176,367,75,43,29,86,94
50,176,329,79,44,28,79,107
50,165,297,72,41,26,76,106
58,190,316,67,35,26,69,107
54,186,350,72,36,24,68,129
50,200,362,75,37,25,80,103
49,206,368,71,36,25,88,92
49,199,374,70,35,26,93,102
42,180,368,69,35,26,80,101
42,173,332,67,36,27,89,73
40,146,359,73,35,25,78,69
37,133,353,63,29,23,67,71
41,152,456,95,40,21,57,77
43,167,494,99,44,25,88,88
45,216,573,97,46,27,95,90
48,239,640,99,46,29,105,101
54,299,637,112,51,33,111,98
58,312,591,93,45,36,111,85
55,305,564,92,42,32,94,73
56,284,497,99,42,33,77,98
56,268,387,91,40,34,78,94
51,190,451,105,45,32,70,105
51,177,462,102,43,30,82,124
52,200,481,100,47,32,109,145
49,186,466,94,47,30,110,129
50,199,486,105,50,28,104,129
47,203,439,82,43,26,104,127
41,185,461,96,46,27,110,144
46,197,437,95,44,59,98,125
47,212,451,97,43,63,98,122
48,198,466,97,41,63,96,128
50,219,461,95,41,66,100,134
51,237,433,87,38,65,84,91
45,230,470,100,39,38,62,91
45,225,489,102,39,34,64,92
44,221,452,93,40,34,72,78
46,211,448,111,44,37,109,141
48,202,508,131,51,36,114,147
52,193,515,126,47,37,126,151
54,188,498,126,48,35,124,158
54,191,496,123,45,35,124,183
49,180,485,104,39,33,94,136
54,171,391,85,39,36,93,137
49,153,374,82,42,33,74,133
45,145,352,84,42,34,73,124
45,134,334,89,45,32,66,91
50,155,335,94,47,27,58,93
49,188,432,98,43,26,46,84
52,210,419,96,40,26,46,82
53,208,472,98,40,27,46,84
53,215,483,102,41,27,51,78
50,207,531,107,42,29,66,66
44,168,451,94,39,27,69,82
44,151,469,97,39,27,67,80
47,156,431,92,39,28,68,80
46,163,477,85,36,31,63,78
45,159,441,78,34,32,67,81
49,197,509,90,42,35,83,66
47,194,480,88,43,35,94,65
46,194,455,83,43,38,99,70
47,196,422,92,44,35,104,88
45,195,412,89,42,32,92,82
42,190,389,88,35,31,86,80
49,234,364,88,39,31,81,104
47,242,408,91,39,28,90,104
49,240,412,84,38,31,104,94
49,243,409,84,39,31,104,92
55,233,364,95,48,31,99,92
49,196,398,89,45,33,95,65
51,184,355,87,46,31,85,96
54,185,361,86,46,28,60,98
54,177,341,87,46,27,59,105
48,163,327,61,33,27,65,110
47,159,309,66,33,27,78,114
48,159,320,71,35,26,80,98
48,199,289,67,39,27,81,104
49,212,312,64,40,30,82,99
52,213,329,64,43,34,112,106
53,203,324,67,43,34,112,117
53,232,390,64,42,35,108,121
48,193,399,70,37,34,109,114
48,178,387,70,34,32,113,121
44,183,402,73,36,29,77,113
55,187,408,84,42,27,68,107
53,184,390,82,40,25,65,94
52,193,424,89,41,28,75,92
54,208,463,92,43,29,82,91
52,196,427,87,37,26,84,107
40,207,459,76,33,28,89,102
36,203,537,111,37,30,104,110
36,191,550,115,36,28,101,114
34,181,548,120,38,27,91,139
34,188,565,121,39,27,88,124
36,177,538,119,37,27,82,121
37,141,418,90,34,27,71,128
43,171,360,82,34,27,70,144
41,167,322,71,31,27,69,115
42,162,287,69,32,27,70,114
63,259,397,77,40,29,65,113
67,279,519,100,44,28,63,95
71,311,566,104,48,29,59,59
71,318,589,110,50,30,79,81
81,357,660,119,52,34,81,100
67,299,610,121,49,39,89,100
66,294,569,110,49,40,84,98
60,249,547,111,49,40,85,104
64,269,559,116,50,44,88,95
55,223,512,118,51,41,88,85
62,301,637,131,56,38,84,88
60,294,584,123,56,39,105,108
63,329,585,133,60,48,118,109
62,328,572,129,59,47,106,113
60,335,578,125,61,53,117,129
52,269,422,104,56,50,122,144
64,283,483,129,65,58,119,139
65,244,488,112,58,53,106,139
61,213,469,113,57,52,118,147
69,230,497,116,53,51,111,131
70,277,587,133,57,53,112,114
60,302,616,113,47,56,107,131
56,307,602,110,47,54,107,132
59,329,615,109,49,57,99,117
53,316,570,98,47,53,96,118
52,289,567,91,45,52,101,139
54,275,537,91,48,37,92,119
56,283,584,101,52,38,96,112
54,265,633,108,51,31,92,112
52,256,638,122,55,37,95,113
50,245,572,109,52,39,79,93
47,229,536,105,46,41,89,94
52,219,488,96,42,40,81,93
60,229,482,104,50,41,86,92
65,238,475,91,46,39,76,121
68,225,472,92,45,40,90,119
67,215,471,96,45,40,80,113
67,221,462,96,48,46,83,116
62,227,407,80,42,46,83,121
55,215,392,79,43,45,88,95
54,224,379,78,44,42,83,104
54,214,361,71,43,39,84,106
48,197,334,86,47,33,84,121
58,209,320,99,52,34,90,113
62,217,339,99,51,32,91,113
60,205,322,98,50,32,97,113
59,200,335,97,50,42,99,144
60,195,338,86,46,45,102,129
48,160,323,61,33,44,92,132
43,137,311,66,36,44,89,128
46,132,385,74,40,44,72,114
49,150,416,80,43,33,80,120
51,169,452,79,43,30,85,122
57,169,432,81,44,28,83,137
62,209,466,80,44,31,84,142
64,227,429,70,41,29,88,150
61,219,399,65,38,35,95,119
59,202,353,68,36,33,85,114
53,209,393,70,35,33,92,91
44,181,413,75,34,29,91,78
37,156,383,76,34,33,115,119
38,169,424,80,36,28,102,114
37,172,421,83,36,28,101,112
38,175,418,93,41,31,96,117
41,179,342,85,42,34,105,142
42,180,345,84,40,30,79,100
42,177,279,80,38,31,75,102
39,186,281,71,36,30,73,103
51,190,253,55,33,29,78,105
53,216,324,54,29,25,91,110
54,239,347,61,29,26,89,118
54,229,360,61,30,25,95,134
55,221,372,61,30,26,100,144
43,202,379,59,28,26,93,150
41,179,356,66,34,28,76,140
45,198,438,76,39,28,81,142
50,229,427,76,41,29,84,127
50,226,404,72,42,29,80,138
53,244,415,93,50,27,80,128
57,246,399,94,48,25,66,110
51,223,314,93,48,26,64,102
48,197,299,97,48,26,67,137
55,223,357,106,48,25,75,136
52,205,331,88,39,25,78,140
47,209,439,85,38,26,86,141
54,225,434,72,36,26,86,141
52,232,458,69,36,25,87,127
45,208,419,56,35,25,85,112
45,203,421,58,37,26,94,110
44,184,347,59,38,27,88,114
39,149,340,58,38,26,92,128
40,127,315,59,37,25,80,105
45,130,353,60,35,25,76,118
49,128,341,61,36,27,68,114
52,146,341,64,35,28,68,113
49,150,340,62,32,28,63,94
45,158,337,58,29,29,63,118
40,159,322,60,32,30,67,99
36,157,351,62,30,27,65,102
36,127,311,65,33,25,74,104
43,123,334,66,34,26,70,124
45,124,398,82,38,25,71,102
44,118,376,81,37,24,64,104
43,136,395,95,44,25,69,102
41,134,384,91,41,25,79,111
37,141,359,96,44,22,80,103
39,168,287,83,41,22,79,100
46,218,350,83,41,23,80,98
45,230,345,67,32,23,87,101
47,241,348,75,37,22,75,99
48,234,338,67,33,23,70,84
44,217,339,65,33,24,70,81
40,175,327,63,34,27,75,120
47,176,302,59,34,28,60,122
46,194,348,50,32,28,66,114
45,219,380,51,34,28,68,116
52,214,415,64,36,29,96,158
55,216,422,95,47,26,95,150
56,231,418,98,50,26,101,153
56,211,396,98,51,26,93,160
55,199,364,99,50,27,95,159
52,209,335,96,52,29,91,142
50,227,315,69,42,30,90,133
42,197,337,65,37,30,99,146
46,200,338,65,35,30,102,162
46,205,358,63,35,32,105,165
48,198,341,56,31,28,92,148
47,222,399,57,35,28,93,161
50,221,384,58,37,27,93,148
49,236,414,59,36,28,95,121
52,231,404,67,38,29,91,126
52,259,433,72,42,33,89,143
50,223,369,67,36,33,88,116
50,223,381,77,39,37,86,122
45,214,355,73,38,36,93,128
50,203,341,67,40,37,102,136
52,176,317,63,37,32,97,122
54,167,335,67,36,33,95,125
52,158,311,60,34,30,100,117
55,151,295,61,35,29,92,122
45,148,317,68,33,26,81,102
39,148,321,67,31,27,81,106
37,159,369,73,33,26,83,99
42,164,375,69,33,23,65,93
44,189,365,72,36,26,80,107
47,188,351,78,37,25,79,124
46,175,353,78,37,25,80,121
48,172,265,72,35,25,96,127
48,189,298,75,38,25,93,135
45,155,292,71,36,24,77,124
45,175,304,56,34,24,76,108
49,190,296,64,38,26,78,115
49,193,322,61,38,27,91,115
49,181,301,67,37,27,90,115
49,204,327,68,38,27,92,111
50,194,364,72,40,27,94,111
44,175,385,71,38,26,100,101
44,183,430,74,38,25,75,94
40,182,439,64,36,26,80,99
49,175,519,80,35,25,74,88
48,171,505,77,32,26,73,82
55,174,492,81,37,29,75,105
56,160,464,82,39,27,67,115
56,152,439,83,39,25,58,104
52,177,391,83,40,26,58,101
54,177,377,87,42,26,60,106
49,181,393,80,36,24,45,87
48,172,353,85,37,26,51,110
51,172,349,89,37,28,50,109
46,164,302,78,34,28,55,108
49,169,343,76,33,28,54,107
49,165,350,77,35,26,53,99
48,172,383,70,33,26,69,103
45,179,379,68,32,24,75,106
44,146,362,70,33,24,72,114
38,144,340,65,32,22,75,114
37,156,316,66,33,22,80,116
34,157,278,64,34,25,98,112
38,166,302,59,38,28,108,117
40,173,348,64,37,28,109,117
43,169,318,63,36,29,107,118
46,179,325,71,39,31,122,147
46,173,316,71,37,26,97,123
43,155,298,73,39,25,87,117
41,154,243,63,37,25,85,114
37,147,278,66,37,24,86,115
39,133,306,71,39,24,59,91
40,138,313,72,42,27,68,103
39,135,335,77,38,28,69,111
41,123,318,78,37,27,71,109
43,135,299,80,40,30,73,107
47,130,256,80,41,28,76,108
47,120,249,81,40,26,75,119
52,152,236,75,38,25,71,118
52,155,286,78,37,25,75,118
50,162,284,74,38,25,74,115
47,173,282,53,29,25,94,123
46,181,300,49,29,25,90,109
45,166,300,48,31,24,96,103
49,189,279,52,33,24,92,111
50,187,287,52,31,26,117,136
52,190,321,58,32,27,102,122
52,188,303,58,32,25,106,126
57,228,321,70,35,26,101,126
53,215,319,68,38,27,102,121
52,215,338,77,38,26,80,101
50,211,345,74,38,23,77,103
52,235,402,93,43,26,85,125
53,234,533,101,45,24,83,122
56,243,589,114,47,28,93,121
58,233,569,108,47,28,89,117
59,237,560,116,51,30,101,114
57,215,525,103,45,29,89,87
54,200,434,99,46,32,96,100
57,235,459,93,43,29,85,99
57,244,477,100,47,28,92,111
53,241,472,94,43,28,82,111
55,250,474,96,44,29,87,109
52,243,506,92,41,26,81,99
50,208,456,97,47,26,87,115
48,208,456,89,41,28,90,115
48,196,452,85,40,25,89,112
48,212,499,84,39,24,82,107
47,198,410,85,40,25,80,105
42,180,374,66,30,26,82,101
47,163,352,69,30,26,65,91
63,227,435,88,39,30,96,101
65,211,429,100,43,29,98,102
64,220,576,107,41,30,99,107
64,230,625,128,49,31,95,122
67,238,627,131,51,30,99,133
53,186,575,119,47,26,69,127
54,176,534,110,46,27,66,124
57,165,410,104,49,24,65,133
58,161,312,79,42,24,59,110
51,166,351,80,44,24,53,89
51,160,334,81,42,24,53,88
47,157,338,77,38,23,57,102
49,154,292,66,34,23,58,95
51,189,322,71,35,24,59,102
49,190,327,64,30,23,60,104
49,189,337,74,34,26,60,98
50,182,335,72,32,27,72,117
46,188,351,74,34,30,74,118
46,173,337,82,39,31,76,114
47,166,296,80,38,30,79,112
48,160,280,75,36,29,77,122
46,176,316,79,36,28,66,96
44,176,327,76,35,24,64,92
44,160,334,75,28,20,67,88
43,150,326,75,28,19,63,87
42,168,323,74,30,21,77,77
46,148,292,73,32,24,76,115
51,130,323,80,35,25,77,116
52,128,313,70,35,26,73,117
54,148,334,74,37,27,73,120
52,127,348,88,39,26,56,114
51,134,342,87,37,24,80,92
47,134,267,79,34,27,90,112
48,157,250,85,37,27,102,126
47,146,211,83,38,28,106,132
48,156,221,71,35,29,107,132
46,161,259,71,39,30,98,129
50,181,304,74,40,30,111,115
44,155,311,59,36,29,114,109
43,169,345,58,33,27,111,97
42,185,362,53,33,30,119,122
43,195,378,64,30,28,112,112
38,186,361,65,29,25,92,106
39,189,365,68,30,26,76,104
40,185,362,70,32,27,77,118
42,183,400,73,32,23,69,99
50,208,377,68,35,25,70,96
51,211,431,79,37,26,63,93
52,221,472,82,40,27,73,87
53,211,466,82,38,26,79,94
51,196,432,80,37,26,79,99
50,168,439,77,37,25,79,104
54,169,380,63,35,25,78,108
52,145,305,58,32,22,67,104
51,148,315,62,32,25,61,83
52,169,318,60,36,27,67,114
51,159,291,57,33,28,67,121
46,160,314,57,34,27,67,116
47,168,326,56,34,30,82,122
45,164,314,46,35,28,77,122
46,155,285,57,36,25,67,104
40,157,295,57,34,27,67,91
38,141,258,58,34,29,87,100
42,137,257,57,33,27,79,97
43,133,253,59,32,28,85,128
44,117,271,51,30,29,90,123
47,112,282,65,34,27,88,125
48,122,337,72,34,23,68,123
48,137,364,76,35,25,68,123
48,142,363,75,37,24,61,112
46,135,341,72,35,25,62,104
40,126,339,62,32,23,58,100
39,114,304,55,31,24,58,95
33,89,251,51,28,21,51,90
33,88,257,62,30,25,66,86
32,147,256,61,30,22,71,77
33,143,229,60,29,25,72,82
35,177,262,65,31,27,73,82
41,211,297,63,36,29,71,81
43,215,299,61,34,26,54,53
44,191,319,65,34,27,53,56
47,220,367,66,36,26,56,44
49,201,329,58,34,24,67,57
45,173,324,59,29,21,69,71
46,177,324,61,34,23,70,74
48,182,322,59,35,23,67,70
46,152,305,62,35,23,66,69
46,154,360,64,34,23,58,79
46,156,380,72,36,25,71,80
44,150,420,78,36,26,100,85
40,138,420,76,34,25,95,86
42,149,442,85,38,26,96,119
39,147,411,88,37,26,93,108
38,136,382,86,39,26,87,102
36,141,367,83,37,23,64,106
39,138,361,84,39,24,76,115
42,126,355,91,40,23,101,133
42,119,357,86,40,23,105,133
43,127,356,94,41,22,101,132
45,136,359,88,40,23,99,129
49,149,404,98,41,21,99,141
47,152,357,83,40,22,79,100
48,161,347,88,44,21,80,100
49,163,358,75,40,20,92,104
47,156,348,78,41,19,94,106
40,152,319,67,38,20,85,85
37,161,353,71,36,23,88,102
38,152,339,64,33,24,82,101
37,151,340,69,32,24,75,113
40,151,333,76,36,26,76,107
45,142,293,75,35,26,79,123
46,118,259,76,36,26,69,108
47,113,300,84,38,24,70,108
49,107,333,98,46,25,68,93
50,94,305,91,43,26,70,121
46,91,316,91,43,26,64,108
50,137,339,94,45,25,67,105
48,147,338,92,46,25,68,115
45,148,299,74,40,25,62,113
41,159,307,72,38,23,63,94
46,186,338,76,40,26,61,97
43,165,343,70,36,26,69,116
42,165,335,65,33,28,74,117
42,167,344,64,33,27,75,118
47,165,374,68,34,28,78,130
45,144,366,64,37,28,85,129
45,144,362,60,34,26,80,122
46,135,358,65,39,26,84,118
47,126,347,64,38,26,90,128
42,114,326,70,38,26,84,108
43,159,359,77,37,26,79,99
45,153,330,76,36,27,78,92
45,166,389,81,32,27,77,102
45,183,393,80,31,26,72,91
46,182,378,71,30,26,73,92
44,135,349,63,28,26,72,90
40,137,361,65,32,26,77,84
39,122,292,53,32,26,70,61
39,106,289,57,33,26,73,99
38,117,326,56,33,26,75,96
42,132,297,51,32,24,75,122
41,135,281,46,30,24,69,125
48,174,282,44,30,23,72,140
51,180,295,40,32,26,81,122
51,178,272,37,31,25,75,124
46,174,280,43,31,24,74,109
47,194,310,51,32,24,73,117
43,176,303,57,34,26,79,120
38,168,288,57,31,24,78,120
41,162,261,59,33,24,77,114
43,159,286,62,35,26,83,121
41,135,266,54,32,26,82,117
42,117,265,52,28,24,76,102
40,113,266,54,30,23,65,107
35,110,266,60,32,23,75,145
34,104,231,53,31,23,88,139
34,93,260,65,35,22,86,139
30,101,257,62,36,24,88,137
31,100,239,61,35,24,90,128
32,108,242,60,32,24,82,87
29,122,248,64,33,29,88,101
30,131,231,54,30,27,89,116
36,134,250,61,32,25,90,119
39,133,269,62,32,28,102,126
41,130,277,60,35,28,102,124
44,125,270,59,34,22,84,128
46,124,260,58,32,24,89,118
44,134,277,56,31,24,88,117
43,142,263,53,30,21,69,125
43,160,300,57,30,22,73,127
45,188,328,57,28,25,86,109
46,201,377,70,33,25,84,131
46,192,368,68,31,29,90,146
46,199,359,68,33,36,105,136
48,191,333,73,33,38,111,179
47,172,357,74,34,36,98,183
45,165,369,76,33,38,129,193
42,174,370,73,34,36,124,184
43,170,413,84,36,32,113,184
38,168,408,76,35,29,102,142
40,154,424,102,45,35,134,178
45,143,377,91,42,32,104,152
46,127,423,95,42,32,102,150
49,176,460,93,44,29,113,178
53,180,492,99,46,32,124,182
50,184,445,73,38,32,86,143
47,183,437,80,40,42,94,154
48,184,423,81,40,42,96,154
43,150,387,79,37,44,92,125
42,142,350,77,37,42,79,119
42,138,352,78,36,40,84,125
42,140,348,75,36,30,78,102
41,196,351,76,37,30,78,100
44,201,308,70,33,29,79,116
43,237,359,62,29,29,83,120
43,256,358,61,31,27,90,112
43,273,364,54,30,26,85,113
44,245,306,55,34,27,90,128
41,245,352,61,37,26,78,112
45,225,380,67,41,27,73,106
45,210,382,70,41,25,60,106
49,190,408,73,40,25,75,119
48,182,427,71,36,25,78,98
48,155,392,66,33,24,77,93
46,138,317,59,31,23,79,94
46,132,317,58,30,23,90,100
42,161,286,61,28,28,98,98
43,156,263,53,28,29,91,103
42,154,262,63,30,29,94,98
36,166,301,62,27,30,94,96
32,181,334,57,29,30,83,86
35,163,329,54,30,28,105,105
36,183,328,55,31,26,104,115
39,191,342,52,30,26,112,135
44,204,303,53,30,26,112,135
47,195,312,59,33,28,116,150
45,183,308,58,30,26,80,124
44,162,315,62,30,27,78,116
42,161,373,78,34,29,70,93
42,131,371,81,35,28,74,103
40,133,346,78,33,26,67,107
40,131,381,82,34,25,65,111
40,134,369,76,33,25,61,103
42,132,299,52,28,24,58,102
40,121,317,54,28,24,48,91
40,141,325,54,27,23,46,57
38,142,281,49,26,23,57,49
37,144,293,54,27,24,65,51
34,151,316,61,30,25,62,49
38,175,299,62,33,25,63,49
36,155,279,65,32,24,63,46
40,176,286,63,33,22,47,39
38,177,280,63,32,20,33,33
39,192,283,61,34,20,51,59
38,190,348,65,32,22,61,66
40,189,331,60,31,24,61,68
40,206,342,61,32,25,77,92
49,250,336,66,37,26,87,108
60,248,300,70,36,28,85,99
63,243,251,65,39,29,84,99
62,245,275,68,39,30,88,123
64,229,299,71,39,30,78,120
61,180,300,62,34,29,76,111
60,166,332,64,32,31,109,202
60,178,298,61,28,29,109,207
73,196,318,70,33,29,107,201
70,181,337,74,35,29,106,201
71,181,346,79,36,31,124,203
72,178,314,77,37,25,91,120
69,164,340,79,37,25,90,111
54,139,310,67,33,23,96,120
56,151,273,67,31,23,98,113
55,153,268,63,31,19,69,108
42,148,269,60,30,20,66,99
41,135,252,57,28,20,67,98
44,139,260,60,29,22,61,70
40,118,216,46,26,20,59,97
38,111,255,44,25,23,73,109
46,130,319,43,25,23,76,116
52,138,308,40,25,22,72,115
70,135,329,40,25,21,70,114
79,138,341,52,28,22,66,86
80,141,319,52,29,20,46,65
81,155,256,55,32,22,38,47
84,184,285,60,34,24,47,45
76,179,262,63,34,25,64,56
70,178,283,61,32,27,81,61
72,180,312,71,33,28,85,71
68,159,336,75,31,27,89,83
63,129,323,72,29,28,90,87
57,137,328,67,29,37,104,114
59,182,306,66,31,36,94,117
65,186,256,56,30,38,95,113
70,187,249,47,28,40,95,106
75,223,241,48,32,41,96,101
75,225,257,54,32,32,68,61
74,193,250,52,31,29,65,47
68,197,352,88,40,26,58,81
66,194,329,88,39,24,61,86
67,173,325,92,38,24,61,98
74,177,301,92,39,24,68,113
79,195,327,91,38,26,75,126
86,211,302,64,31,26,81,109
86,220,342,67,32,28,90,107
82,217,406,68,30,25,93,132
74,206,407,63,30,25,91,122
67,187,400,61,28,29,99,116
54,154,352,52,27,29,98,121
51,134,320,49,25,27,87,120
53,111,301,44,27,30,78,87
54,113,299,45,26,32,78,121
53,110,317,63,34,32,68,124
57,173,516,92,37,34,68,119
62,189,567,93,38,34,82,125
55,183,544,92,37,31,81,133
57,202,583,96,39,30,80,100
58,201,570,87,33,26,76,91
55,164,450,66,29,24,81,88
58,178,401,66,28,24,64,74
70,212,399,75,30,25,76,96
72,195,333,72,30,23,84,98
71,197,326,71,31,24,86,101
74,186,245,65,29,25,75,99
70,172,253,72,32,25,74,115
72,138,236,66,31,25,62,99
73,145,247,67,31,27,69,112
74,153,269,68,32,27,68,110
71,148,268,72,33,27,68,111
69,134,284,73,31,26,66,99
61,133,368,82,30,25,64,80
57,148,463,111,39,26,51,52
53,176,553,128,44,26,59,53
55,191,603,136,49,25,78,82
53,212,661,138,54,24,81,101
57,227,641,133,55,24,89,105
56,217,641,118,51,23,82,107
57,210,597,107,48,23,87,124
55,219,608,98,43,23,71,107
56,198,535,87,37,24,68,85
46,199,580,96,38,27,71,96
44,200,528,94,38,28,73,95
45,178,490,86,35,29,65,81
50,161,439,85,41,33,104,99
45,161,426,85,40,33,109,120
47,148,319,81,42,32,104,111
47,142,280,71,38,30,108,115
44,146,311,78,40,31,109,108
43,145,282,73,34,26,83,99
43,148,327,76,37,25,89,96
40,131,339,64,31,23,94,114
43,139,361,61,32,23,87,114
44,149,354,53,29,20,82,114
44,140,337,52,28,21,71,112
60,137,294,51,25,23,65,97
61,145,346,66,28,26,75,104
62,146,338,68,27,25,78,115
65,134,314,65,27,26,85,119
64,148,351,71,30,26,85,117
57,162,461,89,34,28,83,113
59,177,551,113,40,24,70,91
58,204,672,127,45,25,70,94
55,250,833,156,53,27,73,90
56,255,897,177,58,25,75,92
54,259,875,168,56,22,74,134
49,256,845,171,57,25,79,135
47,232,753,162,54,24,79,120
53,207,609,139,48,23,76,133
51,212,520,111,39,26,86,148
47,214,505,115,41,27,87,117
53,209,468,90,34,26,89,112
60,204,457,88,35,26,89,130
56,174,423,91,37,26,96,126
56,155,410,88,37,26,88,111
55,164,449,99,38,28,86,106
55,175,458,106,44,26,76,107
46,176,463,107,45,30,84,88
48,188,487,106,43,29,76,93
69,187,480,107,42,27,75,101
70,154,457,96,40,25,71,102
68,145,423,78,31,26,68,98
72,148,425,76,31,24,73,112
70,158,419,68,30,25,85,94
56,153,414,66,29,25,87,82
54,154,368,61,30,25,86,81
51,140,401,54,28,24,92,84
46,143,398,55,29,23,84,70
47,115,358,51,28,21,76,73
37,111,378,57,30,22,74,70
38,111,367,55,28,22,80,66
37,102,296,53,29,23,80,63
36,86,289,52,29,24,83,50
36,84,282,55,31,28,77,41
40,88,242,57,32,28,81,43
46,86,217,55,34,34,108,97
53,100,264,63,33,36,108,97
57,129,277,67,35,35,102,101
56,130,259,63,32,32,99,105
54,136,296,65,30,33,103,110
54,130,310,67,30,28,78,77
53,125,276,64,31,27,77,86
50,121,288,58,29,27,75,82
52,124,292,59,31,29,74,78
52,131,291,48,33,28,63,69
58,163,322,54,35,28,51,55
68,205,329,51,38,31,45,40
73,205,296,51,38,30,47,39
76,207,308,54,38,29,41,38
79,226,279,52,37,32,74,44
73,211,223,43,35,31,80,43
64,178,240,50,29,30,93,45
65,177,248,47,28,30,104,66
64,179,221,42,25,31,128,75
63,160,205,43,25,28,115,74
61,168,242,49,26,28,112,88
57,159,229,40,28,26,113,102
49,164,347,47,29,28,110,99
45,162,352,46,30,28,85,95
48,188,401,49,29,27,84,94
50,184,413,45,26,26,83,84
47,185,402,46,27,28,70,68
49,169,307,44,27,28,94,101
55,175,381,50,27,27,91,101
66,172,337,52,28,29,100,109
65,168,299,50,29,28,99,115
65,164,301,52,29,27,97,115
69,183,312,55,31,25,68,75
69,209,238,50,31,24,65,73
62,187,245,54,34,22,49,61
64,180,235,56,35,25,63,52
66,186,219,54,34,29,85,67
60,174,202,51,30,29,84,72
62,146,171,50,31,31,92,94
56,131,155,41,30,33,105,106
52,131,159,47,28,32,101,106
50,139,159,45,28,28,85,131
54,145,212,44,32,30,91,136
46,144,240,47,30,32,87,124
44,161,239,46,29,40,105,121
53,176,244,42,32,58,155,164
56,174,251,44,33,92,177,144
54,162,222,42,30,104,193,160
56,172,236,48,34,106,195,160
60,171,243,50,35,105,192,180
54,163,307,57,33,104,167,151
51,161,313,59,35,82,149,165
51,178,315,59,35,64,125,151
56,174,292,62,37,62,131,158
53,165,286,60,35,57,118,150
54,158,219,54,34,46,97,144
56,153,207,51,32,37,87,122
55,141,248,55,31,43,117,118
53,130,262,49,27,39,116,117
51,119,264,49,27,47,114,106
51,131,282,49,33,50,130,111
50,195,308,50,39,51,134,113
51,219,290,48,41,46,108,109
47,219,273,48,42,47,100,100
47,221,266,46,42,40,96,83
44,217,253,51,37,31,71,70
51,208,310,50,32,29,78,70
49,204,299,51,33,29,78,65
51,281,304,50,31,27,70,62
50,302,326,59,32,32,71,57
50,316,371,56,34,31,68,51
41,295,311,56,34,34,60,42
39,289,298,57,31,33,55,37
35,206,286,56,31,34,55,36
32,170,254,47,31,28,53,29
30,136,153,41,30,29,52,28
32,124,117,43,36,24,37,27
43,124,101,57,61,28,38,28
45,171,116,133,114,32,34,25
50,177,129,239,212,54,45,27
55,181,137,266,231,60,43,28
59,177,209,271,248,61,42,34
58,192,255,406,409,99,53,46
64,170,304,432,425,114,57,49
69,186,362,399,405,108,52,49
68,193,374,397,422,107,52,48
64,200,348,424,428,109,52,46
62,224,363,297,286,79,39,35
63,285,425,233,246,55,40,29
68,344,430,227,244,60,59,36
68,346,448,218,195,95,62,38
76,353,497,166,169,116,78,42
87,358,498,175,154,123,82,42
87,347,490,170,151,144,111,99
79,289,478,152,108,144,118,104
81,297,607,172,116,123,127,118
74,292,584,169,102,119,135,137
58,245,567,161,97,118,149,152
64,193,511,165,99,100,147,126
90,220,498,155,93,132,175,128
90,242,329,109,83,167,171,152
90,260,298,93,89,163,160,137
94,265,293,79,89,171,154,126
92,260,370,96,87,177,139,141
71,251,367,98,79,162,96,139
79,229,353,99,80,133,109,103
83,230,390,118,75,136,111,101
84,239,403,127,98,123,98,95
77,237,374,140,114,110,95,64
84,210,390,148,121,109,81,54
76,202,387,148,124,130,94,50
75,202,350,144,131,123,97,43
70,195,339,135,113,121,113,47
67,208,281,115,98,127,115,48
52,208,278,115,92,123,117,48
51,199,270,131,89,95,88,44
48,170,290,135,81,91,82,43
54,161,324,138,86,95,63,39
54,149,326,132,94,86,73,42
52,141,316,128,90,85,71,41
49,138,329,123,86,96,71,41
50,120,320,111,90,102,72,43
39,113,301,114,85,94,81,48
46,112,296,114,76,97,77,44
44,115,274,109,76,91,78,45
49,158,296,93,73,76,76,45
50,191,315,96,69,63,77,45
49,194,307,88,69,63,62,38
45,207,317,103,75,59,71,38
45,208,429,114,77,64,80,42
40,174,449,142,108,60,82,39
35,140,440,144,106,58,83,40
34,178,432,154,106,57,83,39
36,192,490,148,98,64,68,40
38,188,397,139,94,57,53,34
38,194,356,109,56,60,49,35
41,202,364,114,71,62,61,32
47,174,355,101,75,76,60,36
45,137,311,107,76,75,83,36
48,157,371,110,74,77,85,37
51,165,383,112,78,75,86,37
51,183,393,104,66,84,74,37
46,176,393,98,58,82,89,37
43,168,384,97,64,88,70,38
48,156,364,106,78,85,70,40
45,164,443,129,78,89,71,39
46,133,458,126,74,83,73,40
46,129,461,132,74,81,75,40
45,128,439,126,69,72,95,44
37,132,442,119,64,78,95,44
39,106,385,103,76,82,96,47
39,119,394,103,76,79,95,46
37,119,396,100,75,75,84,43
37,115,404,101,72,70,58,36
49,127,413,110,66,66,68,38
48,126,394,95,46,57,74,38
46,110,363,96,49,62,74,39
47,111,351,93,49,85,83,38
48,120,364,92,50,113,124,44
38,101,313,81,46,117,126,40
40,100,291,80,45,119,123,36
40,110,322,80,47,120,127,35
39,118,362,85,62,113,121,37
38,112,369,84,68,93,78,30
36,116,376,81,70,87,63,29
32,120,381,85,70,86,80,30
34,108,327,83,80,82,76,30
33,98,303,87,71,72,73,29
37,108,299,123,71,60,69,29
39,96,308,132,73,58,70,29
42,99,319,136,74,64,49,29
41,103,315,132,60,61,71,35
41,109,324,129,57,55,69,35
40,97,314,107,50,57,71,38
40,109,320,102,59,57,89,38
40,100,302,106,73,50,89,39
41,102,317,110,76,46,72,34
40,102,312,113,78,47,86,41
38,110,317,104,78,55,86,40
33,96,285,99,65,61,73,40
34,99,281,86,47,58,71,39
32,98,269,85,60,61,69,40
35,100,282,89,63,60,52,34
38,92,249,87,64,54,53,32
39,94,234,84,68,60,43,31
35,90,223,84,70,62,65,35
45,102,253,84,58,64,69,36
47,94,305,86,53,67,69,36
51,95,304,86,50,69,73,36
54,93,322,79,44,62,77,43
53,93,324,77,42,63,64,41
49,90,327,76,37,67,67,43
46,105,277,60,33,66,87,47
40,103,334,66,36,60,81,46
38,113,384,82,37,57,79,43
37,116,394,85,39,58,79,40
32,129,454,93,47,57,78,37
35,127,436,100,50,66,55,30
34,127,402,94,53,72,77,37
36,125,374,96,65,72,75,36
38,128,400,96,62,69,70,36
39,113,307,94,57,61,66,34
37,100,334,91,55,49,66,36
38,104,340,93,51,40,36,28
33,126,443,108,48,49,39,26
32,140,439,110,51,50,41,26
33,136,461,106,55,51,39,26
34,135,433,105,56,49,36,24
36,136,431,107,56,50,64,28
39,122,342,94,92,38,63,30
39,97,309,92,95,34,64,31
38,100,355,99,93,42,66,33
37,101,354,98,93,44,66,32
34,102,362,98,95,50,42,30
33,88,326,84,62,50,38,30
32,104,366,85,58,54,37,31
33,108,283,71,56,47,59,39
33,112,308,72,55,48,59,38
37,122,302,66,50,42,58,40
36,132,321,59,34,41,58,40
36,123,335,58,32,43,59,38
33,117,335,67,40,44,38,29
37,114,320,68,44,41,37,29
33,99,330,72,44,40,59,38
36,85,305,72,45,44,69,41
36,96,262,77,44,36,70,41
39,99,276,77,42,37,71,42
32,106,274,73,43,36,70,45
31,103,262,80,46,38,55,35
28,105,273,80,45,34,42,29
33,98,303,83,43,39,67,43
36,91,309,77,39,37,68,43
40,84,323,85,42,39,72,43
40,97,391,90,46,37,69,45
44,96,382,90,47,37,71,47
42,109,363,93,49,35,50,36
38,121,361,94,48,33,44,33
35,117,351,85,41,35,67,31
35,112,307,88,52,37,67,30
34,119,341,93,57,37,69,31
32,100,315,82,55,35,64,27
31,87,306,82,56,36,64,27
31,95,295,82,63,39,43,28
32,97,277,76,60,38,43,27
34,88,242,76,55,36,38,28
34,96,238,75,56,36,40,29
35,112,248,74,56,40,81,40
35,106,256,87,54,38,79,39
34,96,212,82,52,43,83,40
29,103,293,91,54,43,84,38
28,103,291,98,54,45,84,38
28,92,296,101,56,42,47,28
31,120,381,104,55,39,43,28
30,126,391,115,50,32,55,29
32,119,346,109,47,36,61,33
31,119,390,106,48,34,63,35
29,118,459,107,56,47,66,35
25,88,440,118,51,48,65,33
26,108,441,104,50,53,52,33
25,110,423,96,49,53,63,34
23,109,426,102,68,59,62,33
26,112,337,100,62,62,59,33
28,120,302,99,70,70,61,34
28,104,332,102,72,70,61,35
30,105,348,105,75,80,41,30
31,108,314,98,67,93,38,30
31,104,315,96,65,88,37,29
29,113,332,80,64,83,34,29
34,128,339,87,68,81,27,24
33,125,348,90,64,75,27,27
33,115,333,93,59,59,59,33
33,129,386,98,59,53,59,33
35,118,369,93,52,51,61,34
35,168,413,86,50,49,63,36
36,176,396,85,58,42,63,34
36,181,407,80,55,29,36,29
35,170,355,76,55,28,34,29
36,171,343,72,54,26,30,26
31,111,245,71,51,23,25,22
29,97,250,71,47,23,26,23
30,91,227,71,44,22,21,21
29,87,230,87,48,23,21,22
27,81,226,82,55,27,62,28
28,70,221,80,56,33,66,30
29,88,223,78,53,31,67,30
27,88,243,100,72,37,67,34
27,86,230,85,71,40,70,39
29,97,229,87,69,41,42,36
31,117,258,94,64,36,32,35
32,122,276,99,68,37,30,37
32,133,319,84,55,33,29,33
33,135,324,85,56,32,24,26
31,130,337,90,54,37,21,24
27,115,314,81,54,38,21,26
24,107,310,75,50,38,19,23
25,94,283,69,45,37,19,25
24,93,346,74,41,34,19,28
23,86,326,78,43,26,19,28
29,83,322,76,49,33,60,27
30,68,314,81,59,34,62,27
30,78,312,85,65,34,63,26
30,76,252,87,66,34,64,25
32,89,253,75,62,33,66,24
29,83,257,82,75,27,34,25
27,86,262,75,78,29,32,26
27,77,252,81,84,32,31,26
27,94,246,80,83,33,27,24
28,91,273,95,88,53,25,27
26,100,288,94,90,58,25,25
28,113,352,103,80,60,26,25
28,115,352,95,70,64,28,30
28,109,402,99,69,65,63,38
26,105,383,87,63,54,77,78
28,106,450,96,58,52,81,82
30,98,397,88,60,57,82,85
32,122,380,91,63,57,84,84
34,127,381,87,65,55,63,82
32,123,381,85,64,54,48,48
30,116,278,68,46,50,64,45
28,112,327,62,40,40,65,41
25,85,341,75,47,33,63,38
24,72,309,79,55,46,63,36
26,74,306,80,58,45,63,35
27,75,333,81,57,45,38,28
28,74,346,85,57,47,34,29
30,92,350,77,50,47,32,31
33,92,360,71,38,34,57,41
32,92,377,80,46,41,58,44
32,95,374,86,58,42,59,43
29,107,336,86,61,41,59,43
29,95,318,80,57,40,61,44
25,92,288,84,59,42,35,35
26,94,285,77,57,46,31,29
27,88,269,76,56,44,28,30
28,82,317,91,55,45,63,36
29,78,315,89,56,44,64,35
31,94,324,84,54,41,64,34
32,100,312,82,57,30,65,35
32,102,316,88,58,34,67,34
36,120,261,78,59,34,36,32
36,126,279,93,61,34,31,32
36,115,254,96,65,38,63,41
36,119,322,107,59,38,63,41
38,130,324,110,52,37,88,44
35,110,335,118,55,41,92,46
32,100,376,114,63,43,93,45
35,104,413,125,63,40,76,39
34,96,360,118,62,40,76,38
32,92,401,114,59,44,45,33
30,87,384,118,68,39,65,33
32,100,356,116,63,39,65,34
26,95,324,98,62,43,65,35
27,92,327,98,60,42,65,35
25,84,332,103,66,45,65,36
26,110,363,101,93,59,39,30
24,102,364,126,109,65,38,31
26,107,378,142,113,65,64,39
30,107,382,140,120,67,68,41
30,111,329,134,122,62,68,42
31,99,297,130,97,52,66,41
31,103,308,109,79,45,67,41
29,104,295,98,77,47,40,30
27,105,291,113,85,48,39,32
30,103,281,115,89,53,81,48
32,116,290,110,88,51,82,47
35,116,237,109,94,53,84,47
35,109,205,103,92,48,84,47
34,106,205,101,83,53,81,46
34,108,205,95,70,48,39,28
30,85,204,98,67,46,37,30
27,81,218,92,60,45,30,31
28,85,245,90,58,47,34,35
29,88,248,76,50,43,59,33
25,80,241,81,49,42,60,32
26,80,277,74,50,41,62,31
26,85,301,77,43,40,63,30
24,85,316,96,43,36,60,29
26,93,321,94,44,44,39,29
27,93,324,91,55,45,36,31
25,90,290,94,66,47,36,30
30,86,273,105,67,48,62,34
31,90,256,96,66,47,63,32
29,83,253,96,64,34,63,34
28,86,274,95,62,36,64,32
29,80,250,93,53,32,63,32
23,74,250,77,52,29,35,28
21,70,284,76,52,29,32,29
24,67,301,87,60,30,28,24
25,71,309,88,60,27,24,26
27,70,315,82,55,27,21,26
32,88,336,82,54,32,21,25
35,86,299,84,65,35,21,24
33,99,286,82,65,37,20,25
35,95,265,88,61,42,19,21
33,94,259,95,62,42,20,21
29,85,239,95,69,40,21,22
30,95,249,90,61,38,20,21
31,89,252,83,52,36,19,21
31,90,282,83,51,27,19,24
32,89,280,74,51,28,21,26
32,96,280,72,42,30,19,27
29,96,304,78,37,30,20,27
27,91,303,83,42,32,22,26
25,90,279,71,49,33,22,25
23,91,304,83,53,36,63,34
23,85,300,85,55,37,68,35
23,72,265,75,55,36,69,38
23,76,306,74,54,41,71,38
24,91,311,79,49,43,71,37
26,102,337,72,50,42,42,29
26,98,326,71,47,39,35,29
26,109,324,73,49,43,66,33
29,109,291,68,47,37,67,32
29,95,277,63,44,38,73,36
30,90,212,69,48,35,71,36
30,88,219,71,51,35,70,37
30,81,224,73,48,30,40,31
29,83,240,74,48,35,54,32
29,90,255,82,50,41,67,32
27,92,273,79,42,42,69,31
27,90,260,76,45,42,71,27
26,83,251,82,49,40,71,27
25,85,212,86,63,36,59,26
23,81,199,91,73,28,31,22
22,67,155,87,71,25,28,21
22,68,201,99,68,23,23,21
25,84,218,93,67,26,23,24
25,80,205,88,58,25,21,27
27,73,224,80,44,24,23,27
27,78,234,79,45,24,21,29
28,91,231,64,42,32,22,27
25,80,218,102,74,33,23,25
27,87,227,108,74,33,22,21
26,90,223,104,73,40,21,22
25,92,252,113,78,45,22,22
25,80,232,120,87,50,21,23
26,76,248,96,87,55,19,26
25,80,313,117,114,63,21,27
26,107,324,125,117,61,22,27
28,109,305,130,131,63,23,27
27,119,354,129,126,58,23,27
26,117,343,127,110,57,23,26
27,116,301,108,96,50,40,32
25,100,286,125,105,51,60,38
27,97,308,131,93,44,62,38
28,89,246,169,115,43,67,43
27,92,253,178,123,42,70,43
26,83,222,176,116,40,62,40
26,75,228,164,109,36,42,35
22,91,278,160,102,38,39,34
23,87,280,119,90,43,65,35
26,98,325,125,85,44,66,38
26,100,350,129,79,45,68,37
27,109,366,135,83,46,70,37
31,107,326,137,94,46,70,38
29,111,353,140,87,40,40,32
27,102,351,118,84,52,59,35
27,99,332,110,83,52,69,41
27,94,306,112,90,52,68,41
24,92,310,102,84,53,68,40
25,97,298,104,83,53,68,40
25,96,256,111,94,36,49,35
30,116,290,140,101,37,35,28
33,137,318,148,122,41,34,28
33,136,318,163,130,40,60,37
32,131,306,161,141,45,62,37
32,137,326,164,141,45,63,37
31,125,301,150,141,48,61,37
29,104,265,132,117,45,62,35
28,97,244,121,129,46,37,27
31,99,252,119,118,43,32,24
32,93,228,112,112,42,74,31
30,90,235,101,108,36,75,31
27,79,233,100,116,39,76,31
30,81,310,103,87,37,76,31
28,82,310,120,90,39,77,33
28,85,379,137,102,37,39,25
27,87,376,154,105,40,35,27
26,94,383,156,101,34,31,30
24,89,326,147,103,34,29,29
23,83,318,132,97,33,25,28
26,86,272,121,84,33,21,27
27,83,277,115,85,36,20,28
28,79,270,120,84,36,20,26
26,76,263,123,82,37,21,25
27,89,315,161,91,37,21,27
24,88,284,166,93,37,20,26
27,90,307,157,85,32,20,26
28,86,392,160,76,40,23,25
30,88,388,157,83,43,58,34
30,79,365,122,84,42,59,33
32,105,384,106,78,42,60,35
30,106,364,119,84,42,62,34
29,116,313,113,95,54,62,35
27,120,373,114,92,51,33,29
27,122,358,104,83,51,31,29
26,106,369,104,79,52,31,29
27,117,401,89,75,51,26,28
29,119,396,87,63,31,23,27
30,114,354,84,67,37,60,33
30,109,343,94,93,51,61,34
28,94,310,110,98,51,64,36
27,86,264,105,98,54,65,35
28,81,216,110,99,54,66,36
27,84,238,108,88,49,37,30
26,91,265,106,60,40,63,40
26,112,377,110,62,40,61,39
24,106,381,112,65,36,64,42
23,101,397,102,72,37,64,42
23,104,382,108,74,46,65,42
23,108,384,107,75,47,62,36
23,89,266,94,69,45,63,34
27,103,301,106,65,51,65,35
26,107,285,106,60,54,67,34
27,102,326,114,73,49,85,40
29,110,372,121,70,47,72,39
30,115,411,110,67,49,70,50
31,113,436,99,66,43,68,49
33,126,450,97,60,43,73,50
37,139,434,82,46,52,77,50
40,148,418,72,56,73,83,82
40,154,434,84,73,80,85,87
39,156,425,94,85,83,98,89
40,142,412,94,89,83,107,91
42,140,402,96,94,77,110,92
38,127,397,105,89,58,107,64
40,128,355,100,82,50,108,51
41,126,376,114,70,44,107,49
40,132,389,119,71,54,95,48
34,122,390,119,68,59,71,43
31,114,388,111,64,60,68,45
29,103,401,122,61,59,65,43
26,103,384,105,68,59,41,39
24,99,391,104,84,52,34,35
25,97,392,104,85,49,63,42
25,97,351,100,86,48,65,43
26,95,341,84,85,47,65,41
24,91,283,76,78,45,64,40
25,92,268,98,65,46,64,42
24,91,317,112,71,45,36,35
26,95,359,111,70,44,30,30
24,100,367,110,68,48,59,38
27,100,414,120,70,51,81,43
28,106,412,106,59,45,84,39
30,107,367,87,44,44,84,41
32,128,379,93,47,42,86,42
35,162,370,92,61,38,79,42
34,161,347,110,85,56,63,39
33,170,451,117,90,57,62,40
32,172,449,116,93,63,85,45
32,157,445,125,101,64,99,57
31,121,459,131,95,70,101,55
32,141,451,109,74,58,98,55
37,153,399,101,72,60,98,55
38,158,424,116,76,54,80,50
37,156,417,113,64,57,60,34
37,155,395,104,61,50,76,35
35,133,393,99,68,49,78,35
34,123,346,91,66,43,76,35
36,133,334,76,65,49,76,39
35,130,336,78,66,46,77,40
35,132,347,99,77,43,59,39
35,136,334,101,74,44,57,38
31,121,364,111,72,48,59,43
27,103,349,114,65,38,68,44
25,109,368,120,97,44,73,47
27,103,346,103,90,53,75,45
26,104,443,116,90,52,77,46
26,106,404,112,92,50,78,42
28,108,406,106,96,53,69,37
29,110,418,98,69,48,62,34
27,116,430,103,68,41,69,40
27,125,322,93,68,39,68,40
27,156,362,90,71,38,66,39
26,171,362,100,69,34,67,38
27,168,304,92,66,39,67,36
28,172,307,93,64,47,38,27
29,162,312,96,64,50,36,24
29,157,281,104,68,50,45,26
28,139,286,100,64,50,59,31
29,150,296,99,60,50,63,32
30,156,264,97,85,41,62,34
30,163,287,90,87,50,63,41
31,133,303,88,80,49,57,41
31,136,311,88,82,50,60,42
30,137,284,85,81,54,61,42
29,122,285,84,53,62,69,41
29,110,269,81,40,53,84,40
29,109,249,70,38,56,85,39
28,98,251,75,50,58,74,36
26,78,262,76,56,54,80,41
26,83,280,77,70,49,81,43
34,102,290,77,74,53,67,45
33,102,279,74,79,57,68,48
34,103,261,61,76,56,64,49
35,110,285,69,75,58,72,45
37,117,278,69,62,57,76,44
29,120,252,77,60,67,80,38
30,120,255,87,61,62,79,34
31,138,282,98,58,61,81,30
30,132,257,92,65,56,68,33
31,118,253,91,68,53,76,37
32,109,310,93,68,43,73,41
31,115,318,89,63,44,72,41
29,96,301,93,60,46,72,43
30,97,312,101,65,51,69,41
29,128,330,101,63,54,68,40
28,123,308,94,60,48,66,38
29,116,317,96,60,52,66,41
31,113,311,85,57,49,84,43
30,118,335,82,42,47,85,42
30,141,357,78,47,41,69,36
29,137,359,94,52,53,84,36
30,143,371,95,52,48,83,34
28,146,386,95,84,48,67,34
29,141,369,98,90,46,68,33
27,87,339,108,89,45,65,35
28,107,318,97,87,32,41,32
28,110,321,107,92,36,37,33
28,143,357,112,72,40,53,36
32,149,345,102,61,42,64,40
33,151,355,97,59,46,65,40
30,137,336,107,65,44,67,39
36,153,305,91,57,43,68,40
38,126,272,98,52,40,54,36
36,123,294,105,59,40,35,33
36,118,277,100,68,42,82,40
37,131,294,93,67,44,86,41
33,111,303,92,67,44,86,39
31,110,324,87,65,43,85,39
28,105,303,78,64,46,86,38
27,107,302,77,58,45,44,30
25,102,350,73,55,45,32,29
26,103,338,77,53,43,34,30
28,113,320,68,52,42,54,29
33,139,311,72,47,38,67,30
33,148,303,75,47,43,68,32
35,158,235,91,52,45,79,33
36,156,262,95,55,46,84,36
38,182,285,108,61,47,85,38
36,163,282,111,62,46,75,36
36,166,307,110,57,43,75,37
36,159,323,92,51,40,67,41
35,161,321,89,49,38,61,38
32,129,293,78,45,38,42,34
34,144,305,74,57,44,70,39
36,132,284,74,61,37,68,37
36,129,285,84,60,39,74,34
35,129,256,81,61,41,78,34
34,129,279,88,81,41,80,34
30,116,269,92,80,44,62,32
28,116,265,95,76,46,86,34
29,124,292,93,76,46,81,31
31,119,306,95,77,47,77,29
30,108,285,95,59,47,75,29
30,103,285,89,51,43,69,28
30,107,311,89,49,39,37,24
31,105,320,97,62,39,71,35
30,101,306,95,57,37,71,36
31,98,328,84,52,37,77,39
30,101,335,87,49,35,78,39
30,113,336,101,54,35,78,40
26,99,284,87,44,35,43,31
28,107,303,101,55,35,44,31
30,107,240,98,54,33,44,29
30,108,352,111,57,33,56,30
31,97,321,94,59,32,56,31
29,94,324,99,57,32,57,33
27,89,327,87,47,31,57,37
24,100,365,86,48,32,49,35
23,97,248,69,46,28,32,33
24,98,269,90,55,36,33,34
28,119,319,92,56,38,30,34
30,127,324,93,55,39,60,36
31,124,321,107,57,41,63,37
31,120,324,116,61,47,62,40
32,130,339,111,58,43,64,38
32,116,313,105,55,42,64,38
31,106,287,109,58,45,38,33
30,101,275,96,57,46,36,32
30,101,299,87,56,43,36,31
30,88,325,87,45,43,33,31
28,81,304,99,47,41,33,29
28,83,306,93,46,37,32,30
30,88,294,103,45,35,59,38
32,99,277,102,44,35,60,37
30,99,272,97,48,34,59,35
30,116,330,103,59,33,59,35
30,115,326,104,63,33,60,35
29,110,319,114,79,36,31,25
27,97,320,135,110,46,30,25
38,98,298,143,124,66,37,34
42,103,334,146,119,66,68,43
41,103,355,148,117,68,70,86
47,106,383,137,108,68,72,90
48,108,382,115,76,63,96,95
43,119,377,104,46,45,95,94
63,109,321,84,49,45,79,92
72,111,295,76,49,45,77,55
117,169,369,75,52,57,75,56
126,180,376,74,51,56,72,56
131,174,380,73,58,54,70,54
148,179,390,79,58,56,92,66
145,182,405,82,59,56,94,67
129,144,342,76,54,42,96,63
140,150,362,79,55,47,95,64
155,147,337,75,49,50,99,70
142,153,339,67,45,47,82,65
154,166,358,72,46,47,85,67
151,171,343,70,48,46,107,67
139,166,325,65,49,40,102,63
135,167,335,64,54,40,110,59
131,161,344,65,55,52,111,53
133,171,327,63,54,56,118,53
129,190,331,60,53,56,99,54
138,200,328,66,53,58,109,59
128,197,327,65,51,83,123,63
128,207,349,66,56,97,123,66
140,197,329,72,63,101,118,68
143,209,420,79,62,104,118,69
137,208,412,77,62,105,99,63
135,217,414,80,62,93,62,57
141,222,416,75,59,79,55,55
115,231,439,73,57,79,42,47
108,191,332,67,57,88,39,43
96,193,354,71,56,94,36,41
98,204,383,74,55,89,35,41
99,191,314,73,55,83,51,44
105,172,290,68,51,78,82,49
109,184,320,73,58,73,86,51
116,184,297,69,56,63,87,56
115,168,258,67,57,59,89,58
101,160,282,71,55,63,89,57
99,174,308,71,58,64,66,52
88,179,311,67,54,58,88,48
81,157,309,67,55,70,92,44
87,174,321,67,59,75,92,42
83,166,296,62,57,76,88,36
110,158,271,61,57,82,88,44
110,157,221,56,54,84,74,46
112,189,224,50,53,76,69,44
111,190,233,43,53,78,109,50
121,210,251,48,56,81,108,50
92,204,244,45,51,72,107,43
88,213,283,53,54,74,99,41
85,193,281,54,53,78,114,46
77,184,273,61,47,71,75,37
63,187,282,61,45,70,72,35
63,189,278,59,50,71,98,39
64,177,281,60,45,63,96,38
61,174,279,58,42,53,78,37
58,161,280,54,43,51,80,49
58,135,260,49,41,39,78,51
61,148,298,56,37,35,40,47
62,137,277,49,36,30,50,48
65,139,288,52,36,32,79,57
61,135,257,50,35,38,113,49
59,134,265,48,33,39,120,63
59,109,231,42,32,39,138,68
57,99,208,41,33,40,136,68
57,102,256,45,34,41,124,60
58,106,288,55,37,40,112,67
58,129,315,62,37,38,105,56
51,137,332,63,39,44,126,51
49,136,330,62,39,42,130,52
55,136,283,57,38,40,130,53
57,155,290,49,37,40,114,40
57,141,249,42,37,39,115,35
61,135,272,45,35,34,74,37
64,141,285,54,38,36,88,37
59,141,293,59,46,37,94,36
60,133,279,56,47,37,93,37
60,154,316,61,48,39,93,38
57,156,280,57,51,39,83,40
56,158,266,50,54,42,57,43
55,159,262,48,50,45,43,41
56,151,242,57,57,45,63,44
57,235,327,69,69,48,87,47
65,258,339,75,77,51,92,46
63,254,339,77,77,49,92,45
62,263,385,83,76,45,92,46
60,265,387,79,71,41,79,42
61,181,276,63,57,36,47,37
52,141,263,57,44,30,37,32
54,143,261,55,41,27,34,27
58,125,240,45,40,25,29,28
54,120,240,44,40,25,28,32
49,114,245,44,40,27,75,35
51,136,257,48,42,32,74,36
53,146,283,48,40,33,99,42
48,141,239,46,40,42,99,60
54,138,249,45,38,45,100,60
58,134,241,48,38,44,92,61
55,117,241,50,44,45,97,61
49,106,295,54,43,50,97,58
51,101,288,57,45,50,115,52
45,104,271,57,47,47,118,49
44,130,349,64,54,50,110,50
53,130,341,57,47,47,109,53
55,123,278,52,48,40,90,52
55,135,299,54,46,34,64,39
63,131,322,54,45,33,56,42
59,105,240,43,37,29,40,35
50,107,272,49,39,32,74,37
50,117,273,49,37,34,97,40
55,118,260,46,35,36,98,37
46,115,245,43,33,38,102,35
46,122,280,47,33,39,103,35
50,117,248,45,33,35,77,31
51,101,237,44,34,34,44,26
42,82,223,43,35,32,42,27
47,140,319,55,38,31,34,26
50,138,295,51,36,28,28,27
45,139,292,48,34,29,27,26
44,160,331,52,35,28,29,30
47,161,331,54,35,25,29,28
40,122,234,44,33,27,29,28
39,144,262,46,33,32,31,27
45,150,256,45,35,31,30,29
41,127,200,39,31,31,28,26
42,129,209,39,32,33,73,29
45,127,217,36,32,31,81,31
45,158,246,39,33,30,85,32
48,175,287,38,31,33,90,34
51,195,322,44,37,38,107,37
52,206,326,41,35,39,88,36
50,207,323,46,39,39,84,36
50,177,320,57,40,42,96,40
45,153,299,61,40,41,95,37
44,134,282,60,38,37,77,33
42,117,272,60,38,34,70,32
44,139,325,62,38,36,65,34
41,136,283,49,35,30,38,29
43,141,269,45,37,30,30,29
45,146,283,45,36,29,27,29
46,142,282,44,35,30,25,30
44,135,260,41,35,28,27,26
47,148,315,51,38,30,27,24
42,142,316,51,34,30,29,26
41,139,326,51,31,29,25,26
44,142,326,52,35,30,27,30
52,130,295,48,31,41,33,30
53,108,238,39,27,41,32,31
54,136,251,40,30,40,29,29
56,131,206,38,30,41,31,30
52,133,233,42,29,41,31,29
52,128,227,44,30,28,24,29
50,115,222,42,32,26,24,27
56,95,244,47,32,26,30,29
52,99,243,46,32,27,30,28
62,99,221,43,32,26,30,31
56,109,294,46,31,27,29,28
62,122,309,48,36,27,30,31
57,110,301,43,35,26,27,30
61,129,315,45,36,28,28,31
51,143,327,45,34,27,25,25
58,141,283,47,34,26,26,27
51,133,283,47,31,32,28,25
51,165,326,52,31,33,26,26
52,153,319,51,31,33,26,25
56,145,314,52,35,39,28,27
59,144,320,50,35,38,27,27
59,149,307,51,37,40,27,28
59,125,252,49,37,40,28,29
56,126,279,52,38,37,28,29
53,134,321,52,35,34,30,30
42,132,314,51,37,36,31,28
43,131,324,50,35,29,28,28
39,127,334,50,32,28,29,27
38,120,321,46,32,32,30,25
40,103,275,46,33,31,29,25
44,113,278,51,33,30,28,25
47,111,272,49,34,28,29,25
48,101,240,46,34,29,28,23
51,110,230,46,34,23,25,23
47,116,250,43,34,23,23,20
45,107,233,37,31,21,23,21
41,105,243,42,31,21,23,21
48,103,247,45,32,23,21,23
52,101,259,45,31,25,21,25
50,127,315,48,31,23,23,26
57,125,308,50,36,24,23,27
57,141,277,45,35,27,27,28
55,153,276,44,36,27,28,29
52,186,278,44,35,26,28,27
55,167,175,40,34,26,28,25
48,179,193,40,32,26,27,24
53,173,217,40,30,26,24,26
48,167,213,37,28,27,23,24
47,132,218,37,27,27,23,24
49,142,257,39,32,32,25,26
53,127,255,35,26,30,24,25
47,116,242,34,30,29,24,21
48,121,281,43,31,28,26,22
47,145,273,47,35,28,28,25
44,132,240,45,31,25,26,25
44,142,264,47,34,28,27,28
45,148,265,49,31,26,28,27
44,147,223,44,32,25,26,26
46,111,195,40,30,25,26,26
56,115,197,42,28,23,26,28
59,95,173,39,29,22,26,28
62,91,212,44,34,23,29,33
64,120,229,44,32,23,29,36
62,127,228,42,34,25,27,35
61,121,229,44,37,26,29,35
61,132,221,48,35,25,30,33
63,151,216,41,32,24,24,28
64,149,211,40,33,25,27,28
64,154,221,42,32,23,27,29
60,157,221,42,30,23,25,28
52,149,204,39,32,23,23,27
46,138,210,40,32,24,26,27
43,117,213,40,31,25,24,25
40,113,220,39,30,24,23,22
35,114,238,39,30,24,23,21
41,125,239,40,30,24,22,24
43,130,220,44,32,27,22,24
44,132,247,44,33,27,22,25
55,123,230,42,33,28,22,28
56,119,209,40,32,27,22,28
52,119,256,43,33,30,23,27
55,114,258,39,31,27,21,28
55,108,227,39,31,25,21,27
45,104,222,38,30,24,21,22
45,105,234,39,32,24,23,23
45,136,244,36,30,22,22,22
41,142,276,35,29,22,23,19
39,147,293,36,30,23,24,20
40,152,301,37,30,23,22,20
43,157,289,36,29,24,21,22
43,130,264,32,29,25,21,21
39,121,241,33,31,25,22,21
42,113,220,33,32,27,24,27
44,126,254,38,33,27,25,28
45,120,260,39,32,25,26,29
46,117,242,40,30,24,27,28
47,146,343,52,33,24,27,28
44,157,357,55,34,23,25,22
44,176,380,54,33,24,27,24
44,178,389,55,34,26,28,24
43,178,390,59,37,25,30,26
43,149,282,50,34,26,30,28
50,143,289,47,30,25,29,28
48,104,233,45,31,24,26,27
43,100,207,45,30,23,24,26
49,142,204,40,29,24,21,24
53,143,200,38,28,24,17,24
49,138,156,37,27,23,23,25
50,144,190,39,28,24,22,26
49,145,192,38,29,26,25,24
42,127,248,38,26,24,25,24
38,119,255,38,27,23,26,25
34,118,261,36,26,23,23,23
34,116,227,33,25,22,24,22
34,115,265,71,40,24,22,23
38,89,215,73,42,27,22,24
39,132,228,80,44,26,22,23
47,151,261,84,48,28,22,25
45,152,299,88,50,30,21,24
43,151,280,64,38,27,23,25
41,155,289,59,37,26,22,23
40,139,301,49,33,29,23,24
32,121,279,42,27,26,21,22
33,115,252,36,28,25,23,25
35,113,240,33,30,27,21,25
34,119,269,39,31,25,22,25
36,107,263,41,32,24,24,25
35,108,251,42,32,26,27,26
39,114,250,40,29,27,26,26
39,120,262,44,29,26,25,25
40,106,212,39,27,27,25,28
39,97,189,39,29,29,26,28
38,96,203,38,32,28,23,25
34,90,204,36,32,26,23,25
36,112,252,37,32,26,25,26
37,117,262,39,34,25,27,24
36,123,268,40,33,23,24,24
40,125,275,40,31,24,25,26
41,124,267,41,32,23,24,25
40,108,231,36,32,25,23,27
41,104,225,34,28,23,21,27
44,97,214,34,29,24,21,28
40,113,285,35,28,22,21,25
39,123,298,38,28,23,26,25
39,129,295,40,28,22,27,23
36,130,299,40,30,22,26,22
32,137,333,40,29,20,27,21
34,116,257,40,28,22,25,23
34,119,294,40,30,24,23,24
33,124,327,42,29,24,23,25
34,129,330,42,29,26,23,25
37,125,299,42,28,27,21,24
41,127,313,43,32,27,25,26
42,116,252,42,32,25,23,28
46,100,219,45,33,25,23,26
49,96,216,45,35,24,23,28
47,102,227,46,35,24,24,30
48,118,243,46,33,24,21,28
48,117,251,47,33,25,22,25
50,109,222,39,31,25,21,24
48,117,249,45,32,26,21,23
50,134,303,46,32,25,24,22
45,119,277,43,33,26,24,20
46,131,311,45,34,25,25,22
45,132,316,48,33,24,28,26
45,122,287,43,30,24,30,27
48,116,279,46,33,26,28,28
50,117,276,45,31,26,28,28
48,99,226,40,29,25,26,27
45,112,254,38,29,25,23,26
44,112,263,42,30,24,20,24
42,90,190,41,29,25,20,26
41,92,197,44,30,25,22,27
43,102,211,46,32,27,23,28
42,109,165,47,36,27,25,27
40,116,171,43,35,27,25,25
35,114,175,39,34,26,28,22
39,109,164,38,35,27,27,22
37,100,154,37,34,28,27,21
39,111,215,40,35,40,30,23
43,105,237,43,40,42,31,26
42,108,235,48,51,43,28,25
46,120,253,55,53,43,29,27
48,134,285,59,53,41,28,31
50,113,267,58,52,29,26,31
47,110,248,55,50,28,25,30
50,128,270,62,42,31,27,31
43,127,256,55,40,31,30,29
41,139,323,55,40,32,30,25
37,144,336,57,37,31,27,21
38,146,331,57,38,30,28,23
35,151,373,50,33,25,26,22
39,144,380,53,32,24,23,23
46,120,298,48,30,23,24,24
46,112,266,43,30,24,24,24
46,123,283,46,28,24,24,24
48,101,207,42,28,26,24,23
46,109,215,39,27,24,23,22
41,114,224,39,28,25,25,24
41,112,229,39,30,24,24,23
40,111,246,37,26,24,23,24
38,111,236,35,27,22,22,24
42,103,208,33,26,22,23,26
42,107,209,35,26,23,21,22
42,115,231,37,24,23,23,22
42,116,227,37,27,24,22,21
42,113,236,38,26,25,24,22
38,117,239,39,28,25,26,23
40,119,243,44,29,25,27,24
42,118,242,42,33,27,26,25
44,118,196,41,32,27,28,27
45,122,193,39,32,25,26,27
44,141,305,48,36,27,24,25
46,144,308,41,33,26,24,26
47,139,297,43,30,25,27,27
44,123,299,46,35,24,26,25
43,123,303,48,35,26,24,28
42,99,201,40,31,24,23,26
37,83,184,41,31,24,21,26
36,97,189,45,34,25,19,24
39,101,192,41,30,24,22,23
39,97,186,41,29,23,24,21
43,104,199,48,31,24,24,23
43,107,199,52,33,25,24,22
43,103,179,51,32,22,24,23
43,100,179,52,31,23,21,24
48,105,187,54,34,25,22,25
44,104,162,47,33,23,26,24
46,123,205,45,32,23,26,24
45,118,223,48,34,23,27,25
46,121,213,49,35,23,27,24
44,136,244,50,36,22,28,25
44,138,265,49,33,25,26,25
48,133,277,51,34,24,27,25
47,130,278,45,30,24,27,25
45,137,283,41,26,23,27,24
39,123,275,43,26,23,25,24
41,112,258,43,28,21,24,25
38,93,203,39,30,22,22,25
39,100,217,42,32,23,23,25
44,91,219,43,34,24,23,25
47,94,197,39,35,25,26,25
46,122,217,46,36,27,26,25
43,124,222,45,36,27,28,25
47,123,209,43,36,27,27,27
45,130,209,44,34,25,27,27
48,124,214,45,36,24,24,27
46,110,224,44,35,24,27,28
53,121,285,49,40,25,26,29
49,120,276,51,40,26,26,26
50,112,275,51,41,26,28,28
58,134,319,53,40,27,32,31
61,125,306,49,41,27,31,31
58,111,256,51,44,30,33,30
59,135,293,49,43,31,35,31
61,177,337,54,47,33,38,33
51,163,296,50,44,33,35,29
50,161,282,51,45,33,33,29
51,179,347,47,36,33,31,29
53,172,314,46,39,32,29,28
54,135,289,38,35,32,25,28
50,131,297,40,38,35,24,28
52,139,300,40,34,33,25,27
51,128,263,43,36,29,26,27
47,126,298,47,35,34,27,26
44,120,276,50,36,33,25,25
47,132,274,47,33,30,26,26
42,128,283,47,33,31,25,25
42,120,245,45,33,30,25,25
42,104,212,45,33,28,24,25
43,103,217,48,35,27,24,26
42,90,191,50,37,28,21,25
44,93,195,54,41,32,25,26
40,90,190,52,42,33,23,26
39,90,180,51,41,31,27,27
41,97,183,47,42,32,27,27
41,98,219,52,40,31,27,28
46,118,245,49,39,27,26,27
48,113,256,50,39,28,28,28
52,121,264,53,41,28,27,27
49,119,290,53,38,28,26,25
52,122,308,54,42,31,32,27
49,106,279,56,39,30,31,26
50,115,291,60,42,30,28,25
48,104,279,56,41,30,27,27
47,123,310,66,43,33,31,28
46,122,268,62,39,30,27,26
46,127,280,66,43,32,28,26
44,125,262,63,42,30,29,27
45,136,289,65,44,32,29,25
45,115,227,55,42,30,27,25
42,111,228,53,42,30,25,27
53,106,226,47,43,28,26,28
56,122,235,54,40,27,26,29
55,117,224,53,38,26,27,29
54,116,216,53,40,25,24,30
53,129,283,61,41,24,26,29
44,126,284,60,37,24,25,27
41,105,269,52,35,25,26,27
52,107,259,51,32,23,25,29
52,133,301,49,32,25,24,28
55,139,257,38,32,26,24,27
55,136,245,41,36,26,22,29
56,157,282,48,38,25,22,29
52,173,294,51,40,28,26,28
53,158,255,52,40,26,27,28
50,142,258,56,40,27,27,27
47,152,296,62,38,29,30,26
45,132,272,62,38,29,30,27
40,106,265,60,43,31,27,28
48,106,264,59,41,31,28,28
51,111,272,58,41,30,27,29
53,113,240,48,38,27,24,27
52,116,229,44,38,27,26,27
56,114,209,43,32,24,25,23
51,116,234,45,31,23,24,23
58,127,218,44,32,23,25,23
58,125,219,46,33,24,27,25
59,122,211,57,34,23,24,23
58,122,219,56,32,21,23,26
59,124,215,57,35,25,25,26
54,123,228,60,36,25,23,24
53,109,206,60,37,25,20,26
54,111,219,50,36,25,20,27
52,114,232,51,36,26,21,25
51,104,204,50,37,23,19,24
48,114,196,43,34,24,20,24
48,126,246,45,35,24,21,22
47,129,240,47,38,25,21,20
51,131,220,48,40,25,21,22
50,130,216,48,39,25,21,22
57,122,222,50,41,26,23,22
58,111,176,43,40,26,22,23
59,107,239,42,37,26,25,25
55,118,252,41,39,27,25,26
58,120,251,41,37,27,23,27
50,103,218,38,33,26,23,27
51,101,217,40,33,28,25,27
45,99,143,37,32,27,22,27
44,106,174,41,28,23,22,27
45,109,180,40,29,23,23,29
47,115,218,45,31,23,22,29
47,114,218,43,29,21,19,27
49,111,216,44,30,19,20,26
49,83,176,41,32,22,19,24
46,88,215,44,32,23,20,22
43,77,174,37,30,24,19,20
47,87,194,43,32,26,19,22
50,91,194,43,31,26,19,22
51,94,240,43,27,26,21,24
47,84,208,39,26,24,22,24
52,112,244,41,28,25,23,26
50,105,245,36,27,22,23,29
58,113,262,37,28,24,23,29
56,114,232,34,32,24,23,28
59,115,230,36,33,25,22,28
56,89,220,41,32,24,21,27
54,89,195,40,32,24,24,26
43,76,165,41,31,22,23,26
51,87,180,45,31,21,22,28
52,111,210,46,32,23,25,29
54,133,212,43,32,23,26,30
52,134,212,45,33,25,22,28
54,138,248,44,32,25,24,30
48,147,258,40,30,27,29,28
44,132,241,38,29,25,27,26
45,115,232,37,29,26,26,25
50,113,231,35,29,24,28,26
46,104,195,34,31,24,28,24
48,80,167,35,34,24,23,23
50,75,157,39,39,27,23,26
45,67,150,37,38,27,29,26
44,64,163,40,39,27,27,26
49,70,163,39,39,29,27,28
48,72,155,39,36,27,26,29
45,71,150,36,30,22,25,27
50,80,158,42,34,23,21,26
49,88,171,47,35,24,23,26
47,86,172,51,38,25,23,26
44,98,180,55,40,28,24,25
43,98,180,54,41,29,25,24
39,97,182,53,39,29,23,24
38,93,158,46,36,28,23,25
37,98,155,44,30,25,23,23
40,85,151,45,33,24,24,25
45,111,171,47,33,25,26,27
48,136,159,46,32,24,26,26
48,160,263,53,34,24,27,26
47,176,276,52,33,26,28,26
49,177,280,46,29,25,28,25
47,168,280,46,30,22,28,23
45,149,301,52,34,22,26,23
46,139,260,49,33,23,25,22
48,122,288,49,34,21,23,23
46,125,295,59,36,21,23,24
45,119,290,57,37,23,21,24
43,120,284,54,35,24,24,25
41,99,255,55,39,24,25,27
42,101,234,59,40,25,26,28
40,123,245,49,38,27,25,27
45,141,241,52,38,28,29,27
48,139,224,48,36,27,27,26
48,141,212,44,32,26,25,25
43,135,188,40,30,27,24,23
47,115,151,45,36,30,23,21
48,93,164,42,36,28,20,21
49,112,177,41,37,28,19,22
57,132,192,45,39,28,19,23
57,128,186,46,40,28,18,23
55,132,182,42,33,22,19,24
51,135,196,40,32,24,18,24
48,120,202,41,30,24,21,26
40,99,208,42,31,24,24,23
41,104,216,37,30,24,25,22
44,93,219,38,29,26,24,24
43,103,237,39,31,24,25,24
48,116,217,44,34,25,24,22
47,127,227,40,28,25,22,22
50,138,235,40,29,25,23,24
51,143,235,41,29,24,23,21
51,163,289,45,28,25,21,22
53,178,312,44,27,23,22,22
59,206,312,48,31,25,23,23
56,204,309,50,31,24,22,22
53,202,304,48,31,23,23,24
62,185,248,46,34,23,23,25
61,171,231,45,33,23,21,25
56,122,206,42,33,23,20,24
58,113,197,43,36,23,19,24
58,133,227,45,36,24,21,23
43,120,197,41,34,25,21,21
40,126,226,44,34,24,21,20
47,142,235,44,34,25,22,23
55,145,247,47,36,28,23,25
54,154,287,52,40,30,22,25
56,162,293,52,40,29,21,25
57,146,259,47,39,30,23,26
53,135,278,47,37,29,25,28
43,148,271,46,32,26,23,27
44,125,206,41,30,25,21,27
46,123,208,44,30,27,23,28
43,142,249,47,30,25,21,27
44,155,290,48,30,25,20,25
43,148,303,49,32,25,22,24
44,150,311,47,28,23,23,26
46,140,302,45,29,21,22,26
46,152,319,47,32,23,26,26
46,156,291,47,33,22,27,25
45,149,273,44,34,24,25,24
46,142,279,46,34,22,25,23
48,144,277,46,35,24,25,24
48,115,229,42,35,25,26,27
46,91,206,38,33,27,24,28
49,96,216,41,32,26,25,31
51,100,222,39,32,26,24,31
52,126,228,38,31,25,23,29
51,129,245,41,29,24,21,28
52,134,230,43,29,22,21,26
48,134,218,41,28,22,21,22
47,158,231,44,31,23,24,23
38,143,277,46,31,22,25,23
37,158,258,44,30,21,24,22
43,163,290,46,33,21,25,25
45,161,296,47,33,22,24,26
42,130,262,43,30,22,22,27
43,129,210,39,30,23,24,26
48,129,216,36,32,24,24,27
43,122,214,37,29,23,23,24
42,120,230,37,30,22,24,22
44,123,240,39,31,24,26,25
51,121,239,42,33,24,25,25
53,100,236,46,30,24,24,26
58,89,195,41,31,25,24,27
65,97,179,41,31,25,24,27
66,99,167,40,31,23,22,26
67,109,214,43,28,22,19,27
72,122,211,44,29,23,25,29
70,119,211,44,28,21,25,28
76,119,215,47,30,22,31,31
72,127,222,45,29,23,30,28
68,117,170,41,32,24,30,27
64,107,183,39,37,26,27,25
66,109,171,41,39,28,28,27
54,105,164,41,37,26,22,29
55,99,161,41,36,26,23,31
58,112,188,44,34,27,24,31
51,102,162,42,27,25,26,31
45,101,163,41,27,25,27,31
47,96,145,37,26,26,27,29
50,93,146,38,26,25,25,28
50,95,169,43,29,27,30,30
53,96,179,41,32,28,27,31
54,102,193,40,33,27,26,32
52,114,197,42,32,29,26,31
51,112,187,41,34,29,28,32
51,95,128,33,32,29,22,28
48,108,172,35,29,28,26,27
49,102,159,35,28,28,27,24
47,91,153,35,29,26,27,24
48,90,159,35,28,24,27,24
41,97,186,35,26,23,28,25
49,98,147,39,30,25,25,24
53,106,144,39,30,24,24,23
55,106,153,42,31,24,23,24
55,104,149,44,34,26,22,23
56,98,110,43,36,26,21,24
52,94,92,39,33,26,21,26
49,84,95,39,32,27,22,25
49,92,159,38,31,28,23,25
49,97,161,36,29,26,22,26
49,95,162,38,29,28,22,26
46,82,160,35,28,26,20,25
42,87,158,34,31,25,23,26
39,77,86,31,30,24,22,25
35,71,83,33,30,25,22,24
35,79,83,29,30,24,23,23
35,83,78,33,30,24,24,24
38,84,80,33,27,24,23,22
39,92,73,34,28,25,26,24
40,98,108,35,29,24,28,23
40,97,108,35,27,22,28,23
37,103,114,33,30,22,33,21
36,111,116,33,31,22,31,24
35,104,113,34,32,22,35,23
36,108,90,36,32,21,35,24
36,110,106,37,32,23,36,24
36,102,104,36,30,23,34,26
35,94,109,38,29,24,34,26
37,100,113,38,32,25,28,26
36,116,167,39,30,26,30,26
53,114,170,44,34,25,30,27
55,127,177,43,33,26,29,28
55,163,201,44,35,26,30,28
56,160,202,42,34,25,30,27
54,152,186,41,34,26,28,28
39,151,177,36,31,26,28,24
38,140,183,39,31,25,27,22
39,95,155,34,28,25,24,20
40,100,160,34,23,23,24,21
42,101,164,37,23,23,22,23
39,102,172,38,22,24,24,22
37,99,170,37,25,25,22,23
37,100,174,39,27,26,24,23
36,117,234,47,31,27,26,21
35,107,209,45,31,25,28,21
40,110,209,46,31,24,24,22
45,126,216,46,29,22,25,24
45,159,232,47,30,24,27,24
49,150,195,41,28,25,26,25
49,155,207,40,30,28,24,25
48,154,220,42,34,28,24,27
43,141,207,44,36,28,25,26
44,102,188,47,36,27,22,27
38,93,164,47,35,25,24,25
38,83,194,49,36,24,25,26
37,89,177,43,32,23,27,24
42,102,181,39,32,21,26,23
39,100,184,40,35,22,27,23
39,99,196,43,35,23,24,23
43,109,158,41,34,23,25,23
50,107,184,44,34,25,23,23
48,93,183,45,34,25,26,24
50,92,173,43,31,22,25,22
51,96,179,38,32,23,25,22
50,97,188,39,31,23,25,23
41,100,195,38,31,25,26,22
40,102,193,39,29,26,21,22
39,104,220,40,31,28,21,22
37,101,199,39,30,27,23,24
34,96,189,38,31,26,25,23
39,88,161,38,31,25,25,24
40,90,157,37,33,25,25,24
42,94,124,33,31,23,26,25
42,97,147,37,32,25,27,24
42,95,147,41,34,25,24,24
37,89,132,38,34,25,25,24
38,133,139,41,33,24,24,23
38,153,136,44,32,26,26,24
38,148,115,42,31,26,27,24
37,150,101,41,27,26,26,22
39,151,97,45,28,25,25,21
42,123,155,48,29,28,27,22
39,96,150,51,33,28,26,21
43,98,146,53,34,28,24,23
44,93,150,52,35,29,25,25
42,95,154,48,35,29,26,25
41,87,78,44,33,28,23,26
42,82,75,38,30,27,23,25
40,80,72,34,27,25,22,23
41,75,78,35,30,26,27,24
44,108,110,36,31,25,27,23
45,109,116,34,34,26,26,24
43,108,120,35,34,25,25,23
42,122,130,36,35,25,27,22
40,126,123,35,30,23,22,21
39,99,89,35,29,22,22,23
35,112,171,39,29,19,25,21
39,112,176,38,28,20,26,23
39,99,173,39,30,20,24,23
40,93,173,41,36,22,24,24
39,106,177,42,36,22,25,24
38,92,95,37,35,24,28,25
35,102,86,38,35,22,29,23
37,98,75,36,36,25,29,24
40,96,76,33,30,22,28,24
37,85,77,39,35,25,27,24
43,93,91,42,33,25,27,24
47,80,85,40,34,29,26,27
48,85,86,42,32,26,27,26
47,90,90,42,37,27,28,25
46,90,83,38,36,26,29,24
42,75,65,34,36,28,25,23
49,95,84,34,34,25,23,21
46,94,90,33,35,25,23,20
48,92,86,33,30,27,24,23
48,85,83,30,28,27,23,22
49,90,87,34,28,25,24,21
41,73,74,37,29,24,24,21
48,76,67,39,32,26,24,24
45,71,61,37,32,25,23,24
44,87,73,39,30,25,24,23
42,80,80,41,32,26,25,23
36,93,82,39,33,27,27,22
34,105,87,34,30,26,25,24
32,107,87,36,32,25,26,24
36,100,83,36,32,25,26,25
40,108,83,33,30,27,28,26
40,94,78,34,29,25,27,26
37,90,77,35,33,26,27,22
42,91,83,35,30,25,27,21
41,87,79,33,29,26,27,23
35,96,75,31,30,24,22,22
44,99,99,32,32,27,21,24
43,91,99,34,28,26,21,24
45,117,103,34,28,26,24,24
50,125,108,36,31,26,21,22
57,117,112,36,30,27,22,23
50,117,93,37,30,25,23,23
62,127,95,35,29,25,25,24
61,113,100,35,29,26,21,24
62,104,94,37,31,26,22,26
57,100,83,38,34,27,23,25
58,99,83,36,32,26,22,25
47,95,92,39,33,26,22,24
51,84,84,43,37,25,23,25
44,81,84,40,34,24,25,25
45,79,86,41,33,20,22,24
49,93,92,41,34,21,23,27
49,95,168,38,35,21,22,27
41,100,175,35,33,22,24,28
42,102,180,37,34,22,22,27
41,101,180,34,31,22,22,26
40,101,182,37,35,23,26,26
38,87,109,39,33,23,28,25
41,86,97,37,32,25,26,23
40,103,90,37,35,28,28,23
44,118,112,37,36,29,28,24
42,111,142,35,36,28,25,22
42,120,166,37,36,29,23,22
42,121,177,37,39,29,23,24
43,108,176,38,41,26,24,25
38,92,166,38,40,25,27,24
46,89,135,40,37,26,25,24
45,83,104,36,38,26,26,23
48,84,95,37,39,25,28,23
54,86,139,36,36,25,28,25
58,89,138,41,38,27,27,26
49,100,151,41,39,26,27,25
51,130,182,40,37,26,27,26
52,138,206,43,33,26,25,26
44,132,179,42,30,27,25,25
43,130,178,38,28,26,23,24
48,133,170,36,27,25,25,25
45,101,134,39,31,27,27,26
40,82,80,34,32,27,27,24
42,83,72,34,34,27,24,23
38,82,63,34,35,26,22,22
34,58,50,34,35,27,20,19
41,54,37,30,30,25,19,21
43,78,67,34,35,27,22,22
50,87,79,35,38,28,21,23
54,94,114,36,39,28,22,25
56,100,122,41,39,28,24,27
58,106,132,45,41,28,25,25
61,93,123,43,37,24,23,26
55,84,118,41,34,23,24,25
51,82,96,48,35,26,26,26
50,80,91,45,35,27,27,27
43,82,145,45,33,26,24,27
40,82,157,43,32,26,25,24
40,82,157,44,30,26,27,25
39,78,152,33,27,24,25,24
44,84,157,33,27,25,25,23
43,80,116,30,28,25,27,25
45,82,129,36,28,25,26,26
48,90,135,35,29,27,23,25
53,95,140,37,30,26,26,27
50,93,138,37,30,24,23,26
50,84,123,41,33,29,23,25
49,78,90,36,32,30,25,25
47,75,95,37,31,28,25,25
46,75,87,39,33,27,24,23
43,68,82,38,30,26,26,24
41,75,88,34,32,21,24,23
40,75,95,35,33,22,23,23
41,93,113,39,33,23,24,24
40,98,156,41,34,23,25,23
39,104,164,41,36,24,23,22
41,99,164,40,30,26,22,22
41,99,159,39,30,23,23,20
43,97,157,38,29,25,25,22
42,95,125,38,27,25,22,22
41,92,118,38,28,26,23,22
42,95,113,38,29,24,23,22
40,105,119,38,30,25,24,23
43,86,93,37,30,23,23,23
39,76,80,35,30,23,24,22
48,119,86,34,28,24,27,23
48,122,90,36,29,24,27,24
47,115,80,36,29,23,29,24
43,117,78,35,31,26,27,23
48,123,85,43,36,27,28,25
40,79,72,46,36,28,26,24
42,74,67,44,37,28,27,22
42,79,76,44,35,29,25,24
42,82,79,46,35,26,25,24
37,81,68,37,30,25,24,24
36,87,69,34,30,22,24,25
33,86,84,34,29,24,22,26
35,93,94,34,30,24,21,24
35,86,91,33,33,25,22,24
35,87,100,31,31,24,24,22
38,88,102,33,33,24,22,21
36,89,93,37,34,21,21,20
34,76,75,40,34,22,20,20
41,86,81,40,33,22,21,23
44,78,67,42,34,22,19,25
44,71,65,41,32,24,22,27
44,74,69,35,31,26,22,29
50,77,80,34,28,25,23,31
46,70,81,35,26,27,24,30
46,72,85,33,26,27,24,30
45,68,86,33,28,25,22,30
45,61,79,34,30,23,24,27
39,66,86,42,34,23,24,25
35,72,87,44,38,24,23,23
29,75,88,45,38,27,27,23
37,82,86,46,38,30,27,24
42,97,108,47,35,30,26,29
50,99,97,41,33,30,28,30
51,96,97,36,27,27,29,29
53,103,97,38,28,24,29,29
48,115,105,36,26,21,28,27
49,124,140,38,30,21,27,24
41,127,160,36,28,21,27,22
43,130,156,36,28,22,26,22
43,129,159,34,30,23,23,24
42,121,173,34,29,23,24,24
42,112,145,30,30,23,24,24
43,106,128,29,29,22,22,24
42,114,148,31,30,23,23,27
41,112,148,31,30,21,22,29
43,115,129,32,28,22,22,28
40,116,140,35,25,22,27,27
42,135,181,42,28,24,26,27
44,125,168,42,28,23,25,23
44,121,175,44,33,23,26,19
45,128,183,45,38,26,26,21
45,127,216,50,39,29,27,26
41,103,182,43,37,27,26,26
40,105,191,42,38,28,28,28
43,119,195,42,33,27,29,28
44,107,202,39,27,25,33,31
42,103,165,35,26,26,31,27
54,123,168,38,27,28,33,26
51,125,178,38,26,27,30,24
51,113,179,42,33,30,30,24
48,108,159,44,38,33,27,21
48,119,164,43,40,33,26,22
37,96,165,51,42,33,26,23
39,93,159,51,42,33,28,25
38,100,144,48,38,31,28,24
46,112,156,51,37,29,27,26
44,101,134,47,36,26,25,24
42,102,127,42,35,26,25,24
41,101,158,42,35,25,22,23
41,110,181,43,34,24,21,23
38,112,185,41,29,22,19,19
39,103,200,46,28,23,20,20
41,115,206,42,27,22,22,22
46,113,169,41,27,24,25,24
43,92,144,37,27,23,25,24
44,81,136,36,29,26,25,25
42,92,115,29,29,25,28,28
41,85,105,29,28,25,26,27
39,90,104,30,29,25,25,26
42,94,100,29,27,25,25,27
38,101,130,31,26,24,24,27
42,112,150,37,30,26,25,26
42,108,150,36,26,24,25,25
41,110,159,34,26,25,26,26
45,122,211,44,28,26,27,27
44,126,190,41,26,26,29,27
41,109,172,37,25,23,25,24
41,116,234,51,29,24,26,24
37,108,234,53,31,23,26,23
34,94,190,46,30,25,27,23
39,80,192,47,31,26,25,23
43,93,200,47,32,27,25,24
46,91,163,37,30,26,26,25
47,105,154,35,30,27,24,24
48,119,160,35,29,24,23,23
52,131,160,35,29,25,23,22
51,121,150,41,29,24,22,21
47,116,103,37,28,24,19,19
50,105,110,37,27,25,20,20
48,96,125,42,26,23,19,19
41,83,120,42,27,26,18,19
42,82,120,37,28,25,24,21
43,80,161,43,29,25,25,22
38,77,156,42,28,24,26,22
42,76,139,39,32,24,26,23
42,81,151,37,32,21,26,24
40,96,153,39,31,23,23,23
40,101,109,35,30,23,22,24
47,117,113,39,33,23,22,24
42,114,111,37,29,23,24,23
46,130,146,43,29,23,24,22
44,125,146,40,28,22,24,25
43,124,155,38,29,22,26,25
38,109,153,36,25,23,24,25
38,108,181,38,29,23,23,25
32,75,137,34,27,23,23,26
30,66,139,32,27,22,22,22
33,64,126,33,26,24,27,25
34,72,127,33,28,21,26,23
37,79,130,36,26,21,26,24
40,86,138,34,30,21,26,22
47,94,135,35,30,22,25,26
47,93,139,34,30,22,21,24
48,90,139,33,30,22,22,25
46,87,104,27,30,23,20,26
47,84,131,29,28,23,22,27
44,76,132,31,27,23,23,25
44,75,131,33,27,21,21,23
51,72,137,33,27,23,21,25
50,86,164,40,28,24,23,23
48,86,134,40,29,24,22,23
47,82,130,39,32,25,24,26
44,91,139,37,30,26,23,25
39,125,158,37,30,24,25,25
41,121,144,35,31,25,26,26
44,123,152,34,28,24,26,26
45,142,174,38,28,23,26,26
46,151,207,40,31,23,26,27
43,124,192,42,32,24,26,26
42,121,189,42,32,23,23,25
38,123,215,44,34,23,22,23
40,105,219,39,31,23,23,20
46,100,186,38,29,23,24,24
43,115,183,38,30,24,25,23
48,128,204,37,29,25,28,25
49,125,179,42,32,27,30,26
46,127,167,49,32,25,29,26
40,120,162,49,32,26,28,23
42,107,166,50,32,26,28,25
37,88,140,49,32,23,26,24
41,135,183,42,29,22,26,25
42,145,186,35,28,22,25,23
48,140,195,34,29,23,26,25
50,144,225,35,27,20,24,24
50,145,215,33,26,21,23,23
48,131,207,33,26,24,24,24
49,115,198,34,27,24,24,24
44,129,196,35,27,24,24,21
44,125,205,37,32,26,26,21
42,127,206,39,31,25,25,22
42,100,172,40,31,22,23,21
47,108,209,41,32,23,23,22
45,100,208,42,33,22,22,23
42,103,167,40,29,21,21,22
42,106,199,41,28,22,20,21
44,119,213,42,28,24,23,22
39,123,178,40,28,23,26,19
41,123,180,40,33,24,27,19
51,139,183,39,33,23,28,22
55,149,174,41,36,24,28,24
55,148,188,40,36,22,28,26
58,141,189,44,37,22,27,30
58,151,217,43,34,21,25,30
52,134,223,42,36,24,28,27
54,129,260,41,35,22,29,27
57,123,243,39,34,24,28,27
54,127,245,37,32,23,26,24
51,112,244,36,31,24,25,23
49,118,239,39,29,23,21,24
44,134,240,46,31,25,22,24
45,142,253,48,31,25,23,21
43,141,252,48,31,27,24,21
45,146,246,48,31,28,25,22
44,147,241,46,30,28,26,23
43,128,187,37,29,29,25,23
39,109,184,37,30,28,25,25
40,102,176,36,28,29,23,26
40,106,149,34,26,28,23,25
43,124,180,34,26,25,23,25
58,154,219,40,26,27,25,27
60,186,242,39,27,27,24,25
60,188,245,39,28,25,26,23
60,182,248,41,29,26,27,25
60,172,238,42,29,26,26,26
52,207,262,36,30,24,24,24
51,190,239,37,30,24,26,26
53,188,235,34,31,24,26,27
53,188,233,33,30,23,25,27
54,189,270,38,33,26,28,27
49,122,223,38,31,26,26,26
44,104,208,37,30,27,25,23
44,108,225,39,32,29,26,27
44,110,224,38,34,29,25,26
39,91,168,34,32,26,22,26
38,98,220,42,37,26,26,26
41,100,225,42,38,27,29,28
40,110,250,42,37,24,28,25
47,116,257,44,36,25,29,26
46,130,260,45,35,27,31,26
47,119,223,40,31,27,28,25
49,126,228,42,29,25,24,23
48,124,190,45,28,27,23,23
38,124,196,44,28,25,22,23
40,125,200,42,27,24,22,24
37,127,191,39,27,23,22,25
38,136,231,37,27,24,23,27
36,127,222,35,27,21,23,27
40,128,246,43,26,21,23,25
38,111,233,51,30,22,21,24
40,126,230,51,32,22,22,23
38,107,195,56,33,21,26,22
45,108,197,55,33,23,26,22
41,97,151,50,35,23,26,23
46,114,179,42,34,22,26,24
49,100,169,46,34,22,24,25
50,101,159,38,34,24,24,26
45,102,184,45,35,24,25,26
45,100,179,44,34,24,26,24
45,90,185,44,33,24,25,25
43,95,227,48,32,25,27,24
47,108,232,48,31,23,23,22
48,129,233,41,31,23,23,22
48,130,243,44,33,26,23,22
50,137,219,43,35,27,23,21
46,147,199,36,35,26,22,21
42,141,203,37,40,28,25,25
39,129,201,37,40,29,24,27
39,149,246,39,38,28,25,27
34,142,246,38,37,26,26,26
41,120,225,38,36,28,26,27
41,135,257,44,31,26,24,26
44,129,255,46,30,24,25,23
44,110,226,43,31,25,28,25
45,109,270,45,32,25,26,25
41,116,278,46,33,24,26,24
40,112,264,45,32,24,25,21
40,121,263,43,31,25,25,22
46,125,257,44,29,24,21,23
44,122,221,44,28,24,23,23
43,147,215,49,29,23,22,24
45,159,241,56,32,25,24,27
48,163,233,66,33,24,25,26
45,167,223,68,33,23,24,25
50,177,239,71,36,24,22,24
55,165,243,72,35,26,23,24
52,142,208,63,32,25,25,20
53,140,213,56,34,25,23,22
52,149,229,51,34,25,23,22
48,138,209,46,32,24,23,23
45,132,224,38,29,25,24,24
46,149,225,42,30,25,21,25
43,156,254,41,30,24,23,24
44,143,243,42,33,25,24,24
42,141,265,48,34,26,25,25
42,141,271,46,37,25,25,26
44,126,257,45,37,24,25,26
45,168,362,49,37,26,25,26
46,168,362,49,33,22,22,25
54,185,364,44,32,25,25,25
53,183,349,46,29,24,24,23
50,185,383,44,30,24,24,25
48,137,283,34,26,23,23,24
50,141,291,38,28,25,22,23
44,126,302,36,27,22,31,23
45,141,335,41,30,27,68,26
46,173,370,55,35,26,72,23
45,180,358,58,37,26,74,24
47,183,367,60,37,26,75,26
54,232,401,62,39,26,73,26
52,237,426,67,39,24,42,25
53,216,372,62,36,23,37,26
56,228,386,63,37,25,32,26
51,221,389,60,36,26,34,26
51,175,331,61,37,26,30,28
53,178,306,65,37,26,30,27
58,175,313,62,34,25,31,27
56,162,336,72,35,27,30,29
55,190,363,86,39,27,25,30
52,190,387,88,38,27,27,30
52,189,415,84,36,26,22,30
47,225,475,100,41,27,25,29
50,219,459,93,38,30,28,28
51,197,427,84,39,32,30,25
48,200,431,82,38,32,28,24
52,207,482,89,42,32,31,25
50,164,412,70,38,32,29,25
49,163,433,77,41,27,28,24
49,195,465,72,37,22,25,26
49,182,452,69,38,21,28,26
41,166,391,57,36,21,26,25
44,168,393,59,39,23,26,26
40,165,389,49,38,23,25,25
37,145,366,53,40,25,25,23
37,159,368,59,43,26,25,23
39,145,313,58,43,27,24,24
37,151,332,60,41,25,24,23
41,160,314,60,37,25,25,25
41,146,316,58,38,24,24,25
45,170,348,53,33,23,23,25
47,177,343,55,34,24,22,25
50,187,433,62,33,23,24,25
49,193,446,63,34,24,23,23
51,192,439,64,36,26,26,25
48,165,425,66,37,25,26,26
47,160,420,64,36,25,28,26
48,160,352,64,38,29,27,26
45,139,308,61,38,29,26,27
47,135,307,59,38,29,24,26
50,122,298,57,37,30,22,26
48,116,330,61,38,29,23,23
43,92,311,52,40,28,21,22
45,97,315,52,39,27,22,23
44,92,310,50,35,24,21,23
42,107,381,61,38,24,23,22
40,118,362,56,35,23,21,25
49,116,346,52,29,21,22,27
48,118,370,55,29,22,21,25
50,158,375,57,34,25,21,25
47,157,293,44,30,25,19,27
50,157,317,51,31,25,20,25
43,156,317,53,36,26,20,24
45,159,286,54,40,26,21,24
38,123,295,56,38,25,21,26
46,125,290,61,42,25,24,25
45,114,262,54,41,24,24,23
47,161,380,61,40,24,24,25
46,162,384,57,36,23,25,25
46,160,408,52,35,23,26,23
43,156,410,51,32,23,23,23
44,169,420,54,33,25,25,24
45,128,326,44,30,24,25,24
46,127,336,45,30,23,24,25
51,132,282,48,29,22,24,26
51,128,258,42,28,20,24,26
54,130,293,51,30,20,23,27
51,130,303,52,32,20,21,26
54,125,286,52,32,20,21,26
50,121,313,51,34,22,19,25
48,116,360,57,33,21,21,27
43,93,320,51,35,22,22,25
41,79,298,49,35,24,23,26
37,80,307,51,36,24,25,25
40,71,294,54,36,23,29,24
42,75,261,57,42,24,30,23
46,94,331,67,40,23,29,24
49,104,329,67,38,22,30,24
46,99,330,65,37,23,29,24
48,112,326,62,34,23,26,28
48,111,303,53,27,25,25,28
52,139,357,58,31,26,26,29
48,146,449,63,33,26,25,27
53,159,449,65,36,30,27,30
51,155,444,65,38,32,27,27
52,166,483,67,37,32,25,25
45,138,398,52,36,32,26,25
46,129,307,49,37,32,28,29
45,138,309,53,36,30,26,26
47,147,329,55,36,30,27,28
43,142,299,53,36,28,26,28
46,149,301,50,35,30,31,30
48,162,340,53,33,30,31,27
44,144,335,50,31,28,31,28
38,134,322,49,32,29,29,26
40,129,301,51,31,30,33,26
43,119,300,48,30,29,26,24
40,117,257,43,29,29,25,23
44,116,249,45,32,29,29,25
44,140,370,54,33,27,30,25
48,143,379,53,33,29,28,25
43,142,380,57,31,28,30,27
49,151,413,76,38,28,30,26
50,157,419,78,38,30,27,25
52,142,348,74,39,31,28,26
53,150,329,75,39,27,26,26
56,149,322,75,40,28,24,26
54,145,293,62,39,29,26,28
52,162,382,64,38,29,23,27
52,159,362,60,38,30,26,29
48,154,381,61,40,33,28,30
48,161,408,64,43,34,28,28
45,137,375,56,40,32,31,30
41,135,287,47,40,32,35,30
39,165,375,61,42,31,31,27
44,167,387,59,39,30,32,27
41,169,402,55,36,29,33,26
44,172,408,54,33,31,30,25
47,151,392,53,32,33,27,23
46,111,331,43,29,33,29,23
45,113,330,50,32,31,30,22
44,110,298,48,31,30,29,25
41,116,291,53,36,29,31,29
39,120,312,53,35,24,30,29
40,125,269,47,34,24,27,29
44,118,247,41,31,23,24,30
44,114,218,46,34,27,30,27
43,114,237,42,30,26,27,21
46,133,222,49,33,27,29,22
52,136,223,50,35,26,28,24
47,135,207,49,36,34,34,26
48,153,254,57,37,33,30,27
50,165,299,92,47,36,31,29
56,166,315,94,48,39,30,31
55,164,333,95,46,38,32,31
72,164,336,96,46,34,26,29
73,142,296,90,43,34,28,30
77,133,281,63,35,33,27,30
72,120,285,55,34,31,31,28
78,127,323,59,36,31,30,30
64,120,320,59,36,31,31,29
63,120,321,57,36,29,30,27
62,127,296,47,32,32,30,27
60,131,323,57,36,32,26,25
51,159,272,50,32,33,28,26
46,161,289,50,32,30,29,24
45,163,284,52,32,30,27,25
38,151,296,53,32,24,25,26
38,165,310,55,32,23,31,27
34,128,300,56,34,22,28,25
36,128,276,57,36,24,27,26
49,159,400,66,36,26,29,28
53,169,388,65,37,28,29,26
54,162,397,64,31,27,22,25
54,161,416,70,32,28,23,23
61,166,426,69,30,26,23,25
52,142,333,61,28,27,22,24
50,132,339,65,30,26,24,24
52,124,288,56,33,29,24,24
53,125,256,46,32,29,25,25
43,118,245,48,33,30,24,23
44,112,244,53,34,26,23,25
43,116,222,50,34,32,23,26
45,133,218,49,32,29,23,26
44,133,217,49,30,30,21,26
47,151,249,48,30,30,21,26
45,154,255,44,34,31,23,25
45,150,266,42,34,26,19,25
38,122,270,48,36,26,21,26
39,119,272,50,37,23,24,29
35,116,312,51,35,22,24,28
37,135,318,51,33,21,25,28
42,159,378,58,33,21,27,28
43,174,384,58,32,24,32,28
46,176,388,58,34,24,30,27
49,167,360,58,36,25,32,27
51,151,353,58,33,24,31,28
51,124,287,50,30,22,30,26
70,108,263,48,31,19,24,32
71,117,285,49,29,18,24,32
74,130,305,49,28,20,22,33
73,132,285,46,37,23,22,31
70,131,272,48,39,25,26,32
52,128,305,49,38,25,28,25
53,123,294,46,39,28,29,27
47,105,264,50,40,28,30,26
46,120,282,54,34,26,31,25
45,118,293,55,35,25,27,26
43,111,248,53,33,26,25,26
37,103,234,52,32,25,23,24
57,136,244,48,30,24,23,29
60,133,242,42,29,23,25,30
61,154,291,46,27,24,26,30
66,175,306,46,31,25,29,29
72,183,315,49,35,24,29,30
59,181,349,55,35,25,28,24
57,173,339,60,39,27,28,23
54,155,310,59,40,27,27,22
50,170,326,61,38,25,24,22
68,182,350,60,35,28,25,27
69,171,290,56,36,26,23,27
68,186,304,52,33,24,22,26
71,196,304,50,32,22,23,26
71,176,314,47,33,22,23,27
45,158,287,46,33,19,22,22
52,158,299,44,32,19,25,24
54,163,333,47,32,20,24,23
52,154,335,48,32,21,24,24
68,147,298,46,28,22,28,29
67,152,335,47,28,23,29,28
63,142,324,49,31,23,25,29
63,118,322,46,32,24,27,29
62,128,360,51,32,26,29,28
44,129,354,52,33,25,25,23
48,129,328,56,36,26,25,22
44,134,362,57,35,27,29,20
42,139,334,56,37,27,29,23
44,123,274,50,37,24,27,26
46,116,269,48,37,26,25,27
46,121,292,48,36,24,29,28
54,127,252,43,32,24,26,28
56,136,272,44,32,23,26,27
54,148,269,43,32,24,29,25
54,161,274,44,34,25,29,25
51,171,315,40,37,26,25,25
47,164,312,42,39,26,26,26
45,145,272,38,36,26,24,26
50,138,285,38,36,28,23,27
47,131,291,41,36,27,24,27
52,99,218,36,32,26,27,29
51,103,227,37,39,28,25,26
50,107,222,35,38,27,24,26
57,105,216,37,37,28,27,39
75,126,272,39,37,27,28,63
95,150,262,41,40,28,33,87
101,201,309,45,35,26,35,92
102,203,317,49,38,31,41,94
98,204,326,50,38,30,40,90
89,234,351,52,38,30,42,76
65,234,376,60,39,34,40,48
59,198,339,58,41,35,41,42
63,215,386,62,41,33,38,47
66,257,376,62,44,33,39,47
88,227,311,57,45,38,42,84
93,242,320,50,43,33,39,88
90,244,318,48,40,35,42,86
86,248,278,43,41,38,43,83
92,249,320,46,40,49,47,91
79,282,329,57,50,72,55,95
112,290,290,56,55,82,77,106
122,309,288,64,56,85,105,113
126,361,337,67,56,87,113,113
123,353,291,65,54,83,112,108
118,330,277,61,48,63,111,80
89,312,279,66,42,51,99,74
99,291,277,60,40,50,68,125
148,235,214,64,40,46,53,135
150,264,277,70,43,45,68,138
157,259,281,71,42,48,77,139
157,284,305,68,42,53,78,132
147,289,305,70,43,48,76,87
96,271,298,68,43,47,77,85
95,254,256,68,43,46,63,82
126,342,295,67,47,43,53,114
133,342,318,69,47,38,55,116
130,365,358,71,48,39,58,111
131,415,356,69,48,40,58,100
129,413,347,63,45,40,57,111
106,354,311,59,40,41,54,110
94,364,266,53,39,40,50,110
106,349,242,54,35,38,45,112
103,292,240,52,34,37,42,111
106,347,291,56,38,38,45,104
99,367,336,61,40,32,39,82
100,338,323,64,41,42,55,84
90,367,305,57,40,43,60,78
85,363,310,54,39,50,68,80
77,333,275,48,37,50,66,74
64,325,250,40,32,50,64,60
61,314,269,37,36,45,52,52
66,291,273,37,39,46,47,52
65,293,269,41,41,36,34,49
69,241,266,46,39,36,35,47
66,218,248,48,40,36,35,38
64,233,265,54,41,31,29,35
61,223,250,51,40,28,30,35
61,223,238,50,38,27,29,36
61,250,243,46,37,26,29,38
61,237,230,46,38,26,29,39
71,234,203,40,34,27,30,40
63,210,252,47,34,27,29,38
67,210,245,46,34,27,30,38
63,198,243,47,37,27,30,36
62,237,308,49,36,29,32,35
55,244,354,55,38,31,33,35
56,238,321,50,36,29,31,37
53,226,360,51,37,30,31,38
56,213,346,52,36,30,29,41
59,186,338,52,37,31,28,42
54,174,285,45,34,29,25,40
58,181,285,47,35,29,27,39
56,194,280,45,33,28,27,39
55,181,297,49,35,28,30,33
61,165,256,48,35,26,28,35
60,154,270,47,35,26,28,34
60,177,310,46,34,27,28,39
66,181,299,49,39,27,28,38
66,173,287,43,35,25,30,39
59,186,270,41,36,25,28,37
65,200,270,41,38,26,28,36
67,185,233,40,37,30,28,37
68,174,212,38,36,31,31,38
75,200,263,39,37,31,26,40
75,190,304,40,34,31,26,40
75,241,295,40,36,32,30,40
73,237,314,41,37,30,28,34
69,239,304,45,36,29,25,35
68,304,361,56,40,31,32,34
68,306,352,57,41,31,32,35
61,275,368,59,37,28,54,37
68,289,367,59,39,29,67,38
67,298,376,57,37,29,73,37
62,252,306,47,33,30,76,34
69,284,283,46,30,28,77,35
74,281,279,46,33,29,66,33
78,275,253,44,33,29,54,36
75,261,284,45,32,28,75,34
78,231,317,50,36,36,122,43
77,201,355,53,38,39,126,44
73,192,360,53,37,41,126,43
61,175,358,54,36,41,126,40
64,168,335,54,38,43,115,43
56,181,305,49,37,35,62,40
45,217,344,50,33,32,53,37
46,211,334,49,34,29,47,39
50,219,340,57,39,34,101,46
51,237,376,59,40,32,100,47
55,236,366,62,38,33,102,44
61,233,299,63,41,33,104,43
60,237,361,69,45,33,106,41
65,232,364,62,41,30,66,39
67,220,342,60,39,32,87,41
65,211,339,56,39,30,86,39
62,169,357,52,36,32,83,39
62,166,326,46,35,32,84,41
56,169,329,47,38,31,86,37
53,172,308,46,39,29,84,40
52,173,364,56,42,32,82,46
54,165,338,54,42,30,85,47
64,171,366,57,37,31,95,48
65,178,358,58,35,27,86,47
65,172,365,58,34,33,106,47
74,179,313,53,30,35,128,48
72,177,339,56,31,37,131,50
65,176,309,47,33,38,125,49
63,183,394,52,34,42,128,51
65,188,427,61,35,37,100,45
65,176,446,61,37,37,98,40
68,210,477,68,36,37,92,36
76,208,465,72,34,38,97,38
75,225,452,71,35,37,103,38
72,225,445,69,38,37,99,36
64,223,429,67,37,39,98,37
61,189,391,61,39,37,97,47
47,181,369,56,39,38,101,46
50,154,338,55,37,37,92,46
57,154,313,51,36,45,161,56
60,141,310,51,35,40,154,58
59,144,327,50,33,46,169,60
63,147,380,52,35,47,166,60
66,133,375,52,36,46,167,60
60,127,358,50,36,40,124,56
56,147,384,54,41,48,144,54
53,180,439,58,41,43,130,44
52,177,394,59,39,41,129,42
49,203,406,61,38,47,166,49
46,211,416,60,37,48,154,45
59,216,422,58,32,42,129,46
61,200,357,56,34,41,125,43
65,199,379,55,34,40,124,53
66,170,333,51,34,34,64,47
64,169,347,60,35,29,55,45
59,160,297,66,39,33,92,46
57,146,276,61,37,33,91,46
48,153,297,61,37,31,93,35
44,150,330,67,38,32,94,34
47,156,318,57,36,34,94,34
43,149,327,49,31,29,50,27
44,161,368,73,43,31,47,28
46,181,403,89,61,38,36,32
50,196,484,110,73,44,36,37
61,194,501,122,79,46,37,38
121,209,501,124,79,45,35,43
135,261,511,116,75,43,43,44
166,281,576,116,61,40,68,43
180,335,554,104,49,36,71,42
177,340,561,101,43,32,71,43
147,330,566,102,48,33,73,42
140,301,543,106,51,38,98,49
108,272,422,101,53,35,97,55
88,208,357,99,55,37,98,54
89,198,314,93,52,37,101,55
81,197,347,93,48,37,103,51
74,205,420,102,45,34,81,46
60,216,449,104,50,41,84,41
69,220,444,104,45,38,82,40
94,260,438,101,52,40,111,43
106,264,434,122,65,41,111,42
103,246,431,121,68,45,119,43
105,236,408,114,64,39,107,38
98,228,435,116,69,40,105,37
72,175,468,136,104,38,70,31
52,177,544,119,103,38,72,36
48,152,487,112,102,46,82,37
46,162,495,127,124,54,80,36
41,150,472,125,126,53,80,36
49,186,467,115,102,57,91,39
59,219,360,118,101,56,88,35
60,232,379,119,101,47,75,35
62,222,345,109,82,50,81,38
65,245,405,119,76,63,84,42
61,242,429,124,67,60,73,39
53,223,443,138,65,62,80,39
56,228,410,134,78,62,91,43
65,233,451,143,77,68,88,46
59,197,402,145,96,76,89,46
56,172,376,137,99,78,87,46
56,170,374,126,100,81,103,49
56,152,426,144,93,82,112,51
42,148,399,142,90,72,113,46
42,156,416,128,77,59,124,49
41,146,417,127,86,54,125,50
44,122,411,130,86,51,109,47
41,117,389,110,81,52,78,41
43,104,391,98,78,54,99,43
44,119,405,113,80,48,81,38
43,134,384,116,76,62,86,74
44,165,360,111,76,63,85,76
47,177,365,118,76,59,95,76
45,185,429,136,86,70,84,78
44,188,426,134,83,81,102,79
46,188,479,135,78,80,105,48
45,173,506,135,73,83,126,95
44,176,535,153,84,85,118,97
47,208,550,148,82,81,127,98
50,204,558,136,72,71,116,99
50,203,529,129,68,63,112,99
49,193,504,125,67,60,93,60
47,178,453,87,61,68,104,61
49,153,415,95,62,75,106,61
49,142,349,99,62,89,104,57
48,149,368,119,72,91,117,60
54,149,401,123,79,90,114,52
58,159,411,143,77,99,119,49
54,140,349,125,69,94,129,45
56,212,398,126,70,89,132,51
63,239,377,117,69,92,122,88
58,251,377,133,68,96,124,89
55,256,396,120,73,100,114,89
74,293,432,125,74,106,123,89
69,248,444,136,82,118,121,90
65,219,470,147,83,129,118,54
66,213,505,140,91,146,134,57
77,334,731,240,114,151,148,98
64,313,735,246,116,172,120,102
72,338,733,245,120,172,140,113
93,376,763,246,122,175,156,176
95,381,746,249,115,163,143,183
100,309,511,172,99,166,134,187
99,321,584,173,106,152,133,191
98,294,629,182,101,148,123,189
83,258,660,178,98,135,118,163
84,305,669,173,104,153,134,162
65,287,706,178,113,164,132,149
63,262,665,202,116,165,133,165
63,294,787,281,151,202,148,236
61,279,724,298,189,272,191,250
63,217,748,325,208,271,183,253
70,225,785,324,212,274,186,267
84,293,792,326,224,277,184,280
93,274,608,254,203,249,179,243
103,296,651,242,176,185,154,213
103,320,644,218,159,192,150,209
105,319,569,206,186,205,156,201
100,310,596,193,174,196,177,163
92,306,650,197,177,207,173,133
92,383,664,203,185,232,155,147
106,456,760,202,202,236,163,184
115,455,752,198,173,234,180,228
112,489,756,187,164,231,165,235
127,567,828,243,174,234,161,237
132,560,807,262,182,220,162,226
135,564,775,320,187,220,166,199
131,568,793,334,207,268,176,207
130,517,798,331,208,292,224,224
116,459,708,292,196,290,220,222
104,479,737,291,210,314,214,229
85,398,723,233,199,336,209,225
77,376,718,212,169,282,175,180
82,401,738,236,173,260,100,148
81,433,824,280,181,252,107,145
77,356,791,247,165,258,121,130
80,407,746,236,158,270,164,126
80,428,736,246,158,283,168,69
77,423,709,250,163,289,170,65
84,418,584,198,159,290,163,59
79,409,552,199,156,301,174,83
74,342,526,203,145,256,129,83
70,343,550,201,144,238,124,83
66,330,577,174,138,240,125,83
53,267,605,169,131,245,126,80
59,269,609,169,99,185,122,61
59,305,648,157,98,204,135,68
73,434,681,163,109,195,134,69
75,463,640,158,106,211,129,67
74,461,640,166,116,271,132,67
69,472,634,161,121,264,122,62
73,481,628,151,138,258,109,64
65,373,621,157,131,264,114,80
61,316,606,146,129,245,110,82
66,333,639,156,137,191,113,86
74,364,735,175,131,197,128,87
75,381,748,181,118,186,128,96
92,431,777,186,136,205,163,145
95,462,797,190,135,206,170,148
109,549,860,238,131,196,171,150
119,617,824,237,134,202,155,154
119,592,773,238,139,214,156,157
106,544,713,218,122,219,139,153
111,553,676,217,124,225,145,162
100,532,540,165,127,223,153,161
81,424,564,189,129,206,146,157
83,424,544,185,123,209,182,149
81,441,519,184,123,190,175,95
82,456,573,189,125,178,167,85
75,399,614,205,117,164,156,81
79,408,542,168,128,202,159,78
79,420,559,168,122,196,152,74
80,418,589,177,118,182,142,73
85,443,607,200,125,190,145,54
91,439,581,210,122,188,143,50
89,420,553,212,111,182,137,47
85,399,586,226,135,238,98,80
82,381,557,226,144,247,95,81
70,331,546,196,136,246,88,82
64,295,525,153,131,247,84,83
57,276,538,147,124,227,82,83
58,281,503,130,98,152,75,47
69,329,575,124,83,138,89,48
69,294,472,127,84,131,98,48
70,305,458,113,81,136,98,47
69,307,435,110,77,173,112,52
65,295,417,101,71,169,111,46
58,258,330,95,76,168,102,41
59,254,351,105,71,166,95,40
54,212,342,107,69,168,98,39
58,213,383,109,72,149,86,33
59,212,393,111,74,154,89,35
59,232,393,110,75,154,98,42
54,216,440,89,72,153,92,41
60,246,458,94,73,150,93,39
58,242,441,96,67,126,92,44
65,268,477,107,77,110,87,42
63,231,503,125,71,102,118,46
67,254,472,138,77,105,123,47
63,232,459,140,80,110,127,53
81,259,538,149,89,106,180,71
81,258,507,140,77,108,179,74
83,287,535,153,76,109,152,73
89,298,540,147,69,101,151,74
93,292,521,144,66,89,184,113
78,269,445,137,52,92,131,116
76,257,478,142,54,88,130,117
70,217,424,107,48,87,127,115
57,171,436,107,51,95,130,116
49,177,472,111,49,112,116,75
47,174,475,104,59,155,118,51
45,189,422,95,61,159,116,46
48,246,469,141,68,164,125,46
49,260,529,145,67,162,123,42
51,268,538,153,69,152,82,44
53,271,564,161,64,96,104,61
58,321,596,165,63,91,117,84
59,304,618,145,62,83,112,87
65,285,523,139,64,78,108,89
63,286,484,121,60,77,111,88
78,314,487,125,60,82,96,76
73,245,510,139,60,74,108,54
79,227,525,154,66,72,114,50
85,303,560,180,75,90,144,94
89,297,564,185,81,93,150,120
76,271,542,183,81,103,152,129
77,271,522,171,81,108,138,132
80,329,478,163,84,112,133,133
68,271,469,136,72,99,99,104
63,269,467,138,73,110,116,79
64,280,453,128,68,104,110,66
63,273,439,128,69,104,106,106
51,233,449,103,54,101,102,106
51,258,482,118,63,103,131,108
53,261,516,115,55,85,114,106
51,248,508,124,62,75,115,103
57,293,514,123,63,74,116,52
60,297,469,135,72,74,115,50
70,313,431,117,71,73,101,50
69,308,386,114,73,79,88,51
74,314,382,104,71,104,110,55
73,293,390,107,72,103,108,54
76,287,436,97,65,105,110,52
71,275,526,118,59,110,114,52
76,284,570,123,60,112,134,50
74,281,587,124,57,91,114,45
73,297,569,128,59,90,114,46
69,311,515,136,62,91,121,50
65,289,457,124,63,89,116,47
62,275,394,129,66,86,109,57
62,278,418,136,67,80,112,71
61,264,410,134,63,78,111,74
57,224,442,126,54,70,101,72
56,207,399,129,54,73,106,73
61,218,421,124,49,68,106,65
61,204,404,119,48,67,102,53
55,183,444,130,54,65,102,48
57,213,433,126,55,66,102,45
53,210,509,129,53,65,83,41
48,205,514,136,54,85,63,34
47,211,521,148,60,88,79,35
49,213,536,152,60,94,79,37
50,198,555,174,67,95,80,41
55,251,519,167,68,94,94,45
53,250,509,160,64,75,93,49
52,252,498,148,59,71,78,42
49,239,440,122,50,64,77,40
50,230,466,97,43,63,81,41
47,170,421,89,42,58,71,37
56,177,407,85,42,58,108,41
60,161,393,91,43,58,107,47
65,166,390,93,44,69,110,48
59,134,284,77,47,69,107,45
59,137,288,89,49,78,102,45
51,132,295,90,52,70,85,39
47,156,297,80,51,71,103,44
42,178,321,83,49,61,100,44
45,177,331,81,45,59,103,45
47,179,387,79,55,60,103,45
46,170,371,84,56,59,82,44
45,164,366,95,60,56,58,35
46,132,338,96,62,63,73,38
43,146,351,105,74,70,68,37
42,151,340,116,71,73,82,37
38,154,356,121,70,74,89,60
42,156,375,122,69,81,109,69
42,157,397,126,67,87,130,74
47,164,411,122,65,83,136,77
47,206,391,116,60,75,129,79
48,201,382,103,57,75,128,62
44,193,352,96,55,66,122,54
52,248,345,104,61,52,102,50
56,262,321,103,50,53,115,57
58,225,324,105,54,87,117,113
63,230,333,111,78,212,123,179
65,247,465,122,94,232,122,191
55,192,473,121,93,234,114,198
52,213,532,133,97,236,97,197
52,244,567,133,99,231,87,174
49,254,583,141,86,130,71,109
51,243,533,142,73,91,50,84
57,270,600,175,86,87,51,63
60,262,597,186,96,81,42,56
60,275,592,196,105,63,44,47
80,451,768,234,109,52,45,37
95,589,882,299,131,56,57,38
99,598,887,311,138,51,73,41
98,618,956,347,139,50,90,47
113,682,1018,413,149,49,93,48
110,632,1053,467,165,59,97,49
108,591,1003,485,182,67,97,49
133,699,1056,517,187,77,99,47
141,684,1071,545,199,80,90,41
133,650,1103,500,193,80,101,46
128,613,991,438,186,75,113,79
124,567,984,427,172,66,112,81
115,501,936,449,186,69,111,82
110,522,851,387,174,68,119,84
115,505,732,392,173,69,118,84
118,530,789,410,170,71,113,95
118,512,763,376,164,74,121,107
97,438,766,289,132,67,119,118
109,548,844,299,148,76,123,132
104,528,840,284,144,82,123,147
102,496,830,343,166,85,118,133
97,483,828,332,161,84,115,139
97,477,857,379,176,119,143,140
75,301,792,381,161,125,163,154
72,276,788,392,168,121,156,149
78,299,720,340,147,134,175,163
79,330,699,328,147,151,194,159
77,323,584,323,156,149,216,193
84,339,537,304,161,203,215,208
86,342,604,322,155,208,242,235
73,301,629,306,147,207,232,238
71,319,714,344,150,195,218,239
90,440,814,285,112,197,187,220
92,423,807,292,97,146,180,254
96,431,781,352,138,164,176,242
100,441,780,350,141,158,175,239
98,398,698,315,135,158,168,240
86,248,580,307,137,154,196,248
77,232,576,303,139,152,193,189
66,203,603,211,106,126,164,169
61,243,595,217,122,121,162,159
78,313,641,238,125,121,166,154
74,314,635,248,134,114,129,152
75,317,642,244,145,98,110,166
80,349,678,228,137,94,104,163
84,317,644,206,119,90,104,167
70,295,597,218,120,89,96,163
70,294,639,244,126,59,97,186
70,286,626,248,109,63,96,189
84,381,543,261,113,63,98,186
84,381,511,262,114,67,100,178
101,420,530,235,109,66,122,204
111,460,528,202,95,66,118,161
111,467,548,204,99,64,119,136
110,383,535,219,116,62,123,148
108,386,573,229,118,63,121,148
97,321,619,225,116,73,104,109
90,320,696,223,113,74,87,106
90,324,666,207,112,75,111,151
75,320,657,200,98,77,103,142
80,376,662,195,103,83,129,151
75,362,595,191,98,86,131,177
66,323,474,213,113,84,164,182
70,344,515,221,111,88,161,153
81,358,485,191,96,93,170,194
73,294,428,181,86,99,155,186
87,319,501,199,107,99,168,171
88,311,459,205,112,99,172,179
81,286,456,235,117,115,169,172
77,320,455,247,138,136,174,127
83,363,472,252,143,127,176,143
68,343,428,259,135,125,163,172
75,361,432,232,117,139,136,165
83,379,392,205,148,237,139,171
77,321,422,199,134,250,129,209
92,449,536,249,157,259,125,199
97,475,489,230,153,269,170,192
95,476,623,254,187,319,175,213
91,461,622,244,163,266,169,216
92,462,688,248,163,245,170,186
80,357,608,195,153,261,167,185
86,351,701,200,155,255,123,195
78,333,639,164,112,188,119,194
89,331,638,166,122,169,138,212
90,343,590,158,138,172,142,235
87,273,579,157,127,133,141,246
78,245,483,174,138,133,144,221
80,230,410,184,145,129,129,198
67,242,433,191,136,142,117,171
73,252,375,188,119,130,115,133
75,313,398,177,113,130,114,107
78,351,389,142,125,208,106,102
81,360,378,127,143,297,153,152
79,358,348,111,141,301,159,172
71,330,324,76,135,308,157,167
64,286,310,87,141,309,163,183
68,241,343,91,117,266,185,201
74,260,445,135,93,182,159,165
73,245,451,145,94,164,140,166
79,262,472,164,103,157,137,169
92,300,555,217,117,162,136,159
89,286,513,218,113,154,108,133
80,249,421,195,115,177,112,166
82,251,416,191,119,186,128,180
99,293,442,208,125,181,142,181
91,297,382,177,110,178,137,176
97,317,383,174,114,183,133,185
107,370,412,186,109,159,116,151
105,379,425,199,122,139,133,121
85,340,398,177,114,141,125,115
77,301,400,166,115,137,126,117
62,277,415,169,123,159,130,123
53,241,412,163,127,139,137,140
78,347,440,162,115,139,109,132
87,406,498,152,110,148,95,133
93,410,462,143,111,164,94,152
93,412,517,175,106,134,109,140
95,429,579,178,97,125,115,124
82,368,586,211,119,121,115,115
79,323,527,210,122,113,125,165
73,305,506,202,119,117,130,154
75,313,442,188,111,116,117,163
70,262,376,185,117,119,99,180
69,226,349,144,88,121,155,224
61,215,403,174,109,133,155,208
75,243,402,185,113,114,157,207
82,214,387,174,115,116,161,205
82,238,371,167,108,113,177,193
89,330,426,172,112,112,147,148
88,313,376,141,87,96,138,123
76,295,383,126,77,100,129,137
66,307,391,123,81,97,145,141
66,306,418,129,86,106,137,138
60,250,416,112,90,104,131,130
63,253,433,118,98,104,135,167
68,272,479,143,106,95,147,155
72,278,501,147,101,91,123,139
72,271,476,168,107,111,128,139
69,277,433,168,116,114,130,145
71,301,456,177,114,114,129,107
67,285,399,191,129,112,140,107
66,284,368,196,136,109,137,110
70,287,371,178,133,79,126,144
67,271,338,173,130,97,126,148
61,255,296,168,146,95,145,164
76,327,405,134,133,100,138,186
78,327,416,155,126,98,144,191
77,350,427,150,125,103,159,171
75,336,463,157,113,94,150,165
74,330,465,151,92,90,139,155
62,296,473,146,83,86,124,129
59,308,513,106,94,98,123,130
59,303,536,126,87,90,106,149
58,295,493,123,87,97,104,152
59,285,474,133,89,114,96,159
53,265,387,139,104,121,117,168
61,288,438,154,97,123,120,169
61,278,428,141,96,140,131,161
60,278,459,151,102,161,206,206
60,290,463,136,97,172,231,213
64,302,521,139,80,189,243,230
59,275,534,134,80,195,242,230
69,335,582,164,99,225,256,244
71,356,698,252,113,213,209,213
70,348,709,258,111,205,194,227
70,327,679,256,121,195,201,240
77,358,642,252,124,190,215,240
67,298,664,245,113,141,191,221
68,276,560,142,92,175,195,221
68,276,548,152,100,177,194,232
72,322,620,179,92,169,168,206
80,380,712,207,99,164,147,207
82,376,681,216,97,167,148,200
80,370,672,219,101,161,142,219
79,371,681,217,97,166,172,187
84,404,683,196,94,166,173,172
73,361,646,174,95,166,174,170
71,350,586,143,95,174,171,178
73,352,571,136,91,162,194,157
75,362,561,133,97,151,179,155
73,333,588,171,108,148,169,153
73,328,582,170,102,152,171,147
71,347,656,208,111,200,195,169
67,359,701,225,125,207,172,155
66,359,761,223,132,214,171,167
85,434,767,233,126,214,178,162
78,400,697,227,122,213,179,160
78,382,624,193,113,192,171,185
92,432,629,224,131,171,161,193
99,444,584,222,123,154,128,166
91,384,476,191,119,157,140,170
92,377,465,195,138,282,179,212
93,379,470,195,140,267,180,220
80,306,444,143,110,263,180,230
97,468,485,162,120,268,190,233
87,453,519,143,117,266,192,238
84,456,528,133,105,227,219,249
81,458,549,133,113,224,208,204
81,471,599,152,111,219,209,180
60,347,594,144,103,217,206,177
62,316,548,155,104,241,196,171
60,300,532,161,89,156,128,98
67,301,591,194,93,148,131,108
74,337,569,182,105,148,130,110
66,271,518,173,106,164,142,110
62,268,551,177,112,176,138,107
67,286,576,179,116,177,128,115
62,304,556,162,105,173,113,114
58,276,580,194,101,175,131,117
60,275,587,196,90,162,135,123
56,261,623,193,80,138,156,134
55,283,684,208,90,144,156,130
53,265,670,229,106,152,160,120
55,224,614,215,105,150,147,118
56,220,604,216,108,149,127,143
57,218,529,216,118,144,100,171
55,178,422,196,109,125,103,167
64,273,507,153,93,121,104,166
59,273,471,123,87,123,100,167
58,281,488,117,89,118,110,174
60,278,473,108,77,92,105,168
63,278,507,115,72,95,100,166
58,205,372,124,79,89,94,165
61,249,441,166,81,91,92,163
59,254,429,168,82,95,82,154
63,263,515,204,89,100,100,127
66,282,551,205,90,101,105,126
64,319,619,205,88,105,109,139
62,359,609,185,112,108,128,165
65,375,655,187,110,120,158,146
60,371,611,148,103,107,145,138
53,364,578,152,111,114,146,159
55,328,502,149,115,112,146,151
56,272,498,139,92,117,131,118
58,269,487,132,94,98,87,118
58,264,472,141,99,104,102,145
62,264,539,158,99,95,101,151
61,288,590,156,90,97,104,148
58,286,564,171,94,87,103,166
50,270,584,174,95,99,156,171
57,304,613,171,93,111,160,152
56,316,678,156,88,109,160,120
66,312,662,181,100,112,159,168
66,314,703,172,96,112,158,164
66,303,648,165,96,133,115,155
65,278,621,159,101,138,115,162
65,252,547,163,102,138,110,165
54,235,525,142,89,135,120,136
58,257,496,132,86,148,148,144
61,263,518,138,78,139,158,147
61,272,564,140,65,131,175,175
57,289,530,138,67,128,180,174
62,282,553,131,67,131,187,213
58,255,582,136,80,155,168,200
63,289,579,136,81,157,165,216
61,317,621,138,81,168,157,193
61,315,657,131,76,179,165,198
56,327,690,132,83,179,164,175
60,315,665,126,66,155,213,193
53,276,659,122,68,163,246,184
51,228,626,137,74,153,243,183
64,248,571,132,76,151,241,177
71,311,524,148,74,149,236,142
71,321,505,153,81,176,210,120
71,324,513,156,89,176,178,133
71,329,528,148,85,170,162,127
62,301,504,148,80,167,155,134
53,205,491,126,72,167,151,133
47,181,523,122,64,131,130,161
48,198,543,118,48,98,129,142
49,194,523,136,60,95,127,145
51,204,562,130,61,85,151,153
49,215,582,139,66,113,165,158
49,216,551,135,73,121,179,145
48,200,508,137,72,145,167,135
54,220,530,123,71,148,193,143
46,200,473,123,72,152,179,133
54,185,435,133,79,148,193,157
55,191,500,165,81,140,185,186
57,192,500,158,86,117,190,210
50,158,420,159,79,109,170,202
55,218,448,168,85,130,186,206
51,232,445,154,85,108,157,186
48,236,444,124,90,103,149,147
48,240,434,134,87,99,152,146
63,330,466,122,91,113,148,153
61,296,430,114,86,100,139,153
58,291,466,113,83,122,155,159
61,288,415,115,71,121,153,154
65,290,527,128,84,164,155,153
65,308,559,122,78,164,164,150
67,322,571,124,76,160,153,138
67,320,563,123,70,147,136,137
66,319,532,120,72,152,148,155
64,321,519,135,64,106,126,150
62,220,490,135,62,99,158,162
62,203,491,133,62,97,159,169
61,206,477,137,77,95,157,160
64,190,488,140,74,115,151,144
67,200,438,114,67,114,168,115
53,175,423,121,84,115,124,107
52,179,418,117,85,118,125,126
52,201,458,113,77,122,135,131
55,244,457,117,86,96,128,124
49,226,401,126,95,94,111,132
50,259,446,127,85,86,124,133
51,252,458,133,88,112,132,109
48,223,429,131,89,107,120,103
40,175,447,126,84,108,118,135
42,170,511,114,78,109,113,155
44,105,436,103,74,114,112,147
42,92,409,95,82,110,112,173
44,106,379,109,85,110,114,181
45,166,498,125,84,110,112,162
43,178,450,116,89,110,118,145
40,185,461,121,89,102,106,142
47,262,518,126,80,85,93,116
53,280,548,141,74,90,101,115
56,304,425,128,78,88,104,109
56,308,463,134,69,85,108,123
55,309,457,133,68,87,118,122
62,329,397,127,70,66,118,110
61,351,353,93,65,52,107,97
59,313,350,81,52,54,140,104
58,307,266,76,49,52,138,82
63,339,383,93,51,66,125,75
58,299,403,97,52,67,135,81
74,365,438,112,68,71,143,114
73,363,424,117,76,74,108,138
77,368,449,126,80,84,112,150
77,342,348,109,77,78,135,161
72,326,337,109,72,74,133,160
59,266,375,94,58,72,127,143
59,264,375,88,53,67,128,138
58,254,364,86,58,67,161,135
54,252,380,91,60,65,149,126
54,274,401,93,62,61,141,123
49,215,355,93,61,62,142,127
59,296,384,106,86,62,147,119
58,311,412,105,87,61,102,103
58,307,427,108,86,65,101,113
57,278,408,106,85,70,99,114
56,289,395,107,86,69,108,140
45,204,363,99,64,69,105,139
45,184,326,105,73,62,101,142
44,180,307,103,72,62,115,158
42,176,293,106,74,60,119,161
65,292,348,106,75,61,109,138
67,305,353,99,68,58,103,124
67,302,346,87,60,52,101,119
66,309,335,88,78,44,119,142
69,333,422,112,90,44,127,174
51,223,378,109,89,41,124,182
50,207,394,114,93,42,128,184
48,222,467,116,88,42,136,209
48,208,455,111,76,48,108,174
53,203,394,86,66,63,92,142
50,193,409,86,80,66,93,125
48,195,406,90,85,74,103,132
49,186,320,81,83,88,99,101
48,191,336,77,79,86,92,93
40,141,299,68,74,83,99,88
35,131,295,75,65,80,99,87
39,122,271,63,52,75,104,90
39,142,283,71,60,56,101,100
41,139,279,78,76,67,101,106
39,150,298,79,77,59,122,116
38,151,270,79,79,61,121,121
43,151,298,93,86,59,104,110
41,132,345,99,81,59,103,90
41,137,339,99,72,45,99,84
43,127,325,99,69,51,85,101
47,138,373,105,66,51,116,106
38,143,348,97,62,54,120,109
44,141,313,86,61,56,129,116
52,153,340,91,65,54,132,135
52,167,373,90,73,57,120,113
51,155,327,77,74,67,122,107
51,138,324,90,78,67,121,101
49,138,296,91,78,67,119,107
43,145,292,90,76,69,116,106
45,162,281,104,80,68,121,113
44,183,315,106,82,64,121,143
46,191,332,88,73,60,123,146
44,189,343,90,74,58,120,151
40,166,328,83,70,55,126,142
41,149,320,63,65,44,121,137
39,130,284,69,60,34,132,109
42,142,307,73,60,41,163,117
42,139,351,90,61,42,174,105
47,151,371,107,84,44,177,119
43,140,397,113,80,43,186,146
46,151,384,109,77,49,174,152
44,139,404,112,77,46,141,165
44,138,359,97,75,49,132,171
48,152,366,82,52,54,119,163
57,165,376,85,52,58,121,173
54,151,395,90,56,57,106,169
52,148,365,95,56,63,107,148
56,149,375,92,58,62,118,197
49,125,337,89,54,60,121,195
46,156,297,94,54,56,113,177
51,162,324,97,52,59,114,197
51,164,312,92,51,52,117,207
49,176,347,93,49,61,95,152
50,178,378,95,45,58,105,165
49,148,434,102,50,59,107,165
46,144,404,98,49,53,104,137
46,143,402,96,53,74,114,126
44,142,410,104,58,74,124,146
45,192,615,131,61,73,114,156
39,193,644,125,59,73,105,143
36,191,664,121,63,84,122,156
34,197,723,132,63,72,119,154
38,194,698,130,58,67,129,154
41,181,549,110,54,67,132,128
50,206,538,111,55,68,136,145
51,211,533,115,58,54,114,127
53,207,460,108,61,47,108,135
52,203,512,104,63,51,84,158
52,217,635,134,75,55,100,158
48,219,619,129,74,54,91,143
48,224,627,135,73,77,92,145
49,226,666,136,72,102,110,152
48,241,687,142,80,102,114,125
44,219,571,112,79,111,97,122
40,214,583,118,80,126,100,120
41,207,560,110,78,117,168,139
41,199,525,117,76,102,156,129
41,192,513,116,69,103,157,115
45,175,543,144,71,97,160,118
48,146,481,132,65,91,175,156
45,139,470,133,74,87,110,149
45,150,565,145,86,78,109,171
52,162,562,150,90,78,134,192
52,175,524,120,80,70,133,196
48,166,522,125,82,64,115,179
50,172,534,126,71,68,136,191
68,200,466,141,77,70,136,188
67,180,392,132,74,62,109,171
64,158,351,130,74,70,126,171
65,158,385,130,76,69,137,180
65,149,380,128,85,77,128,161
47,121,351,97,71,78,129,145
44,115,355,93,66,78,128,140
47,152,367,91,66,72,111,143
52,175,354,91,66,61,105,135
54,186,363,94,59,46,96,133
56,189,341,83,57,42,102,122
53,193,354,89,57,41,97,111
50,231,396,92,58,49,112,122
51,230,363,90,65,62,122,133
68,279,351,121,72,75,144,156
65,271,373,116,78,78,137,157
67,268,351,121,86,82,158,180
68,222,308,124,91,83,185,177
61,218,440,131,86,75,172,159
46,167,606,152,87,62,168,158
47,181,636,170,85,58,171,169
49,201,720,183,84,65,159,149
51,197,741,182,77,68,121,165
52,181,710,189,82,71,122,168
49,178,631,165,73,71,99,162
58,202,711,174,72,73,92,178
58,191,651,155,65,65,93,183
58,196,622,153,65,58,89,158
58,200,590,150,68,57,91,172
56,195,571,139,67,59,91,155
45,158,474,117,63,55,101,121
39,148,459,117,62,50,101,135
37,138,471,132,68,60,90,148
38,147,492,132,74,69,98,130
44,173,475,129,76,76,122,154
49,182,455,125,82,95,129,175
56,203,572,154,88,102,164,161
59,206,617,145,86,104,167,168
64,246,626,142,75,103,188,229
64,227,620,148,73,104,181,246
61,216,607,149,65,99,183,263
57,213,508,122,59,94,149,271
62,232,459,126,65,85,145,262
68,253,536,141,74,80,110,210
71,268,539,137,74,103,154,182
75,270,519,130,75,115,149,164
73,255,527,136,84,118,147,151
69,276,524,138,83,118,154,148
57,227,441,113,80,115,174,172
47,206,445,116,79,98,129,173
44,199,421,112,76,78,128,145
44,220,449,125,67,70,127,139
44,239,470,130,72,71,134,151
42,228,475,136,65,84,122,136
41,222,440,128,63,85,119,137
43,223,440,137,70,89,114,142
50,218,372,126,76,99,142,159
54,155,328,148,92,107,129,149
54,150,253,136,93,113,131,147
58,146,278,143,96,114,130,145
61,155,349,149,96,109,126,142
58,157,355,147,98,121,103,121
53,161,384,114,83,120,122,138
68,209,414,133,91,118,116,132
66,220,406,125,88,115,126,118
64,225,434,113,83,116,123,111
66,239,473,104,71,113,119,148
64,224,462,107,80,117,95,130
47,184,545,106,78,109,79,118
52,176,553,108,82,124,101,140
50,160,543,104,82,142,105,154
43,134,596,123,95,146,111,130
55,223,653,131,86,138,118,130
61,245,632,127,78,137,140,151
55,244,624,125,77,120,113,156
58,250,584,143,101,134,123,148
60,244,528,131,89,120,130,158
62,226,460,131,87,122,124,158
60,226,464,135,90,119,123,167
62,225,456,140,92,132,154,158
58,214,464,124,71,102,166,170
58,234,459,131,73,95,157,155
46,180,432,118,65,91,155,153
60,191,342,129,69,91,142,138
64,217,342,123,67,82,144,151
66,225,319,119,63,81,118,151
66,212,275,108,59,80,117,155
66,219,382,121,63,85,119,175
50,187,463,128,75,86,122,162
45,158,509,146,84,77,83,133
46,162,581,155,87,84,85,154
48,157,634,167,88,85,90,164
51,187,731,202,98,98,99,146
51,188,711,181,87,104,97,149
52,211,781,205,79,164,142,157
50,204,744,202,79,178,162,137
51,222,744,198,79,180,161,122
55,238,718,180,77,175,159,120
54,229,748,200,79,177,161,113
56,217,670,161,76,131,134,123
57,217,705,167,72,144,137,133
55,206,717,165,79,150,137,133
71,202,699,168,85,150,133,131
77,219,694,165,88,159,162,146
75,212,676,166,89,165,190,135
72,204,626,162,89,136,181,120
71,214,588,168,87,129,182,115
51,161,539,147,74,128,187,118
45,142,460,140,68,116,173,135
45,142,476,157,72,107,164,135
45,146,507,155,72,114,162,124
47,134,472,147,71,113,159,123
43,161,474,154,70,110,155,139
38,157,490,144,75,98,152,130
43,157,462,122,69,109,138,133
42,155,450,120,69,112,132,135
41,141,480,119,67,120,140,143
41,116,450,111,75,121,140,125
48,140,450,109,72,126,144,126
46,149,447,110,69,111,126,137
48,155,461,106,69,92,132,135
50,223,540,122,68,92,127,135
53,238,514,113,56,91,128,136
46,223,500,114,54,86,104,126
54,227,593,135,60,82,116,138
55,241,673,175,71,78,104,140
58,202,666,175,74,62,104,132
57,185,647,169,72,60,130,141
57,184,640,167,67,64,144,140
50,174,568,156,64,66,134,115
61,198,481,116,52,65,151,109
58,186,420,101,47,63,147,111
64,199,424,113,49,65,120,109
65,206,451,124,52,66,113,103
62,209,437,135,64,65,108,95
55,170,414,135,68,64,111,93
51,153,343,136,68,68,116,93
41,158,404,129,71,70,115,103
43,179,384,115,70,68,105,114
47,183,391,102,62,71,115,113
48,178,381,109,60,71,94,117
53,190,418,109,55,72,121,141
52,172,365,117,64,67,128,132
51,142,350,115,68,68,136,137
51,153,356,105,66,65,136,136
51,158,395,119,63,63,138,150
46,149,354,107,65,59,114,140
52,180,389,104,51,58,116,136
54,183,395,104,47,52,130,143
57,177,393,106,48,49,132,153
54,173,344,84,49,46,124,138
53,176,421,88,54,49,122,124
49,156,376,77,60,65,130,124
47,150,364,89,72,75,113,144
43,170,375,92,77,76,101,131
47,184,381,84,78,78,98,134
49,178,325,95,79,79,102,141
49,160,373,112,81,66,121,169
46,157,377,104,70,57,115,128
45,126,353,101,64,51,119,131
40,112,358,110,66,48,121,128
38,103,353,105,61,47,112,122
38,105,314,100,61,53,90,103
36,111,310,101,61,49,103,112
35,118,319,104,60,50,107,115
33,101,281,88,55,59,118,119
36,103,237,88,58,57,121,139
38,121,250,87,51,57,122,122
39,127,301,88,50,59,113,117
40,129,283,84,47,57,107,117
40,138,315,85,55,50,96,114
40,153,335,83,55,49,116,126
41,146,308,75,55,43,97,127
42,146,333,75,53,40,101,126
47,159,360,80,59,42,98,142
47,155,332,99,63,38,100,142
45,135,345,97,64,42,91,135
40,127,357,102,66,43,114,142
39,126,301,97,66,46,121,146
35,95,284,95,61,42,123,129
35,98,305,90,57,47,143,151
38,111,295,92,54,47,143,131
40,123,298,84,49,48,133,127
43,143,302,85,50,49,122,118
42,157,303,86,52,52,135,113
44,162,314,71,45,53,122,107
43,170,354,72,44,49,117,113
44,165,342,71,44,51,117,108
39,152,327,70,49,48,115,109
44,163,376,75,51,46,108,119
43,157,363,84,57,42,111,112
41,149,372,94,57,43,106,104
39,143,372,97,73,40,97,103
41,133,379,99,74,44,119,108
33,141,439,142,77,47,110,117
33,141,448,155,80,58,112,137
36,149,532,165,82,57,111,139
36,149,556,171,76,58,118,137
37,157,563,169,76,54,100,140
38,145,526,137,72,54,108,141
38,156,546,117,62,47,101,109
38,179,517,95,60,50,107,105
41,201,550,91,56,49,108,126
41,215,556,95,49,50,106,120
40,205,506,86,48,52,114,99
40,197,473,83,49,47,103,98
41,177,373,79,46,44,98,103
43,167,321,74,49,50,111,82
58,188,340,104,68,50,112,109
59,186,343,107,74,48,120,114
60,186,356,111,77,46,133,135
58,175,356,129,86,47,141,132
54,171,302,126,89,41,124,128
40,146,384,116,81,42,120,110
39,149,403,126,79,40,92,105
39,145,387,125,77,40,96,97
41,166,387,104,70,36,91,98
40,169,447,107,60,36,91,100
40,148,343,89,53,32,91,95
46,158,358,94,58,35,94,111
46,157,355,95,59,38,99,104
45,141,416,104,56,40,93,110
48,142,376,100,54,39,91,107
49,152,403,103,56,39,90,105
49,143,368,92,47,36,129,109
47,145,388,100,41,36,123,100
49,137,316,89,40,36,125,102
49,138,317,100,53,37,130,106
50,135,314,108,61,41,137,123
49,157,321,101,59,38,104,110
53,160,302,91,69,43,112,115
52,164,328,114,82,55,114,108
53,176,333,103,73,55,123,124
47,172,322,99,66,54,121,108
43,167,336,99,66,54,119,109
39,166,349,96,57,52,106,108
39,162,353,74,53,41,104,108
36,145,329,84,62,42,89,97
36,138,334,78,60,42,82,98
35,117,314,77,64,44,87,91
46,157,373,105,72,42,94,87
50,164,366,107,64,49,93,90
49,153,387,105,70,53,118,128
50,173,501,150,75,56,119,127
53,195,554,157,72,56,121,160
42,192,608,176,71,59,135,159
41,189,597,174,73,59,140,180
39,199,641,183,80,63,126,148
40,193,611,156,82,65,139,163
38,180,586,160,86,71,144,139
37,155,516,132,81,72,127,143
40,159,537,146,100,72,127,118
44,183,491,137,94,76,122,150
44,178,428,131,89,72,121,136
48,182,422,117,87,70,126,130
50,181,409,106,88,63,125,128
43,182,375,84,69,61,138,132
40,171,401,77,61,57,137,104
41,177,423,82,63,64,140,105
37,184,520,112,68,65,129,103
39,187,510,122,81,70,140,142
45,185,553,128,84,69,122,132
44,159,512,128,83,66,125,126
42,151,592,152,87,62,115,124
40,127,509,138,84,58,120,127
42,122,497,138,95,62,120,112
44,172,511,149,91,62,119,123
47,193,524,148,89,57,112,128
48,199,429,118,82,56,140,126
47,198,414,111,80,56,156,141
46,210,461,115,68,54,151,117
55,223,462,101,66,54,151,128
59,226,480,103,68,59,158,127
61,214,435,107,70,57,130,128
63,221,426,107,74,61,136,145
64,223,386,91,58,58,146,164
54,170,310,100,64,63,162,147
50,150,324,110,69,61,155,143
50,152,437,132,68,60,153,155
48,141,432,131,70,91,122,132
43,120,453,132,67,105,129,111
48,130,538,128,59,119,126,110
47,141,547,126,52,120,128,108
50,153,557,106,54,138,134,90
49,162,603,117,48,121,143,76
51,156,598,118,46,114,129,103
46,161,532,110,43,121,126,112
46,213,623,115,57,123,131,113
45,248,593,110,58,105,129,112
45,257,590,102,59,102,121,109
44,263,649,119,67,95,110,70
46,275,655,119,68,61,90,53
44,235,527,111,65,51,80,47
48,207,554,132,74,46,74,45
49,207,539,135,73,46,66,39
50,209,479,129,70,45,79,92
48,181,473,136,72,41,91,110
48,190,545,131,69,40,95,118
40,221,503,110,61,39,103,120
43,214,476,107,63,37,112,127
43,215,448,93,59,42,124,121
43,214,432,90,61,47,119,113
49,213,348,101,63,50,119,114
51,236,308,106,59,51,112,115
48,238,313,100,59,48,110,111
48,234,302,102,66,47,75,82
46,238,285,94,59,46,130,146
38,227,275,83,55,43,132,143
33,151,276,74,56,43,137,146
32,151,291,86,66,46,132,147
33,145,331,94,63,41,133,159
32,128,332,91,64,39,116,128
33,129,339,95,61,42,129,137
