330,464,105,146,178,124,95,123
365,472,110,132,173,139,94,121
372,462,121,125,176,141,92,120
380,373,122,135,177,152,109,124
374,397,126,131,189,153,113,126
372,404,137,115,183,158,120,140
342,367,132,115,157,148,136,141
327,350,131,126,158,153,138,141
342,349,128,119,166,151,125,142
339,311,125,116,160,150,123,141
298,305,112,115,154,151,118,117
298,322,109,116,180,172,111,123
293,309,100,124,190,164,104,124
268,326,110,125,187,160,106,116
297,333,108,130,186,163,106,123
349,337,116,140,198,153,100,131
356,476,116,139,186,136,87,122
358,591,119,124,190,145,89,128
324,585,111,129,245,170,87,115
295,593,112,124,247,162,85,116
265,590,105,110,239,167,89,127
277,472,105,122,234,170,94,135
272,311,106,120,230,164,92,124
332,288,113,119,171,157,93,152
377,230,126,136,189,152,101,155
364,205,124,141,179,153,107,145
337,380,123,143,181,140,103,142
354,459,127,152,209,179,139,165
317,468,130,161,249,155,147,147
278,536,129,165,230,174,141,152
288,557,130,171,241,175,138,153
296,458,129,180,255,190,143,158
316,419,121,190,229,161,109,158
327,424,121,177,201,175,108,149
352,368,109,157,197,162,105,147
371,357,114,148,202,161,100,139
370,368,118,150,219,158,117,155
350,316,126,157,239,157,126,135
330,310,111,164,243,161,117,140
321,310,107,168,250,168,121,141
314,298,102,176,248,172,126,140
363,487,110,151,243,174,122,126
332,550,103,118,219,181,120,121
344,575,105,106,197,170,133,119
342,589,114,102,186,170,151,107
314,610,112,99,184,172,151,121
300,549,107,130,151,169,142,117
333,609,119,155,177,158,139,125
320,684,119,160,182,168,130,123
311,747,113,164,216,165,110,128
355,820,114,162,219,160,108,143
327,859,111,151,229,153,108,141
352,809,110,131,225,160,107,148
418,736,112,125,228,144,112,162
433,670,119,135,206,147,124,164
422,564,117,136,202,160,126,157
426,477,116,145,181,151,122,158
377,598,108,152,190,161,125,148
331,635,106,152,187,169,122,132
325,636,115,162,187,185,107,119
350,641,120,160,183,213,105,108
385,596,127,168,208,222,108,114
421,412,125,170,299,230,121,120
404,316,128,176,404,263,139,117
398,251,120,166,747,258,146,117
362,325,120,162,879,246,165,108
310,408,118,161,930,252,165,104
269,476,116,149,903,243,150,94
311,535,123,171,865,219,148,106
303,594,114,166,595,204,141,108
293,557,113,186,387,221,123,109
350,524,111,167,236,225,127,101
358,480,103,170,249,244,137,97
316,433,100,160,243,253,126,103
395,364,103,190,293,292,139,147
423,378,106,179,285,280,139,163
382,349,110,184,280,296,140,189
376,353,128,188,269,301,153,197
384,348,123,201,262,281,150,208
297,357,138,181,202,240,143,191
267,336,133,190,187,223,147,177
290,349,132,195,182,180,141,152
347,328,115,191,167,136,118,159
334,318,109,163,160,151,128,138
341,321,92,162,189,156,121,199
338,369,90,145,187,160,111,228
328,598,93,130,238,194,119,230
276,684,98,140,255,193,115,220
298,710,104,137,259,189,98,244
337,743,100,140,252,198,109,215
337,774,101,160,289,203,112,211
366,637,130,174,260,179,107,210
349,570,127,178,262,191,145,210
346,548,138,182,263,207,150,185
346,519,148,175,251,206,149,169
355,442,151,163,228,208,152,139
320,394,123,154,219,209,150,151
353,352,126,153,199,206,117,152
387,349,112,153,210,196,122,169
337,297,103,149,203,188,122,157
338,279,96,146,182,169,111,154
331,270,96,161,169,185,124,134
330,271,104,147,159,191,131,141
301,287,106,144,159,197,124,120
312,290,101,147,171,200,124,127
306,276,110,153,176,225,138,129
359,298,111,130,181,221,136,144
354,392,102,143,177,204,133,143
347,584,100,157,184,219,148,144
353,680,111,161,193,243,151,137
343,702,113,160,264,225,149,141
316,736,116,166,354,214,144,138
301,723,120,155,389,220,139,131
311,626,143,149,382,198,144,136
314,540,142,161,394,183,137,129
316,543,155,156,356,195,134,130
289,508,152,146,262,189,150,120
288,485,151,162,224,247,167,118
262,417,140,169,218,248,156,112
268,418,136,171,204,252,170,121
303,394,112,176,206,285,171,120
301,425,114,179,246,287,157,124
328,714,109,162,271,241,141,132
325,752,92,170,277,244,145,132
292,763,89,149,266,243,134,121
258,803,93,136,251,200,133,119
273,780,85,143,224,202,136,125
299,527,99,153,179,188,136,125
314,491,102,118,178,185,119,119
328,510,111,112,167,167,105,124
350,440,118,142,220,173,97,139
399,452,118,154,228,167,100,142
403,438,118,157,226,181,115,142
397,458,124,159,227,189,126,151
400,402,118,161,241,181,137,149
377,386,116,137,211,174,150,127
352,346,120,114,191,181,156,122
306,321,113,110,200,177,148,146
336,222,109,124,203,188,161,254
340,229,107,135,184,211,164,301
367,427,104,133,204,235,156,312
360,538,103,148,237,255,160,315
347,598,108,152,248,263,165,301
321,753,107,169,246,257,152,214
319,932,116,186,282,256,149,153
309,912,116,226,270,251,156,138
376,884,128,241,259,258,170,169
426,867,130,243,267,260,200,184
478,754,136,229,267,272,200,199
557,519,132,226,234,287,201,229
559,441,131,213,235,288,214,239
520,386,128,202,231,293,205,242
572,360,134,223,221,296,190,365
548,334,130,235,220,285,187,468
491,320,145,239,241,263,185,505
504,295,156,314,283,286,177,527
556,311,154,312,279,257,163,549
570,296,140,307,262,266,169,501
615,309,166,317,302,300,208,418
618,338,151,308,301,290,208,367
615,346,138,232,273,257,201,341
702,354,193,241,316,300,253,353
639,357,198,231,333,284,253,324
640,359,181,218,317,259,258,332
644,482,191,233,329,262,259,323
717,726,201,235,348,261,284,374
624,769,157,248,324,235,254,328
706,843,167,252,318,241,249,341
681,873,176,306,348,320,251,329
655,812,176,301,333,361,256,357
648,649,170,295,308,366,237,334
665,602,162,277,287,351,226,326
590,530,148,340,328,382,235,319
580,472,141,288,277,340,191,317
582,441,132,287,290,346,204,290
537,429,135,279,301,375,209,250
524,638,138,279,324,391,210,242
503,653,144,198,282,380,228,240
510,749,152,268,322,393,235,221
587,841,158,275,622,368,232,238
563,929,155,276,745,340,230,224
581,896,163,286,763,333,238,252
628,896,158,277,793,310,200,244
624,926,150,204,783,278,217,263
567,919,143,206,594,290,212,246
659,828,136,240,428,287,217,303
600,726,117,278,434,306,216,272
599,699,127,278,417,347,240,296
601,577,121,287,429,332,229,301
623,466,119,277,405,342,264,310
515,431,118,263,416,333,260,257
524,511,122,230,388,338,273,260
490,655,122,239,366,334,268,235
577,744,120,257,358,346,288,227
735,785,152,251,375,309,271,357
791,833,171,265,361,363,316,401
819,804,166,258,370,397,315,414
845,688,160,264,356,371,304,415
850,620,172,265,331,369,327,438
713,590,159,277,298,428,372,333
798,602,186,277,327,506,489,367
780,599,190,286,291,474,494,367
783,620,187,280,276,516,511,423
774,580,193,273,319,516,510,424
796,592,198,262,330,492,481,433
791,524,188,235,332,453,422,420
866,495,187,231,324,455,449,454
854,494,201,225,319,449,480,418
835,498,197,219,291,501,486,422
830,508,191,234,278,503,501,425
707,486,178,245,245,471,447,401
624,522,188,234,271,501,455,397
649,521,185,244,336,508,452,407
613,526,190,248,377,487,462,402
584,469,184,248,416,518,521,406
604,546,190,235,429,510,507,395
616,582,190,234,440,463,474,368
600,656,179,235,406,411,436,359
654,707,167,223,373,392,440,343
666,812,164,221,349,365,363,318
655,842,145,263,339,320,354,354
618,784,140,267,303,334,357,344
632,713,151,255,318,336,362,335
607,661,139,249,312,433,381,338
634,552,153,240,291,427,361,393
730,445,222,224,279,500,460,449
736,472,231,224,287,507,467,451
757,458,235,240,287,524,501,509
774,494,241,265,332,447,461,524
760,510,246,278,339,416,450,495
831,525,218,247,331,387,404,493
863,523,214,246,368,460,426,506
839,530,212,253,356,448,374,463
808,557,208,227,316,428,365,424
783,527,192,214,320,440,375,435
593,525,151,216,308,396,322,327
533,527,153,198,286,343,282,311
527,585,166,197,280,330,282,278
543,518,167,201,298,387,259,294
615,582,164,198,281,369,243,269
621,578,175,205,287,359,233,284
613,575,180,209,275,349,206,271
589,511,182,203,305,388,326,282
609,497,178,210,284,345,333,293
602,400,205,211,301,377,368,320
607,339,195,195,294,390,367,320
596,293,173,183,296,352,372,315
576,250,148,175,256,316,310,294
538,199,156,168,240,303,305,281
483,167,130,197,411,299,273,239
444,163,149,206,508,286,264,204
478,147,151,209,536,326,264,204
481,154,151,209,537,339,257,202
494,155,140,198,542,337,257,215
465,193,133,169,422,351,248,209
479,268,123,172,316,350,263,224
497,385,139,168,240,310,269,224
498,467,145,152,242,344,251,230
474,491,149,147,228,357,258,240
527,538,153,148,198,324,263,283
532,583,157,139,191,325,273,400
649,671,175,152,218,359,298,514
647,726,180,142,220,298,284,515
639,791,185,152,227,304,321,534
594,827,191,141,268,328,325,514
609,806,179,145,269,361,328,451
472,729,152,134,262,344,297,319
507,654,150,146,265,385,321,334
499,561,137,135,268,378,278,285
586,462,130,157,245,428,367,337
604,426,146,148,242,415,374,329
615,525,179,176,222,459,411,373
671,724,184,174,207,468,436,398
664,895,195,179,204,461,432,394
606,1002,202,164,221,405,356,360
600,1057,197,187,250,399,340,342
598,1020,182,156,272,368,324,337
543,899,172,158,266,331,288,310
548,738,168,163,268,329,314,327
583,584,150,159,260,315,327,335
601,461,145,155,235,333,334,353
618,404,127,163,235,342,317,308
664,353,138,181,238,340,309,285
685,486,163,172,240,364,292,276
690,544,162,194,223,387,292,315
650,609,161,192,238,381,304,361
615,613,162,197,226,357,297,381
547,613,154,173,216,345,274,384
535,524,134,172,224,313,286,384
533,479,146,154,240,295,287,350
545,423,159,154,227,263,255,280
556,380,163,139,218,242,234,249
705,387,198,148,231,340,347,344
699,466,196,160,215,367,342,334
775,608,215,169,206,360,357,399
754,701,205,154,186,376,361,409
825,728,210,162,229,392,375,459
731,769,197,173,223,337,308,399
760,711,193,189,268,314,316,415
753,597,212,187,276,365,335,410
774,472,214,201,287,349,338,405
756,427,231,221,273,375,393,435
715,311,235,214,317,386,398,424
680,303,228,191,282,387,381,409
660,241,223,196,303,380,412,417
641,213,234,201,301,411,408,408
635,256,221,198,294,385,371,392
648,410,213,197,248,383,373,401
669,530,215,232,247,376,374,414
548,607,174,220,208,322,285,332
602,713,197,233,226,339,307,352
495,718,177,219,217,312,268,257
450,658,169,216,238,365,262,246
561,623,202,217,242,415,280,289
580,558,200,213,231,444,282,295
608,460,175,250,213,469,359,365
645,447,180,264,220,476,363,377
638,427,169,264,258,413,328,369
594,434,199,308,287,458,412,365
593,432,206,320,287,436,419,371
499,412,202,277,299,433,352,283
589,426,231,283,317,458,395,392
624,617,231,279,272,452,399,399
638,688,208,251,278,366,308,440
671,747,220,247,306,380,356,467
679,762,219,253,317,320,340,468
635,761,219,242,312,329,326,435
617,666,228,245,306,338,319,428
516,551,198,190,264,345,319,341
621,552,213,175,247,340,276,360
629,576,211,158,213,323,272,356
593,558,182,158,210,272,242,300
589,506,168,154,210,273,255,296
640,508,170,155,224,238,236,310
512,529,131,184,242,249,223,224
618,493,121,184,247,249,219,243
663,551,128,181,226,250,215,223
655,553,129,191,234,273,221,224
613,528,129,197,261,291,219,223
619,403,133,194,245,294,215,219
550,349,138,191,257,306,269,225
472,226,130,219,322,351,293,235
495,175,138,224,342,358,295,242
516,151,133,238,327,361,299,243
513,141,132,217,315,344,298,263
490,137,140,220,306,360,253,244
466,112,142,200,244,338,235,242
464,136,134,188,257,327,237,255
558,433,128,163,261,337,253,257
676,522,130,182,281,353,257,298
691,632,111,192,277,354,273,338
733,685,114,205,321,352,254,337
783,750,116,227,342,346,255,369
788,678,158,233,382,337,247,373
722,652,171,222,367,378,296,352
702,569,174,209,378,394,313,319
682,532,190,183,365,418,352,346
620,441,192,184,316,434,350,315
568,401,165,210,277,446,345,295
588,368,163,206,288,423,307,297
603,361,161,206,270,391,285,292
738,363,159,226,246,429,342,358
841,380,165,228,265,417,363,414
810,419,165,215,229,414,406,418
752,720,149,220,218,398,402,409
851,799,164,223,215,426,452,462
735,839,153,192,190,340,393,411
693,877,147,165,163,321,371,400
732,904,153,167,173,290,339,408
774,781,154,182,171,266,328,403
646,791,155,179,193,233,255,346
712,825,145,180,215,311,276,360
649,840,152,178,227,323,271,304
708,790,161,168,254,367,319,317
709,687,161,168,267,367,324,309
691,588,147,180,250,377,349,308
657,446,160,208,267,366,351,264
697,294,168,208,274,378,362,256
639,247,151,219,241,362,330,272
657,245,156,226,239,360,336,292
658,185,155,224,280,386,328,280
631,437,148,221,281,385,313,290
622,580,130,230,293,379,323,322
729,687,156,226,316,410,350,342
738,718,159,219,351,433,374,337
784,750,167,210,322,421,364,344
778,685,160,211,314,399,367,332
767,591,155,205,298,429,372,309
612,479,128,193,294,419,334,245
595,469,122,174,252,424,367,292
552,439,111,171,250,391,367,286
580,373,123,152,236,414,361,282
655,384,129,154,219,371,338,320
706,397,141,139,191,353,355,362
674,382,156,165,202,339,288,318
682,387,173,187,207,331,275,329
714,474,163,174,195,334,261,343
671,722,188,169,200,401,330,368
644,761,192,182,245,510,355,325
602,768,177,175,236,523,357,321
664,784,167,167,234,529,350,376
593,745,167,170,249,490,354,366
575,535,161,164,251,463,300,314
611,523,155,156,228,396,241,315
640,502,153,140,237,408,285,355
557,478,149,116,227,399,290,283
632,538,147,123,216,434,297,286
592,500,109,131,222,490,325,273
556,433,94,143,225,432,325,282
540,429,95,158,195,412,299,248
539,445,99,164,219,441,331,257
512,396,92,187,220,439,332,269
489,387,99,188,216,370,311,270
489,430,113,198,219,402,310,272
502,443,131,225,241,411,297,296
560,453,148,234,229,476,360,348
535,457,155,219,233,488,376,336
648,478,174,241,247,493,399,349
663,472,177,241,247,463,396,380
714,483,169,215,254,461,450,387
698,496,161,202,261,406,417,381
675,501,160,204,245,375,425,386
704,535,151,180,256,362,397,430
669,521,146,171,266,441,433,395
683,521,142,155,250,435,399,389
699,483,142,166,246,433,394,409
747,458,149,156,258,443,387,429
684,416,146,149,230,458,426,371
665,404,156,153,225,446,427,370
585,458,159,164,243,488,450,354
556,454,163,171,235,495,429,291
542,467,157,187,238,495,428,265
530,499,153,209,239,491,450,286
592,517,138,199,202,430,420,361
584,490,129,195,174,362,379,358
555,500,120,178,196,398,377,359
586,487,116,174,184,381,353,377
554,542,122,154,193,379,284,371
631,555,143,154,193,390,286,333
636,526,151,170,252,428,336,323
661,548,140,182,261,379,332,310
638,551,148,177,264,387,345,286
718,458,138,193,248,382,324,292
682,483,137,197,271,388,356,281
674,510,137,212,224,344,302,283
669,536,147,218,201,313,310,303
614,525,141,217,204,379,321,305
498,513,144,198,218,367,325,300
427,505,131,192,213,428,351,304
433,497,124,152,209,462,367,308
425,479,116,133,217,474,359,289
479,493,119,137,204,424,337,294
470,505,119,150,203,412,338,271
514,489,120,152,183,345,278,259
516,487,118,151,176,290,240,242
483,451,126,166,163,276,237,230
445,467,128,150,172,260,244,213
476,478,124,144,160,269,236,229
442,457,115,154,178,240,237,200
471,449,126,185,186,260,236,216
478,468,122,181,197,241,253,236
468,456,110,196,190,258,292,240
448,479,123,195,231,363,366,239
398,493,122,193,250,397,363,238
382,490,123,170,249,399,382,243
414,471,124,172,245,404,367,230
426,447,147,160,250,378,325,207
411,433,145,172,215,276,241,204
456,423,158,165,208,257,223,203
422,454,146,158,209,256,197,180
403,484,142,147,196,272,205,203
436,498,132,142,235,350,276,248
442,488,129,133,273,351,301,262
494,514,120,138,252,337,306,277
530,487,122,162,260,324,320,292
533,462,136,166,273,348,358,286
487,451,124,169,241,272,316,244
638,500,176,160,266,431,455,370
589,485,176,145,261,428,452,364
588,577,183,118,249,424,450,351
658,605,232,121,284,419,440,386
662,632,237,122,289,428,439,395
528,596,209,133,255,288,285,280
498,575,206,133,260,305,289,269
477,495,208,144,263,316,305,297
409,473,139,142,222,367,307,265
494,474,145,158,223,397,307,295
471,475,127,196,217,384,286,273
464,504,128,211,246,382,292,276
465,530,114,211,248,370,265,245
426,542,127,208,249,340,240,231
357,545,123,203,245,349,301,177
371,544,132,163,235,375,314,178
373,507,128,160,229,362,315,170
380,510,127,182,235,387,332,177
389,511,115,174,240,338,315,175
359,512,106,163,236,278,245,175
432,529,111,155,227,225,225,207
467,602,135,155,222,236,238,214
468,618,151,141,227,262,243,218
448,594,146,153,211,265,246,197
612,602,171,177,229,372,342,298
594,620,166,183,228,379,349,296
610,579,154,185,208,416,359,325
658,558,174,177,183,408,357,340
676,566,200,181,250,454,427,369
571,552,206,158,257,397,392,307
637,535,237,156,280,476,455,339
590,503,235,137,284,462,441,309
574,514,224,164,306,484,475,344
623,488,214,154,263,465,478,365
586,479,191,168,250,469,475,365
486,469,156,177,246,423,433,320
491,487,165,180,274,414,442,330
462,412,154,178,255,373,401,277
448,469,145,222,246,365,349,222
492,456,149,244,257,353,328,220
473,462,150,248,252,380,315,229
532,501,145,300,293,387,319,223
529,513,144,311,306,377,317,233
482,503,143,282,315,369,308,235
537,509,143,264,291,356,311,247
634,540,150,273,304,347,338,343
677,502,148,245,255,325,338,344
701,508,150,247,252,349,367,346
738,509,146,265,253,342,357,369
759,519,146,255,256,475,455,365
725,476,126,262,244,494,440,300
665,464,113,270,285,535,436,312
665,462,105,276,282,522,413,305
628,463,106,268,283,550,449,262
528,485,88,292,300,482,396,251
593,514,100,270,293,428,401,281
592,554,119,253,235,400,381,258
550,559,125,232,223,478,422,266
558,536,129,231,247,499,398,283
569,526,136,212,244,463,342,282
502,503,142,209,243,478,348,273
523,454,132,194,252,479,354,297
520,437,131,216,254,475,342,297
494,430,148,210,225,481,381,307
476,388,149,207,239,495,378,298
453,437,165,235,246,493,365,296
430,468,160,228,233,469,361,273
465,490,177,212,267,402,352,280
567,491,173,217,264,346,331,327
581,491,180,218,254,343,353,339
568,445,163,201,270,353,389,308
540,411,165,201,275,376,400,344
520,409,153,184,245,452,409,342
431,394,148,175,240,446,386,275
415,386,152,178,262,442,387,268
426,356,146,176,239,414,362,269
504,395,179,180,228,408,375,240
513,403,186,181,254,336,343,211
477,437,181,190,273,304,328,205
463,502,177,200,243,353,358,200
490,499,192,189,236,364,341,177
456,549,161,184,243,366,348,151
412,515,145,239,241,351,348,159
421,486,146,250,249,366,362,163
581,447,240,240,298,442,498,392
599,449,231,248,289,428,489,406
569,368,236,289,287,434,518,422
594,417,242,243,269,436,526,432
620,488,250,231,244,452,538,446
492,484,159,228,195,340,382,281
478,489,165,226,206,370,416,304
514,480,163,171,206,343,347,287
502,461,159,163,197,332,333,273
463,423,144,173,207,380,347,251
466,429,132,162,182,372,337,236
381,461,117,179,182,356,292,183
338,468,115,179,201,364,294,159
348,463,117,173,200,393,332,177
336,460,118,168,201,355,311,184
373,451,127,182,208,382,326,196
399,428,130,158,208,383,335,194
376,467,131,160,193,373,341,199
346,507,139,178,203,344,294,179
351,495,134,162,185,296,260,174
277,529,126,169,230,258,237,166
344,556,125,160,230,300,281,190
410,515,133,158,235,303,275,214
415,506,132,166,251,354,355,235
435,494,144,187,281,408,408,286
444,485,152,181,247,418,427,301
403,434,153,184,244,377,404,279
394,431,149,230,267,375,409,281
411,422,158,232,269,425,418,261
471,442,165,217,251,393,381,216
466,395,166,216,248,391,391,188
443,443,161,221,247,388,387,193
475,463,162,192,229,421,414,192
494,419,142,193,206,348,364,206
438,419,127,189,205,354,397,185
447,442,156,182,214,361,406,208
459,425,158,196,218,361,407,213
391,503,165,176,205,381,417,202
416,531,177,150,221,407,444,247
416,517,170,152,205,383,401,243
418,487,136,162,210,368,381,240
395,465,133,151,214,363,372,231
503,383,164,174,216,348,340,272
455,382,157,190,197,323,307,223
537,382,157,199,199,347,308,249
606,401,179,233,249,493,407,350
629,431,190,234,246,501,411,360
575,481,153,213,297,478,401,333
582,493,158,206,336,514,417,352
494,528,180,204,333,537,471,340
462,509,168,172,321,396,374,232
436,465,157,173,315,386,371,222
553,490,173,196,273,413,398,325
558,447,166,195,249,331,365,319
601,475,167,227,359,375,309,352
566,485,158,222,350,402,326,366
607,507,171,254,372,435,343,382
453,427,161,256,417,435,373,282
460,476,173,268,440,460,391,264
456,436,155,266,364,386,373,219
468,436,165,265,348,406,369,222
456,429,181,238,325,405,386,214
534,485,201,234,301,509,442,342
520,467,195,223,249,499,430,351
531,447,211,183,249,555,503,366
529,449,206,183,251,535,495,346
520,473,202,179,263,540,499,355
453,449,173,181,243,450,426,252
432,426,172,171,250,470,417,237
379,456,157,168,245,507,453,218
348,507,159,168,240,508,488,233
331,489,138,163,225,528,486,198
320,446,146,151,188,528,485,195
353,512,143,147,169,521,519,206
330,516,130,158,179,406,426,198
346,523,142,158,214,447,400,177
364,511,152,164,261,450,406,230
355,539,156,169,267,447,415,225
369,533,149,184,273,436,365,237
393,494,154,195,272,464,365,234
385,436,148,188,269,433,377,244
404,455,150,187,249,375,352,213
466,441,165,173,263,434,346,228
447,408,167,156,256,449,351,212
472,467,165,151,261,433,348,228
571,487,170,163,274,473,376,245
597,521,158,159,273,508,387,238
561,509,131,157,257,431,357,223
629,482,136,158,272,428,366,225
605,450,137,173,266,512,446,205
542,446,145,179,240,508,438,233
517,415,147,195,243,542,460,222
520,422,152,216,234,552,459,217
437,464,147,242,236,536,459,207
451,506,161,240,264,468,420,261
448,526,163,255,279,466,438,226
437,540,166,274,259,502,451,243
465,563,181,282,270,576,498,261
476,587,198,297,287,687,535,263
542,558,181,302,254,680,498,221
531,521,164,279,223,691,498,225
494,498,165,255,225,624,450,213
605,482,152,238,220,566,449,227
607,411,164,221,191,497,455,251
624,404,181,244,207,593,529,310
766,442,195,261,239,615,552,459
793,516,214,264,261,664,604,473
777,557,225,271,264,716,687,511
860,571,205,271,253,752,713,528
945,574,215,262,275,708,706,576
845,578,215,261,263,726,709,498
947,538,195,250,272,676,674,527
914,512,184,228,270,619,557,485
890,600,186,262,300,531,517,484
863,602,203,245,297,644,551,490
878,627,190,265,288,659,533,464
873,618,197,273,266,708,594,461
929,660,214,322,275,772,661,526
1023,591,246,302,265,827,713,606
985,632,254,315,254,782,669,580
1014,633,284,310,268,769,680,599
988,611,285,331,300,771,690,611
1014,561,310,329,318,778,695,599
1028,581,315,387,357,782,682,568
1040,524,294,395,392,730,674,539
1000,568,290,405,413,747,692,560
1067,626,296,409,412,777,672,580
1006,658,271,432,403,747,645,548
971,673,257,401,395,812,719,575
958,720,266,398,416,910,792,653
1005,694,272,376,411,907,812,661
959,712,276,356,408,918,866,683
987,705,276,302,422,913,873,734
902,739,303,314,429,793,782,678
966,711,310,326,373,699,697,587
926,662,284,320,347,674,644,536
940,625,280,318,325,584,605,487
891,619,270,332,309,610,590,404
936,510,231,271,247,617,584,464
884,526,200,226,226,618,579,463
948,619,217,228,250,546,593,562
824,642,212,245,249,560,511,519
910,634,231,225,255,542,584,618
924,672,216,233,279,565,573,616
848,671,223,240,290,604,625,620
789,586,207,243,265,615,596,536
807,561,189,229,259,615,597,538
704,523,160,209,231,657,582,427
607,470,160,220,228,651,578,345
658,413,197,209,258,612,534,349
622,481,196,219,270,597,494,335
661,460,208,226,268,606,481,345
669,472,219,227,274,549,396,382
613,492,228,248,259,549,379,365
628,533,193,253,251,552,407,348
634,498,201,247,236,634,542,347
737,506,204,245,269,647,592,358
711,549,187,319,326,607,561,290
753,589,178,294,316,675,617,345
717,586,173,286,311,694,616,380
705,623,181,325,368,654,540,400
555,594,164,327,356,601,470,373
685,572,221,272,349,681,540,448
690,532,215,262,357,582,490,435
721,541,241,275,340,601,498,432
704,473,228,243,276,586,470,404
835,494,249,226,302,658,551,527
722,552,202,220,244,657,538,469
723,557,203,248,238,697,513,454
646,525,169,234,248,635,468,418
735,550,178,207,296,659,493,477
726,539,157,198,260,603,424,418
733,457,154,185,259,513,377,421
696,498,178,151,264,517,402,421
742,478,197,160,262,621,553,567
682,506,185,167,206,572,521,588
600,557,194,196,200,571,517,563
673,569,206,200,209,556,506,568
702,512,195,207,207,515,486,569
775,540,183,217,196,579,428,454
854,490,190,213,194,588,445,388
802,450,174,211,198,597,464,354
741,453,157,206,199,616,475,364
742,460,139,204,184,610,485,359
691,475,155,197,243,480,426,355
616,475,140,206,246,476,414,345
655,466,137,191,232,447,381,338
696,446,155,204,235,434,348,319
673,449,160,200,238,494,420,326
693,420,154,194,206,465,418,311
637,461,169,188,237,508,438,293
582,481,170,208,271,507,430,284
551,463,175,200,285,588,519,275
563,454,174,213,286,544,473,254
576,533,183,217,296,646,580,333
576,514,172,207,286,619,569,331
580,508,177,184,256,631,583,338
547,539,159,199,244,538,501,331
513,538,156,175,253,529,483,322
457,448,142,189,219,432,386,293
482,426,140,198,224,431,380,298
516,431,152,204,248,403,371,318
534,463,151,192,263,407,385,323
574,530,185,202,281,448,423,331
532,552,170,212,293,384,329,261
510,563,174,215,284,349,342,266
451,555,182,199,267,453,403,246
410,522,181,198,281,446,397,221
439,481,149,219,275,450,397,296
505,551,172,203,271,449,417,320
516,526,171,200,259,544,450,336
559,541,146,236,287,473,395,319
600,547,153,239,267,501,396,349
626,599,169,232,286,470,385,315
633,521,166,225,295,533,433,315
634,512,170,228,294,507,448,315
656,497,178,192,285,521,461,329
665,477,176,181,276,530,507,335
619,393,162,160,241,528,480,312
601,438,196,174,336,646,593,439
711,465,189,157,355,599,554,461
694,464,180,160,341,602,553,461
710,459,187,171,349,603,524,446
697,457,190,173,353,604,526,440
656,435,134,142,267,409,349,283
516,461,136,154,241,419,345,205
538,467,146,159,279,441,357,227
496,496,133,162,315,417,336,213
479,484,130,161,306,423,343,212
484,513,134,179,288,443,352,224
507,485,135,172,293,454,357,238
462,510,125,180,264,398,318,199
425,476,124,192,209,384,324,193
423,500,127,207,230,403,344,197
365,528,123,202,228,400,314,181
377,589,124,225,262,377,363,175
420,652,130,240,289,383,368,180
450,668,132,234,303,417,419,196
478,698,136,222,287,467,432,198
525,637,133,211,297,455,464,239
500,603,129,197,259,459,421,233
464,517,125,179,230,472,462,245
506,509,127,171,201,473,424,236
522,484,126,176,208,402,405,270
475,512,128,187,230,417,383,230
506,538,127,196,250,427,452,226
487,513,124,192,239,407,398,207
471,565,126,189,261,404,400,202
428,537,122,188,255,408,396,182
469,536,126,186,229,432,417,208
447,474,126,185,234,453,348,224
465,499,123,185,282,461,360,222
442,427,121,222,286,430,341,219
432,446,115,270,337,435,356,182
497,511,141,287,342,376,297,184
526,571,144,283,385,384,342,204
512,584,142,299,363,404,346,202
537,599,137,287,341,447,395,252
612,642,156,251,302,446,393,279
568,603,136,225,295,482,402,263
659,554,156,306,255,495,388,311
665,524,159,311,264,485,402,326
691,522,168,302,265,500,381,318
654,484,146,295,246,506,361,305
637,450,156,310,269,519,437,307
518,527,135,263,270,468,419,240
546,532,139,232,253,475,426,235
551,518,133,220,252,428,411,255
562,490,136,217,247,437,421,260
589,532,114,204,248,375,333,278
575,465,106,150,202,389,314,273
588,469,98,157,196,369,257,271
632,489,175,167,231,516,397,305
602,485,197,161,295,574,444,304
639,467,209,164,283,581,443,330
693,527,221,171,284,600,489,339
770,540,261,187,319,627,526,393
736,545,232,193,302,568,494,358
788,572,214,190,250,474,443,408
750,544,214,179,269,599,538,433
796,497,230,217,284,618,531,502
787,533,199,217,282,646,545,487
803,671,213,215,309,655,537,535
889,698,223,228,312,811,659,552
962,706,252,241,312,824,682,543
980,775,251,226,301,826,732,575
1061,782,291,247,333,873,810,609
1127,715,294,239,340,1014,875,618
1128,690,350,269,416,1000,882,650
1146,768,326,320,436,929,865,696
1146,733,334,325,470,964,925,694
1096,745,312,305,444,967,942,696
1047,744,330,373,451,880,901,675
990,784,292,387,401,910,929,628
1022,782,306,380,389,958,930,682
1073,825,302,383,400,937,848,710
1035,777,314,461,434,935,849,737
1046,806,292,495,409,876,817,730
1066,765,277,469,411,785,721,748
1017,755,386,462,451,924,840,724
943,689,395,482,444,884,835,649
1011,699,425,461,459,943,797,625
994,664,429,385,459,973,845,619
943,671,423,383,495,991,865,590
924,664,348,359,490,862,721,493
878,673,334,333,477,956,739,474
823,668,275,322,447,843,694,486
777,646,276,299,677,934,747,465
884,676,318,320,1009,992,773,507
927,661,302,398,1011,979,777,537
929,669,308,382,1014,1019,845,554
847,724,305,326,1000,1008,831,502
835,701,297,371,909,883,743,502
726,667,262,377,518,783,688,462
619,615,251,300,486,771,668,404
691,662,224,343,486,611,543,386
766,666,241,367,552,602,550,371
751,757,230,346,491,574,515,370
841,745,284,383,492,527,460,540
856,743,275,383,513,478,452,543
883,645,282,383,716,465,448,597
840,586,261,362,908,441,447,586
873,553,262,420,1020,541,489,596
784,654,206,407,1016,570,523,429
773,655,217,424,996,584,514,428
701,672,233,395,852,702,597,347
679,680,233,403,614,750,580,380
638,666,219,334,369,661,535,347
766,607,254,293,347,723,604,441
731,601,244,254,347,732,619,443
724,599,225,256,325,606,542,450
764,587,256,258,269,604,552,456
789,554,258,259,305,631,557,464
823,535,216,323,257,553,484,398
878,564,206,330,262,570,506,389
868,644,194,324,314,599,516,442
931,624,177,346,383,707,622,550
996,606,176,351,352,694,620,608
877,647,210,283,357,701,633,619
845,649,212,309,363,676,594,622
937,667,220,312,348,645,566,631
927,680,201,278,278,534,423,559
842,680,198,263,296,565,419,525
900,663,151,268,293,530,374,533
915,634,179,220,309,534,405,547
813,610,188,242,337,535,404,515
743,598,190,247,342,474,429,495
747,629,235,266,372,454,495,505
707,612,234,266,377,505,523,493
756,760,228,303,391,520,590,486
761,774,234,324,415,513,597,470
858,820,237,341,427,525,583,490
925,790,198,329,410,558,590,466
895,830,196,324,398,523,556,462
848,761,182,287,356,524,489,490
826,685,181,269,308,553,494,468
820,645,167,245,274,573,520,494
771,677,176,239,259,562,496,536
919,619,282,253,366,772,711,716
933,608,299,350,446,778,696,701
974,615,302,375,459,792,739,764
928,627,318,375,474,811,738,759
988,656,328,388,475,895,770,748
868,723,265,411,441,708,581,627
899,751,286,401,425,713,647,649
890,786,283,390,429,696,601,614
1015,833,275,399,445,696,611,632
976,800,289,385,443,582,561,630
1055,750,304,365,416,606,618,597
1070,683,318,375,408,601,592,632
1095,660,317,358,395,682,595,625
1016,590,315,362,381,618,542,549
1020,630,323,382,365,658,562,556
974,674,313,380,374,770,595,541
1014,696,315,305,356,814,614,534
1015,684,332,377,355,752,624,495
999,803,350,408,348,844,700,544
1008,779,333,392,358,833,685,538
957,745,324,400,405,915,761,568
848,748,307,408,503,961,745,535
876,747,296,345,474,1023,810,564
852,627,273,283,491,979,775,552
818,661,267,345,492,951,764,535
824,651,256,325,455,756,609,463
865,601,235,316,327,662,606,458
811,652,240,292,346,653,600,438
803,623,251,339,378,616,590,415
825,566,229,273,392,675,593,412
942,611,244,267,374,700,618,504
888,607,227,267,342,678,576,464
897,585,271,313,405,622,507,483
850,654,255,263,350,711,524,474
844,669,284,279,344,714,539,486
686,694,290,291,350,713,541,402
721,718,300,346,366,709,542,433
683,710,250,311,291,656,496,389
699,653,262,310,271,540,448,385
635,668,240,295,278,458,407,332
640,591,212,298,273,393,333,362
555,601,198,294,286,456,365,315
531,621,182,285,280,433,339,302
499,626,155,300,318,485,370,300
471,579,160,326,365,500,360,297
480,594,174,335,361,568,415,259
515,571,167,268,336,475,384,264
543,626,196,286,341,478,386,261
648,649,202,270,320,439,341,277
649,664,201,233,245,463,384,295
662,678,191,199,240,420,364,296
736,746,224,216,276,503,375,361
704,681,200,214,306,529,394,361
674,654,221,207,312,531,471,425
730,666,211,235,303,513,455,439
732,652,208,253,293,500,465,470
663,582,189,300,288,429,489,435
670,553,193,286,250,422,492,459
608,583,186,283,250,448,432,378
592,574,180,274,261,447,427,353
555,524,183,292,310,472,402,298
608,549,173,268,300,456,346,347
618,564,161,265,287,457,322,316
660,578,252,279,311,555,476,393
615,559,259,286,346,536,459,391
684,598,286,300,343,588,476,455
632,605,284,299,345,619,481,418
624,605,287,325,378,625,487,425
642,599,214,405,386,587,462,451
667,581,208,406,347,573,468,465
630,567,168,416,327,496,448,412
642,536,171,409,331,467,476,422
609,570,170,402,300,491,486,409
535,520,151,385,354,399,414,325
475,545,158,377,368,437,429,300
499,509,187,331,375,433,450,286
500,490,182,327,376,459,409,262
586,490,212,324,387,431,388,338
599,474,212,244,287,473,359,322
685,512,225,255,277,469,343,340
659,516,196,248,294,491,311,335
697,559,208,238,276,469,337,419
654,514,202,250,289,493,361,381
655,524,200,245,300,448,332,407
599,513,222,347,313,437,352,396
676,618,235,363,275,430,382,428
617,566,233,389,300,442,389,345
630,559,220,401,321,373,351,337
626,565,212,402,311,399,343,282
661,574,180,357,297,433,327,289
553,479,175,360,312,436,272,225
683,622,170,418,295,514,284,322
667,593,152,409,232,524,286,318
694,690,209,409,240,586,392,385
648,658,211,368,233,554,379,371
675,674,208,365,233,533,419,401
577,623,203,269,239,472,407,342
618,677,220,262,263,509,453,377
607,579,177,261,279,448,395,325
649,608,170,296,278,453,429,340
599,614,166,287,264,460,387,310
601,583,180,274,244,438,400,305
556,584,171,248,250,411,371,283
605,624,170,265,266,375,360,284
553,674,163,220,287,369,330,272
630,670,170,204,293,415,379,333
688,634,159,228,309,398,350,342
688,582,155,238,333,447,330,322
618,545,148,242,303,442,323,319
638,499,147,227,278,434,321,319
649,506,173,245,299,500,433,306
609,525,170,277,294,521,436,295
645,544,190,274,256,498,437,333
613,550,190,262,250,497,436,327
733,534,249,279,337,626,520,436
690,475,256,305,315,528,391,419
702,447,277,256,351,524,391,437
699,538,272,298,336,501,389,417
770,516,300,282,348,529,413,437
638,539,250,283,272,382,333,354
627,563,223,246,269,423,353,342
547,646,214,251,226,469,386,314
504,621,204,201,234,465,398,304
409,665,159,200,212,442,368,279
579,666,180,171,209,453,333,266
583,682,182,157,197,455,338,251
605,712,166,203,199,441,306,241
606,676,168,189,198,447,332,240
621,643,166,205,227,463,359,257
520,622,149,222,261,444,355,240
629,664,136,238,270,440,404,269
680,601,132,186,258,392,388,278
678,629,151,281,365,500,408,277
673,650,165,285,371,517,412,261
652,600,162,271,359,503,402,252
578,606,184,273,368,566,433,271
486,587,181,289,394,650,503,254
478,594,162,211,300,558,463,254
549,695,199,222,316,563,531,322
551,749,198,218,300,568,554,331
671,752,216,226,301,510,514,364
832,763,224,308,280,437,459,388
860,757,239,310,294,453,477,413
866,704,210,298,260,484,418,379
915,675,245,311,279,589,517,491
860,648,212,315,299,576,497,450
791,631,219,253,286,542,492,478
831,610,212,264,273,561,513,478
866,602,208,269,355,525,504,472
840,582,167,300,365,413,395,381
844,590,183,334,356,592,473,401
846,582,178,365,444,683,528,385
824,645,208,369,464,792,624,405
853,651,220,382,441,807,674,460
863,681,225,354,454,855,756,487
922,632,218,342,445,743,709,466
880,702,211,289,371,685,688,495
966,670,192,296,363,639,603,487
978,663,220,279,353,686,584,491
953,652,219,295,345,624,458,452
914,732,246,274,415,667,499,476
951,725,257,385,423,738,547,475
869,754,255,378,451,674,520,471
790,726,223,380,450,733,535,436
802,741,230,370,425,758,576,496
712,676,201,386,434,751,549,493
780,643,289,290,464,734,577,546
739,587,277,274,430,707,611,522
879,586,329,258,438,718,697,628
917,559,370,304,497,756,755,678
961,573,389,276,456,738,765,674
856,535,349,260,438,707,716,592
866,511,365,259,425,734,708,604
824,575,369,344,460,701,641,610
769,590,319,303,392,627,533,498
753,673,305,299,363,659,545,487
730,671,271,301,344,624,520,479
848,746,270,346,373,658,551,508
690,675,191,265,258,544,473,321
676,701,212,256,298,571,485,349
627,590,191,273,329,498,421,342
726,661,202,272,333,492,410,361
581,595,169,225,324,407,312,303
584,637,172,225,336,381,282,318
577,608,145,224,310,334,247,267
598,657,150,205,274,328,260,271
494,666,129,205,247,312,255,250
448,719,131,179,208,352,346,286
416,695,112,261,264,352,333,258
412,724,119,279,289,355,333,279
409,706,140,275,288,359,327,280
386,667,151,266,293,391,350,270
442,602,168,295,324,341,282,245
497,628,170,238,335,319,271,272
499,559,177,235,313,346,318,265
576,538,153,220,302,370,334,255
564,484,148,217,287,349,323,257
525,527,126,186,258,364,304,245
478,483,130,169,167,370,295,209
461,512,143,162,150,343,252,200
336,525,149,163,146,319,233,194
417,561,162,169,160,388,298,199
414,503,177,166,163,387,298,178
423,509,181,157,161,368,299,187
494,516,174,135,163,413,338,232
519,475,171,141,158,406,340,232
472,452,147,135,137,337,258,220
493,484,129,154,139,315,249,235
508,533,124,152,142,369,334,256
421,557,103,150,126,304,289,196
353,571,108,146,124,297,283,187
341,549,107,150,137,304,311,189
303,522,104,125,143,299,307,174
301,509,97,125,136,249,235,155
351,467,106,120,153,272,271,178
399,447,106,122,168,295,294,186
409,460,109,119,170,298,275,186
410,505,111,122,156,299,274,178
382,485,112,120,156,282,255,161
352,498,99,130,143,272,208,159
316,510,85,132,125,242,165,151
284,510,83,138,108,222,167,151
288,492,77,142,107,226,168,154
313,507,80,144,116,264,203,166
325,506,90,131,120,256,209,169
317,533,86,123,131,250,209,157
348,564,83,116,133,222,186,158
330,539,84,113,125,224,185,156
296,494,86,115,114,194,159,149
251,493,83,129,100,179,152,119
243,485,84,125,83,182,148,122
217,421,105,130,83,227,169,119
249,491,117,118,93,249,195,144
237,538,106,104,89,237,177,134
281,515,110,102,105,283,201,157
346,594,132,100,107,302,217,194
340,611,123,94,105,300,248,198
364,623,138,101,105,331,289,223
373,611,142,104,107,350,306,229
352,620,145,97,93,315,290,217
379,611,193,139,144,407,348,235
378,633,192,141,146,404,327,230
376,616,179,140,143,393,323,219
379,631,190,139,153,395,318,214
456,623,200,155,182,408,337,251
491,559,165,136,166,326,294,280
514,582,166,136,168,309,289,287
535,601,175,140,175,273,262,291
540,591,169,146,180,278,284,303
511,601,153,144,175,298,284,306
454,605,125,167,183,281,272,257
506,590,131,164,199,288,286,267
504,560,113,164,203,326,292,267
562,563,111,214,222,383,349,296
544,548,113,230,235,384,347,273
529,559,124,217,238,459,394,294
475,580,116,225,231,450,379,277
511,574,134,233,232,435,380,282
442,528,131,187,218,365,302,238
422,507,131,157,195,336,287,228
411,446,126,155,184,216,197,178
505,325,174,212,208,295,316,238
449,199,166,212,219,281,299,207
545,160,173,223,218,293,311,240
570,129,171,225,221,303,315,244
590,102,174,216,219,316,348,253
502,91,124,158,227,241,252,204
496,103,124,164,217,250,245,209
429,106,131,157,262,287,266,176
418,205,135,213,317,281,264,176
398,278,149,254,320,362,263,187
425,345,155,355,382,389,286,205
408,386,153,372,409,387,291,203
388,454,144,370,385,371,284,204
387,455,136,346,350,372,279,208
375,469,114,321,349,296,292,211
348,474,104,218,261,255,265,194
333,469,106,166,213,224,253,201
310,408,102,163,193,201,248,201
361,392,104,166,193,199,256,195
370,354,107,172,208,176,195,180
375,285,108,162,211,206,220,178
399,237,106,187,237,226,241,159
404,230,109,215,257,221,235,161
353,184,107,216,250,225,237,170
396,137,102,214,241,225,243,163
413,461,107,202,248,198,216,152
445,664,105,198,224,210,223,188
450,739,97,222,247,239,229,178
440,750,95,225,271,238,224,161
379,786,100,218,256,263,227,153
372,671,93,215,243,265,229,164
313,555,99,206,258,258,202,138
375,504,112,158,249,356,269,202
449,587,114,158,248,360,263,223
515,566,121,157,253,353,267,232
552,588,135,165,258,373,282,256
550,565,134,165,244,373,299,271
506,551,130,178,231,271,228,236
485,512,133,159,205,277,268,238
561,546,128,160,209,336,284,269
534,567,122,162,204,314,275,250
624,571,120,157,208,318,273,324
670,561,119,132,187,318,274,324
685,536,130,166,223,343,270,335
593,499,124,173,229,276,246,323
584,479,133,186,229,293,254,343
538,539,140,205,244,277,243,261
471,567,136,234,272,264,233,251
415,576,130,213,248,205,191,219
389,685,137,208,266,190,200,197
427,673,136,223,333,174,184,165
377,588,134,216,331,165,187,159
426,561,145,209,330,175,214,205
504,530,149,221,343,186,250,223
536,345,150,240,339,194,231,217
513,287,150,238,280,321,286,265
522,258,144,240,278,353,290,264
556,212,138,218,285,351,285,242
521,178,129,227,306,353,261,243
499,165,124,228,308,362,273,247
541,150,112,223,326,271,234,187
536,158,134,237,361,276,258,202
580,418,131,250,369,306,246,219
562,572,135,236,332,315,276,197
567,698,142,230,351,306,272,201
537,754,148,264,388,332,281,217
569,779,134,343,401,351,284,206
469,683,131,401,411,331,285,190
476,583,129,410,416,319,248,190
457,473,129,399,386,319,257,180
425,420,122,372,354,299,240,161
411,416,125,305,314,290,216,165
428,415,146,285,318,319,239,167
415,432,149,293,347,342,246,182
506,433,146,299,345,351,252,242
534,429,143,292,318,352,263,252
581,401,135,271,298,360,288,261
581,485,127,197,233,330,263,255
586,688,133,173,192,312,266,262
678,828,149,175,189,340,282,261
752,882,153,174,191,329,299,302
724,919,151,169,191,294,275,326
760,895,141,187,225,288,292,339
766,765,133,177,218,300,297,345
697,682,146,179,238,429,327,334
681,649,151,186,237,446,313,314
695,683,199,207,252,446,313,318
712,698,223,196,274,548,415,333
710,668,225,200,297,557,422,319
707,582,210,191,291,472,415,311
783,518,233,182,307,487,435,316
762,389,200,152,294,477,423,295
703,309,176,132,259,374,311,275
690,282,168,170,239,361,290,278
629,253,173,195,240,325,246,277
580,396,141,220,270,328,266,316
550,524,139,240,296,317,264,297
548,591,135,252,284,306,271,298
632,667,143,247,279,365,329,349
635,725,125,235,263,369,333,335
516,761,114,227,233,424,316,263
536,757,131,228,258,496,353,275
582,827,129,224,274,496,348,278
478,813,125,225,273,441,312,221
508,823,129,252,301,428,298,251
503,775,126,274,325,332,255,250
508,737,135,280,343,238,204,248
455,667,158,273,346,252,225,231
549,653,194,253,363,391,356,332
541,666,194,245,353,415,370,325
515,782,195,200,315,413,374,325
507,806,176,203,269,411,377,326
499,771,183,275,304,422,382,334
398,751,139,289,307,309,241,219
371,704,146,293,323,280,220,207
363,546,149,310,347,274,197,207
415,473,146,297,336,269,193,209
394,521,106,232,296,226,156,192
456,598,108,217,279,232,174,201
465,631,99,173,254,230,185,211
473,617,93,155,225,264,215,214
474,649,104,155,210,308,238,230
495,681,118,152,213,319,247,231
452,613,112,183,219,305,232,232
442,573,129,192,229,320,233,245
433,594,129,184,230,291,223,244
345,584,123,177,233,256,218,213
380,600,115,190,235,300,228,242
395,644,117,178,217,326,261,221
446,662,104,173,195,344,293,191
473,728,135,178,204,349,288,198
491,707,135,169,193,340,265,204
454,646,136,154,181,286,246,160
443,642,147,163,240,274,223,175
401,631,150,190,261,224,172,163
396,533,133,221,293,290,239,151
405,535,131,237,297,288,252,169
385,504,128,238,294,300,266,174
352,462,115,210,242,278,251,159
400,562,106,239,265,309,264,210
402,648,90,214,214,235,194,214
393,745,98,202,219,251,186,201
392,759,103,200,210,276,184,193
422,784,116,221,236,321,212,194
379,678,114,171,195,292,195,153
358,584,121,181,193,297,202,155
394,444,139,170,228,323,228,181
395,406,153,203,247,317,232,185
470,317,181,181,245,388,309,232
462,309,181,172,248,394,316,226
471,276,191,147,259,396,324,216
470,234,173,168,243,364,306,190
490,178,158,126,232,338,290,185
447,147,145,146,248,238,226,204
458,107,154,148,246,252,226,212
487,103,146,161,262,295,302,246
497,85,148,149,263,331,322,254
590,67,152,159,262,339,339,309
576,386,136,160,284,328,331,273
598,552,134,167,286,329,340,286
617,669,130,163,263,332,320,281
576,737,130,164,247,302,324,272
495,766,134,159,268,306,329,217
588,694,127,137,221,302,342,276
589,588,142,151,271,321,366,327
602,491,140,151,276,318,347,312
648,446,153,155,277,361,342,332
657,442,157,196,299,375,326,336
579,443,156,210,305,372,291,290
538,434,139,217,296,376,264,206
501,418,147,225,308,371,264,214
455,399,134,227,311,333,257,180
418,373,128,207,267,338,296,173
391,419,137,215,278,338,297,151
450,763,138,201,239,305,284,165
452,845,145,216,242,306,264,154
460,849,149,223,245,344,288,159
476,876,140,215,251,326,258,159
485,851,141,208,245,377,310,181
428,596,134,225,258,382,307,186
433,540,111,228,286,355,295,192
437,563,114,232,318,322,258,200
416,593,118,271,331,310,242,199
413,649,115,286,332,245,196,199
443,659,116,284,337,262,223,190
408,636,130,271,298,307,288,185
428,634,132,259,266,316,290,181
427,646,138,242,271,314,290,186
421,590,132,281,278,302,266,171
393,554,133,290,287,315,245,181
407,506,125,308,317,278,158,208
425,443,115,318,315,265,198,202
438,302,117,301,298,272,213,200
486,260,121,257,294,320,228,218
507,284,137,233,292,287,230,207
525,341,131,225,345,334,262,205
483,416,137,259,361,331,240,203
468,594,134,281,360,334,233,192
436,671,143,283,348,292,227,179
437,675,134,279,356,304,229,212
388,661,145,272,289,314,225,193
385,632,138,230,283,325,210,193
400,515,136,198,282,354,268,209
361,444,127,180,276,364,270,212
330,502,119,176,247,356,271,176
336,579,134,166,234,290,252,162
352,603,138,236,253,260,257,166
335,624,139,234,246,213,195,150
382,715,137,239,256,188,197,145
381,789,138,241,244,196,188,155
354,750,113,240,255,190,168,147
445,767,115,184,243,280,186,208
466,741,110,210,272,281,178,210
443,654,99,196,277,287,176,212
534,543,118,203,295,281,172,226
545,525,119,198,278,282,176,225
561,494,129,198,242,257,267,310
562,490,136,171,233,285,293,321
623,598,186,177,284,334,367,372
591,620,184,174,270,333,369,377
613,643,200,185,273,356,387,404
551,661,193,183,293,333,322,313
543,724,197,195,307,319,331,331
484,630,154,213,258,265,261,268
453,627,142,212,277,274,261,259
451,623,136,206,279,288,274,245
423,600,132,182,270,280,272,250
411,500,119,172,236,267,231,207
409,474,130,193,283,298,251,218
410,368,142,227,281,289,258,210
386,290,133,228,288,288,285,197
370,241,135,240,276,331,314,192
537,283,136,247,283,396,340,245
590,364,133,215,234,380,324,235
588,448,141,192,265,383,314,234
625,534,139,191,250,360,273,223
649,607,134,181,249,324,241,223
560,612,136,167,255,267,228,205
474,588,129,167,256,271,219,210
446,559,122,194,228,278,224,208
443,525,127,197,252,313,236,260
516,558,131,217,265,324,265,296
494,579,129,222,262,313,248,279
546,611,139,234,288,322,268,314
572,654,128,231,281,369,295,325
562,683,125,247,265,349,294,287
481,620,136,245,267,339,292,246
457,679,138,238,277,335,290,261
499,713,132,245,244,381,309,252
522,684,140,279,278,342,305,249
529,654,133,273,332,334,278,271
555,700,127,293,349,338,271,301
626,663,148,301,365,448,351,313
599,708,149,302,388,458,334,291
585,747,142,364,421,467,372,314
614,812,194,360,401,524,466,359
622,793,210,354,402,613,491,346
696,781,203,366,384,589,487,386
736,694,200,354,367,554,482,408
826,664,221,228,338,578,483,432
779,579,199,228,334,560,454,415
771,546,190,255,329,482,447,403
694,565,185,254,344,489,434,370
783,562,192,249,338,525,542,431
807,583,200,285,368,549,587,564
947,623,209,328,383,523,596,634
1021,617,204,302,366,610,682,704
1020,631,237,303,352,632,722,712
962,677,252,305,367,678,702,700
934,676,246,290,317,656,663,631
936,746,259,254,383,735,669,666
921,781,274,244,403,698,604,656
898,763,252,244,417,653,556,638
855,732,234,251,398,593,503,600
763,725,214,227,382,597,476,538
577,602,167,202,285,506,417,374
450,604,140,273,306,487,383,269
416,601,126,267,312,467,349,245
367,576,129,259,320,542,440,284
356,552,124,264,305,532,448,277
352,605,126,303,292,534,453,264
316,582,141,308,294,575,522,249
315,599,134,296,253,609,544,255
285,604,137,295,251,525,473,196
338,623,150,295,253,509,461,184
362,674,155,254,251,500,474,177
380,670,144,184,192,395,390,165
383,628,149,211,267,352,366,166
404,640,147,235,265,349,350,161
377,615,155,284,311,391,374,166
411,577,162,308,346,408,369,163
435,568,169,356,381,472,404,194
475,568,172,352,348,529,433,206
482,626,180,370,385,579,473,210
532,659,198,339,376,694,568,223
531,646,207,330,347,775,626,273
503,650,204,277,308,747,597,264
466,674,200,265,305,740,620,259
459,626,188,218,252,702,598,256
401,576,151,215,229,543,486,257
340,576,142,230,250,408,404,207
350,642,140,216,263,441,430,196
358,638,142,229,261,400,386,193
362,650,169,246,266,463,453,228
350,653,172,249,241,513,510,226
333,629,158,225,232,527,510,219
329,546,206,258,233,622,568,244
325,532,202,244,236,619,552,235
308,559,192,229,242,604,525,224
325,586,197,220,249,604,531,211
342,565,195,238,245,597,525,208
315,597,137,185,218,578,497,179
330,600,164,191,216,607,557,178
321,556,149,188,210,569,507,139
291,602,140,208,222,575,501,150
278,700,133,180,209,552,479,154
285,675,131,184,200,423,413,141
274,688,100,179,177,375,334,144
260,699,97,185,171,390,358,148
251,629,108,146,154,363,263,127
290,520,126,159,233,424,333,160
292,502,128,165,241,426,315,156
324,502,123,180,271,396,277,156
333,482,122,176,275,383,253,150
337,519,127,180,281,371,280,156
292,502,118,173,220,305,218,114
285,535,116,171,220,294,233,124
229,487,127,165,198,290,251,110
234,525,123,161,184,268,236,124
216,556,141,156,220,397,312,142
279,567,135,151,215,392,308,150
287,536,138,165,236,418,307,143
301,600,147,157,256,460,324,149
294,613,147,149,251,460,328,137
332,611,135,195,233,331,233,104
285,609,158,201,243,376,253,108
271,624,153,198,224,356,257,117
317,600,151,225,198,348,261,130
323,580,154,230,208,369,275,143
328,602,159,219,235,396,290,162
337,591,138,220,235,377,279,162
391,641,146,219,235,434,341,168
375,623,132,204,239,408,319,162
374,588,148,220,291,401,311,162
342,503,140,222,273,464,404,152
373,597,143,227,288,473,400,149
349,537,147,247,335,458,392,166
337,542,157,253,361,458,399,165
364,650,145,245,354,464,414,172
388,665,158,227,363,425,353,197
356,586,154,227,349,417,370,197
324,593,139,200,307,392,335,180
318,583,132,177,279,394,338,178
355,459,130,162,240,391,325,177
328,473,96,161,195,325,279,141
319,537,100,149,198,299,266,138
337,542,100,141,187,272,244,131
353,519,91,141,174,258,215,135
304,507,85,148,159,253,209,119
297,559,86,139,151,237,201,122
313,500,77,142,149,269,203,139
296,479,78,138,155,254,197,134
260,503,85,123,153,257,226,126
249,502,84,133,159,246,221,127
246,466,84,155,207,251,226,118
235,515,92,160,218,207,196,91
250,499,95,165,216,259,234,137
269,462,97,174,225,258,208,141
282,456,98,176,244,265,211,151
302,493,100,163,219,278,234,156
301,436,91,156,201,282,233,159
300,508,89,154,197,235,212,124
307,574,117,171,230,282,266,141
286,598,124,189,221,275,261,128
278,534,129,206,247,301,265,132
349,640,134,214,257,289,257,146
345,591,136,212,255,291,261,146
334,547,116,191,248,244,225,121
409,557,117,171,263,289,244,136
473,564,118,204,294,274,234,148
449,588,133,297,320,275,269,148
474,634,143,329,350,323,260,155
487,705,176,345,347,309,236,161
446,706,188,372,400,292,266,167
384,700,191,381,387,265,264,156
383,590,181,348,398,264,257,162
383,588,180,347,417,254,290,177
381,527,148,341,441,275,311,194
364,554,127,328,391,260,276,184
401,551,132,306,382,298,302,197
414,555,129,267,346,300,283,179
407,554,130,309,357,326,299,203
385,536,137,381,357,315,276,185
388,526,142,380,373,309,273,181
342,531,133,371,358,285,232,165
305,526,144,367,382,303,238,165
322,498,142,317,335,270,183,128
326,519,132,215,294,279,187,126
319,458,131,181,253,276,189,127
348,430,124,195,279,266,183,131
363,440,115,209,273,250,175,137
343,429,99,204,277,204,147,128
376,442,108,212,271,210,185,157
365,512,106,212,274,202,177,153
340,501,111,186,277,258,219,184
314,482,121,213,273,268,216,177
302,524,140,201,267,308,229,187
257,477,147,187,258,300,210,166
269,399,145,187,257,316,213,173
285,457,178,204,268,307,215,166
312,449,183,163,258,314,232,178
346,480,188,170,282,299,257,224
370,489,181,170,280,307,263,248
436,555,220,196,288,367,335,269
440,522,202,221,355,362,316,274
474,584,194,226,369,349,325,280
459,517,190,220,347,329,309,263
442,560,185,219,353,330,314,248
396,604,136,211,369,268,264,222
374,608,135,174,278,238,263,195
345,576,128,166,269,251,259,179
314,564,103,177,268,271,258,134
301,532,112,198,260,256,253,126
289,478,107,183,224,254,225,134
292,496,91,181,199,247,222,126
239,544,98,184,160,254,210,126
250,542,103,174,166,254,199,129
255,556,103,165,168,273,198,126
239,551,102,167,178,293,213,116
261,565,109,163,223,324,220,134
270,540,111,152,220,308,213,138
267,533,109,148,217,279,216,125
315,528,112,143,209,289,237,132
302,496,117,138,197,255,224,130
325,462,116,130,151,229,223,137
306,502,106,126,148,229,217,129
348,548,145,127,168,292,276,213
329,528,161,173,226,266,249,207
346,571,159,175,225,258,242,209
298,582,161,191,223,281,259,198
301,509,164,187,227,289,264,202
316,551,154,205,259,457,312,129
292,534,128,161,208,463,311,123
280,520,129,162,222,487,331,125
286,535,120,170,229,481,313,122
324,522,123,185,237,482,318,120
269,453,109,157,196,315,252,118
263,521,113,162,203,295,246,119
282,515,134,182,204,312,283,133
277,491,134,157,216,292,276,131
241,504,129,142,231,289,266,126
232,512,127,183,243,279,259,140
236,510,122,187,253,295,267,141
204,474,106,172,259,240,201,127
197,558,111,181,269,234,220,139
214,584,114,179,251,233,219,138
229,562,113,158,281,241,196,123
227,501,130,170,301,257,209,125
239,504,124,176,293,255,205,116
279,399,130,168,276,285,212,142
265,423,123,171,269,277,216,153
270,480,130,162,222,271,201,173
268,507,114,138,182,247,182,173
325,540,115,117,167,249,192,179
291,551,100,120,166,213,161,147
301,502,109,117,171,210,161,146
288,478,85,105,156,205,159,125
295,446,83,140,167,200,164,125
279,454,85,146,174,217,169,129
316,467,80,143,160,243,177,141
303,514,69,139,151,251,184,139
304,487,72,172,174,231,177,125
299,525,84,154,163,232,172,127
244,466,83,150,170,227,170,122
225,468,92,148,203,200,159,111
276,455,96,149,206,200,174,126
290,491,99,129,190,181,168,133
319,529,97,149,208,202,190,135
335,557,91,145,206,212,197,143
310,556,99,173,184,224,208,144
296,530,98,189,201,222,193,128
282,566,97,180,208,235,206,141
258,509,89,166,203,217,184,137
233,495,96,170,199,207,172,132
239,501,79,142,194,200,157,134
193,510,91,146,210,212,160,129
188,489,87,146,194,215,157,119
191,492,94,144,192,220,155,113
206,535,97,140,196,208,157,119
203,530,99,142,185,210,160,112
213,509,89,123,161,209,147,126
289,493,106,122,168,249,157,161
283,553,103,104,150,251,159,163
293,617,109,118,144,288,214,158
306,623,111,134,174,302,212,157
307,649,124,134,202,307,223,158
229,642,107,151,219,262,206,106
237,580,109,153,221,254,212,113
244,503,101,143,228,215,145,116
225,505,103,141,256,192,147,131
218,532,95,151,262,221,193,119
219,518,102,156,261,232,208,130
227,560,101,160,267,232,215,123
252,624,98,162,278,222,223,131
277,642,92,153,233,229,231,134
272,607,78,138,190,177,195,139
280,625,73,130,192,159,179,134
286,628,69,128,189,148,167,171
295,562,79,124,181,183,170,167
275,535,88,116,198,246,227,172
326,561,100,118,219,284,245,189
343,563,98,93,202,292,257,212
335,530,102,86,190,309,281,198
283,579,101,86,182,294,276,190
285,559,101,88,174,234,227,180
245,509,103,106,154,210,216,164
219,461,113,121,165,254,219,143
200,445,119,135,191,261,208,127
209,291,120,133,199,261,213,131
212,232,118,142,193,294,252,131
242,201,113,124,197,314,305,137
240,172,116,140,207,273,293,123
238,125,109,135,196,255,320,132
235,92,102,138,181,258,322,129
233,81,105,135,188,217,291,124
194,79,101,151,193,150,224,109
182,76,85,129,178,151,228,114
208,65,87,124,165,184,198,106
211,115,92,121,162,202,190,108
223,217,116,144,160,219,197,108
213,305,114,140,164,248,215,114
213,352,117,140,161,270,224,118
215,357,127,150,175,250,206,115
213,395,127,170,172,270,223,126
221,364,119,161,208,300,233,127
231,386,125,168,199,309,234,119
263,390,143,197,216,425,303,158
273,422,142,208,226,504,367,170
286,393,148,204,233,509,375,170
317,615,137,251,211,516,412,227
377,629,155,249,212,546,439,267
413,682,148,234,215,466,405,276
425,737,155,229,212,453,424,291
436,784,163,233,213,442,430,293
441,677,180,183,217,425,417,261
402,685,192,183,258,442,432,235
349,620,195,187,251,476,461,204
330,566,201,196,238,468,437,214
320,522,189,181,227,469,440,212
287,469,170,194,219,463,423,204
275,516,136,189,181,410,383,193
273,560,131,186,178,406,358,186
294,551,120,173,191,420,355,150
277,551,123,182,197,412,324,140
275,611,125,157,201,405,308,133
288,518,141,151,197,574,414,141
279,510,133,134,175,567,406,135
275,550,129,121,200,604,483,166
280,594,125,108,209,612,494,171
293,561,136,142,209,651,512,171
272,563,121,136,199,539,438,156
271,563,127,142,209,539,429,155
232,582,114,153,171,438,308,105
219,536,120,148,153,451,304,93
196,542,104,115,138,408,281,105
201,593,112,144,201,468,301,120
214,588,108,149,191,460,301,127
282,597,109,142,212,486,311,155
345,667,110,205,285,464,307,159
344,673,138,308,356,553,401,161
370,674,163,459,552,573,409,158
441,738,215,562,687,617,435,173
508,712,261,609,794,716,501,169
584,738,287,603,780,754,610,277
584,752,285,568,793,728,570,280
582,751,304,560,745,774,626,295
551,706,294,613,697,810,667,297
490,764,273,581,606,809,655,299
393,705,332,578,713,939,668,246
454,717,354,582,674,997,725,270
503,701,339,503,621,983,762,308
507,727,332,347,573,990,790,335
510,680,340,344,565,985,842,337
584,646,278,343,429,891,818,350
584,640,255,418,448,829,772,344
556,640,241,409,463,788,735,305
555,601,234,452,519,766,693,284
552,568,213,458,530,722,616,274
490,590,217,485,551,751,625,229
453,612,199,430,543,722,640,206
432,656,220,450,489,721,587,208
414,638,219,372,441,693,544,180
401,612,215,359,455,656,543,199
373,676,224,334,443,655,517,212
410,634,258,307,437,692,525,230
398,610,242,255,446,683,523,220
414,640,256,294,424,674,557,220
427,646,254,312,392,707,537,210
468,688,230,333,355,625,494,199
443,724,203,334,353,573,461,179
475,669,206,328,337,496,434,177
490,727,190,320,374,460,432,198
466,772,183,293,348,376,407,182
439,692,169,273,374,486,485,184
456,645,164,270,368,544,496,181
426,722,162,277,357,539,516,186
379,655,182,308,335,548,467,164
401,645,186,322,323,547,463,170
362,666,187,299,309,442,345,151
290,695,193,304,327,371,301,142
317,653,187,292,325,414,268,143
370,629,150,215,266,431,357,145
344,581,151,199,258,431,377,130
415,584,264,220,260,562,529,187
453,573,262,221,240,561,537,191
452,604,275,231,265,568,563,206
420,621,284,226,265,539,531,215
412,673,349,297,402,635,594,222
347,626,313,312,432,590,477,206
310,586,306,311,436,593,475,203
358,568,317,312,444,623,479,187
366,577,316,318,446,625,463,189
412,638,285,326,397,634,499,203
406,627,256,294,376,575,496,185
415,706,270,306,398,631,506,189
395,685,248,298,380,575,483,181
392,688,240,292,376,575,485,165
344,628,218,202,317,497,372,149
356,678,207,214,362,583,403,139
338,597,187,195,355,514,386,134
296,586,180,198,368,532,366,133
286,544,181,207,372,537,406,154
292,516,164,202,364,485,395,149
366,559,170,187,310,344,378,152
395,605,180,205,307,347,383,177
423,614,177,227,301,319,386,182
433,671,229,234,321,487,481,202
439,656,224,225,322,535,482,206
393,673,246,333,392,645,547,213
393,626,244,353,400,679,556,208
432,651,252,347,412,714,603,208
422,599,217,342,412,639,510,201
438,642,252,423,479,608,505,213
459,560,245,361,422,521,403,214
440,583,252,341,440,493,387,203
428,554,309,406,514,539,390,257
426,545,312,423,504,501,384,237
493,521,304,358,444,638,435,300
477,494,282,347,438,605,446,302
482,526,278,389,447,713,467,309
477,636,206,321,349,694,451,326
485,658,187,296,342,686,434,330
525,698,150,305,390,730,473,319
530,696,146,295,394,757,484,319
555,656,183,298,347,722,566,323
577,588,233,314,360,729,536,274
589,600,234,317,356,760,571,295
488,560,221,289,303,616,542,236
465,550,227,292,284,601,523,220
469,585,208,281,271,548,436,223
478,621,151,278,257,487,472,249
478,616,149,269,251,471,460,237
468,632,166,266,235,480,415,243
497,663,176,279,242,519,431,268
458,651,157,201,235,510,434,257
361,563,162,190,229,533,437,223
347,544,180,197,348,547,458,225
371,533,174,198,349,570,464,226
312,518,157,178,343,561,485,202
357,571,157,184,353,576,584,204
398,594,153,210,354,551,556,191
382,637,142,210,260,556,526,171
370,623,148,215,261,519,520,175
372,615,144,214,261,476,479,178
369,576,144,228,249,451,313,190
322,551,144,201,244,444,341,205
344,477,141,196,227,437,344,223
330,474,125,202,225,464,356,210
333,464,131,211,219,477,376,199
336,458,129,239,283,494,380,193
340,446,120,231,277,471,322,173
330,490,136,229,288,426,304,148
331,483,135,215,285,363,251,139
371,481,151,230,284,368,259,166
329,441,147,186,219,286,233,139
356,474,157,163,220,321,255,150
348,447,135,161,203,313,249,133
389,506,149,178,221,347,322,193
352,502,132,151,235,300,298,175
367,537,141,149,230,340,327,188
364,549,142,184,235,344,341,182
401,553,145,210,234,392,386,213
390,490,128,203,211,361,344,167
384,574,128,208,247,413,372,185
391,550,110,204,241,380,356,183
373,519,98,187,221,382,372,186
329,585,104,155,210,342,326,151
294,595,163,197,210,419,340,143
316,548,181,200,168,402,338,123
295,650,227,215,166,423,379,115
329,697,232,210,170,401,336,131
372,649,245,275,275,413,356,150
381,651,213,265,282,339,334,157
383,663,216,264,317,341,351,172
384,560,177,257,317,305,301,171
365,581,182,256,325,309,315,157
339,622,168,206,275,298,306,156
317,597,167,185,298,307,310,153
369,632,199,238,355,442,396,209
360,622,192,233,361,447,394,213
428,604,204,239,377,495,412,225
425,572,200,221,356,485,403,215
482,590,206,278,343,489,415,238
420,496,150,238,249,327,271,178
490,569,175,252,314,328,272,200
427,517,150,246,301,232,219,192
432,564,187,264,356,353,256,218
363,541,189,240,421,368,251,191
405,609,198,249,441,391,267,202
317,579,177,234,401,380,261,176
354,589,189,240,388,431,355,268
344,531,147,229,361,329,337,255
396,604,149,196,289,318,349,273
358,560,151,232,270,386,370,268
401,531,173,241,262,406,381,277
360,529,157,238,263,357,289,183
382,543,177,227,268,432,293,176
370,540,166,226,247,425,268,152
373,557,162,163,211,361,225,155
335,554,145,173,299,369,233,134
339,535,145,188,308,374,237,142
304,502,138,186,287,364,245,158
265,412,133,179,289,354,251,161
341,441,139,204,319,415,288,174
335,434,132,181,237,385,265,177
342,483,175,204,315,391,292,175
329,524,167,209,317,326,274,153
361,569,185,207,333,342,301,176
348,515,182,230,404,297,260,158
355,554,206,259,445,379,279,179
341,523,176,239,389,382,279,184
359,495,169,234,380,383,277,202
335,503,166,311,439,386,248,192
257,499,162,274,350,346,248,186
308,475,137,270,305,264,251,175
313,489,125,260,298,273,247,165
392,498,137,308,334,285,260,173
382,441,143,232,251,436,346,166
462,474,142,238,266,464,358,187
426,474,156,221,271,527,439,214
427,512,167,229,295,561,462,225
388,499,177,173,278,618,485,245
399,602,160,181,274,530,429,242
329,605,164,194,265,526,440,229
341,647,150,186,260,465,356,206
367,638,146,183,246,422,341,219
354,635,138,250,308,363,308,187
348,568,135,265,302,357,295,186
349,568,121,247,298,321,258,188
374,557,138,244,327,331,278,206
347,510,134,238,327,304,241,184
339,564,116,168,250,292,238,170
341,560,120,160,264,309,300,175
333,529,124,169,293,313,303,163
328,475,105,174,251,318,301,149
334,475,97,183,234,345,324,148
338,442,97,171,225,307,316,161
344,424,87,145,203,324,379,170
345,416,90,146,180,328,382,176
317,422,102,141,184,324,399,172
309,442,117,163,203,331,398,169
285,428,119,176,241,329,401,174
294,447,122,169,230,269,285,167
282,453,125,164,221,276,286,164
319,464,119,168,219,262,233,137
394,516,115,166,240,219,213,165
399,571,111,175,254,231,213,143
396,548,112,209,277,240,218,144
436,526,109,210,296,233,226,168
410,531,100,212,297,240,240,176
339,506,98,191,268,261,247,150
351,466,98,181,271,263,245,160
343,485,96,165,258,260,239,149
296,491,99,159,239,264,220,121
286,492,104,145,228,286,229,136
270,465,93,135,233,273,212,131
289,462,144,164,257,300,206,182
267,438,153,158,266,283,198,179
308,449,151,162,275,286,225,181
294,468,150,163,277,245,186,171
302,495,163,171,282,233,179,176
291,454,122,126,229,174,186,121
318,518,121,149,230,278,220,127
267,530,126,169,280,327,205,121
281,481,138,169,291,358,224,138
295,449,128,171,287,374,233,163
255,466,125,178,270,376,222,152
280,500,127,235,301,315,184,165
285,530,120,234,242,255,177,165
415,568,118,236,242,312,248,188
425,561,120,232,238,308,243,166
555,577,149,253,350,401,289,251
542,503,136,180,327,402,298,251
591,528,237,198,384,523,385,273
525,597,240,212,388,503,349,249
540,697,254,236,436,632,427,265
461,741,255,251,449,639,454,207
448,750,261,265,452,645,454,192
442,723,191,287,424,609,424,198
418,656,180,279,418,613,441,199
389,561,154,265,379,473,387,202
340,477,132,244,283,394,319,184
340,530,119,224,257,377,337,195
260,565,89,157,220,288,295,165
255,545,84,155,226,237,263,165
274,518,86,160,205,255,248,131
253,540,88,192,204,247,255,129
248,509,91,202,199,248,237,116
303,450,94,204,200,276,266,111
312,442,90,201,186,255,250,110
289,509,93,190,205,246,233,122
293,550,85,159,260,270,249,126
296,658,86,159,285,304,262,123
239,662,84,156,282,262,208,111
241,720,114,160,290,380,281,121
241,710,118,154,281,389,274,104
265,707,129,150,223,399,270,108
271,573,164,159,228,415,288,126
274,574,166,168,258,428,302,126
297,526,173,174,272,345,260,127
309,516,176,173,269,330,265,131
290,458,172,145,261,305,250,121
277,452,142,131,229,229,191,107
261,477,137,131,219,194,173,106
207,527,103,124,198,167,141,81
183,511,91,128,226,186,152,78
203,585,91,164,235,178,163,104
223,583,94,156,255,197,169,107
234,603,102,161,243,208,177,112
247,544,106,160,236,224,187,115
294,544,105,188,254,213,170,123
286,463,100,178,259,235,161,108
287,483,89,190,252,247,182,125
286,414,85,188,293,295,190,130
316,438,118,199,321,312,198,152
314,425,129,201,320,306,202,157
320,403,138,198,323,340,213,154
319,453,145,188,334,337,199,137
357,458,144,187,304,289,183,133
342,436,124,178,288,260,167,123
322,444,116,149,252,269,178,121
320,441,101,130,221,187,154,120
312,426,93,123,206,172,147,123
332,473,91,139,197,197,175,135
319,518,92,164,215,204,173,123
311,558,112,178,281,205,176,109
300,571,113,179,287,213,174,108
331,545,121,190,288,223,178,103
271,514,135,208,302,217,160,94
278,506,132,189,270,206,151,93
329,474,119,194,230,192,133,99
345,513,126,204,253,229,153,125
321,516,117,204,244,226,151,128
326,527,101,184,234,280,198,130
331,564,106,206,251,304,237,155
272,617,116,190,222,343,256,165
277,646,115,185,201,338,273,157
300,664,137,213,243,338,272,157
292,651,146,214,247,297,267,156
283,590,150,273,315,316,294,141
330,539,145,274,341,297,304,143
327,481,150,300,394,266,293,142
333,452,173,292,388,332,307,152
366,504,180,426,424,351,289,147
379,552,177,393,380,347,255,154
345,612,172,444,382,335,266,168
335,609,173,438,347,400,293,168
366,612,148,462,432,363,289,174
382,606,134,347,418,349,319,183
408,576,147,348,428,343,311,181
406,491,150,289,438,380,314,164
437,515,145,294,484,347,304,173
419,520,141,249,409,415,318,178
436,536,169,240,404,465,332,181
476,529,174,227,389,488,377,207
486,566,175,218,409,474,373,211
463,577,180,197,358,453,359,201
464,551,197,200,378,480,390,215
449,520,187,190,378,499,397,210
372,556,169,184,380,505,404,206
367,594,177,264,453,527,399,205
383,550,166,278,471,540,412,205
372,578,145,265,452,488,401,182
395,582,133,269,433,423,358,183
399,565,143,308,434,563,337,154
396,501,127,257,303,552,341,152
402,517,154,245,258,602,377,175
380,567,146,250,237,604,367,165
358,600,152,268,242,672,443,168
373,586,154,225,251,531,450,180
413,587,158,210,261,517,460,176
397,631,162,205,241,522,459,192
414,614,164,216,289,513,457,197
404,578,183,196,298,531,450,210
393,574,187,194,299,613,472,221
352,614,200,193,301,671,487,230
353,664,199,193,308,715,551,212
341,658,196,179,267,717,573,216
301,700,166,165,245,654,541,204
313,726,187,169,219,641,526,182
310,697,172,171,270,586,489,172
294,647,176,192,282,521,453,191
340,696,179,189,294,493,420,186
398,682,221,190,337,566,456,219
403,669,235,291,449,578,541,222
407,654,235,307,417,584,553,241
426,634,225,301,408,535,498,215
453,524,294,301,420,640,549,235
409,430,276,305,404,595,512,201
424,482,271,218,335,592,433,202
424,509,271,186,328,569,411,172
412,496,271,165,322,565,400,185
334,537,196,167,282,435,302,157
375,603,201,179,322,550,414,171
368,639,167,165,285,488,365,162
374,656,168,166,295,502,382,177
382,653,170,178,317,528,413,176
389,656,173,189,333,549,420,183
367,641,150,178,277,384,320,185
347,541,137,168,249,360,318,195
335,495,134,178,221,354,311,190
332,488,116,178,207,354,305,179
322,458,119,194,237,356,373,172
291,443,120,199,234,364,387,153
265,452,120,205,269,360,378,140
275,551,130,194,290,340,363,132
271,536,139,218,291,309,352,166
306,551,134,215,267,288,284,170
316,525,138,202,276,348,296,173
400,565,143,208,238,366,320,208
392,541,148,208,212,376,332,212
389,555,142,177,223,363,323,186
368,533,145,149,199,381,321,179
377,565,138,152,199,395,301,172
320,554,140,130,214,378,303,136
327,554,123,137,213,370,308,145
341,574,277,184,299,533,424,215
329,586,301,179,323,566,448,239
327,561,305,181,321,513,429,243
303,538,306,186,316,506,423,245
295,489,316,189,315,527,459,265
277,446,204,145,216,368,350,212
299,454,173,148,193,359,362,210
293,434,171,147,203,351,352,206
314,420,175,147,218,375,356,212
298,414,158,135,233,408,335,188
316,408,153,134,254,429,337,188
295,379,132,131,244,365,288,158
346,487,165,150,247,478,450,230
321,475,154,159,266,466,441,219
369,500,194,170,307,516,539,263
351,525,198,190,305,516,545,269
372,561,224,239,353,523,561,301
315,515,203,226,343,424,445,250
315,558,209,217,313,467,479,247
271,561,173,216,275,459,409,215
293,540,164,201,257,489,427,213
293,606,129,140,193,494,402,178
330,596,115,132,174,505,403,188
347,601,123,143,241,516,391,205
357,681,144,187,224,469,409,194
331,723,172,188,222,489,429,186
334,681,173,189,219,532,506,179
304,677,185,214,230,553,502,172
319,647,179,215,181,563,510,161
307,547,162,172,208,543,455,153
342,547,167,175,225,561,485,172
319,638,168,173,226,523,405,182
365,639,190,187,272,663,581,219
369,654,189,187,282,659,611,224
373,634,187,188,270,647,600,217
348,647,161,185,270,662,596,204
359,550,165,190,272,674,628,200
343,629,127,157,226,544,498,160
329,626,119,141,201,483,434,163
358,699,142,145,224,618,565,227
427,645,142,136,198,525,507,234
442,654,138,136,207,567,514,257
429,602,157,173,213,582,535,272
426,619,157,200,222,612,535,279
431,535,158,227,204,527,421,259
366,588,186,244,206,682,586,278
412,623,274,282,285,832,701,333
479,591,290,333,325,834,736,356
581,585,316,343,374,845,797,391
623,600,318,329,417,960,895,435
687,561,321,337,433,1015,950,478
708,555,291,344,465,945,926,502
690,559,266,323,438,990,932,484
637,534,257,341,430,1004,928,462
595,579,256,396,405,876,828,412
524,569,243,430,435,749,671,343
436,525,189,407,374,675,576,233
418,591,190,369,383,571,473,226
397,698,172,367,402,498,357,194
368,670,152,304,409,534,397,173
367,712,182,233,390,457,369,185
393,696,185,240,385,405,349,165
369,639,192,306,426,402,374,162
353,673,203,336,386,446,418,176
366,662,199,368,389,385,364,174
354,672,156,380,384,437,395,171
327,670,164,381,402,501,428,172
330,676,159,345,388,576,457,173
390,575,164,311,424,632,470,200
378,585,218,291,433,778,617,235
386,510,222,272,431,770,624,251
401,496,214,252,402,728,590,247
411,487,219,236,396,671,557,246
331,449,209,225,382,712,582,221
325,451,151,231,417,561,415,185
344,487,146,233,403,538,381,177
338,570,157,234,392,542,410,178
318,604,155,234,402,554,424,168
331,590,139,272,378,494,403,154
327,602,143,252,290,494,419,159
303,582,145,254,293,528,451,176
284,544,138,252,305,520,423,173
297,573,145,268,241,495,395,167
270,610,155,206,224,406,316,214
283,562,196,224,291,483,369,226
282,571,196,238,305,458,311,198
301,541,188,240,295,455,310,197
273,461,176,213,306,445,309,200
295,445,169,190,310,440,319,178
310,460,117,152,253,343,237,186
298,497,101,123,236,287,208,180
292,493,110,120,227,374,237,179
285,568,99,122,212,370,244,187
303,526,98,125,250,351,222,169
283,547,121,199,346,388,242,139
301,505,126,203,346,409,253,136
306,529,187,224,353,394,258,154
307,468,193,225,349,389,242,143
300,492,251,288,424,462,354,215
292,446,247,256,370,419,340,216
291,456,250,280,408,400,367,217
271,421,216,274,450,341,367,215
318,465,250,291,478,365,415,232
283,462,187,242,388,249,330,154
356,545,218,277,432,349,348,191
343,520,223,258,409,353,315,191
369,522,229,266,381,385,331,202
346,473,203,268,358,365,280,191
392,523,241,282,453,444,342,224
337,462,220,253,411,391,323,196
347,495,234,245,413,412,352,198
323,503,221,231,400,419,330,206
317,529,220,211,400,468,348,203
247,459,174,173,271,393,275,167
280,497,195,237,302,477,377,228
271,470,175,242,277,483,362,229
284,482,175,242,260,445,343,207
296,470,200,241,281,488,394,211
299,466,210,244,311,556,439,218
302,497,202,228,268,488,361,162
298,493,192,217,264,459,351,157
288,488,220,225,311,513,376,155
277,470,189,233,294,441,302,150
281,475,180,234,284,348,233,139
227,411,148,173,273,323,220,117
231,422,150,176,283,325,220,126
243,390,103,149,229,244,180,119
244,383,108,133,220,249,183,120
241,392,102,136,194,252,179,116
237,372,103,118,175,245,173,110
228,382,101,110,149,246,161,117
203,425,106,119,163,262,157,120
223,448,93,119,138,224,135,106
216,471,123,123,147,291,199,114
213,497,123,130,154,284,189,119
262,580,160,152,170,290,191,123
288,605,154,148,156,253,181,115
271,624,164,157,185,286,237,154
275,607,147,149,181,230,200,152
295,617,162,158,194,268,217,151
264,521,125,131,168,260,222,134
227,465,138,126,165,278,241,150
215,423,125,117,136,246,193,119
226,478,128,120,131,263,215,122
195,467,107,114,110,225,193,114
191,504,123,122,121,248,212,123
191,533,109,122,146,238,189,106
249,544,118,148,165,297,229,118
260,491,117,170,203,278,209,118
276,465,123,169,211,309,228,122
262,419,106,167,210,284,199,111
278,430,127,188,206,319,260,142
221,435,123,171,193,272,223,127
209,459,154,172,218,307,228,167
204,459,151,169,205,280,214,170
211,503,169,212,242,301,237,172
187,470,163,207,239,277,180,147
193,493,162,202,238,275,191,151
173,471,130,183,181,218,175,96
151,473,133,217,210,224,246,96
161,455,115,177,177,198,241,95
182,429,109,171,181,191,241,117
199,358,103,172,185,183,234,110
246,394,118,171,199,199,238,134
262,387,110,117,182,191,158,133
265,350,109,112,187,195,144,141
260,399,107,93,186,173,144,132
236,406,118,97,178,176,158,132
239,369,153,90,177,211,170,121
230,372,162,89,172,231,179,116
250,390,161,93,179,260,203,118
237,345,157,101,184,257,197,105
247,393,160,94,206,324,249,133
215,471,115,139,256,317,259,134
209,466,105,154,268,306,261,136
166,484,105,152,259,274,241,125
197,489,111,145,271,333,255,138
192,522,90,158,262,274,192,116
168,461,89,127,217,260,170,103
169,484,89,124,200,271,202,114
188,472,98,131,192,288,207,119
161,500,84,129,159,220,184,104
166,421,100,119,170,249,204,117
165,401,105,125,186,270,204,116
254,379,125,143,246,297,205,147
242,362,121,133,256,284,197,143
256,320,124,133,255,296,211,163
247,397,115,134,245,293,203,150
267,413,113,117,220,271,216,154
172,413,86,75,143,210,172,111
172,409,83,76,122,209,175,110
152,467,78,76,127,193,187,94
147,393,75,66,118,152,181,98
123,392,66,74,130,134,161,89
156,405,94,111,134,168,179,102
153,422,94,117,135,169,177,108
167,374,102,140,167,186,152,97
186,455,98,143,171,181,143,102
223,444,122,146,164,253,194,133
208,460,106,120,164,256,184,127
228,459,141,128,190,348,272,154
220,450,141,104,156,345,271,151
212,432,162,118,196,383,310,154
190,450,153,120,201,357,294,146
189,437,152,123,197,342,291,146
179,514,117,108,175,247,216,112
169,528,112,108,176,242,214,114
169,496,92,95,130,208,170,99
140,475,82,98,135,180,147,80
143,502,85,99,147,183,152,80
160,454,88,108,152,185,163,92
171,483,93,111,158,195,191,97
163,486,84,129,159,176,182,104
181,503,80,134,148,205,186,106
191,521,99,133,153,223,194,109
192,527,96,128,156,229,210,115
198,501,98,149,178,222,197,125
244,548,103,149,201,254,244,131
257,530,108,138,219,249,252,140
290,456,86,143,227,249,261,145
311,457,92,148,227,238,242,144
348,467,98,156,260,311,278,142
328,445,98,220,275,305,288,140
316,529,98,247,297,312,299,130
299,577,106,252,296,320,314,125
267,621,106,251,305,344,320,112
222,624,103,296,314,295,285,100
224,605,100,258,292,288,237,91
238,584,96,247,274,267,229,91
259,578,100,245,279,246,218,109
264,491,103,249,262,231,215,114
294,484,94,180,216,259,219,125
313,506,99,166,232,245,229,141
317,551,113,157,219,269,245,145
326,537,113,166,227,334,294,171
353,542,109,185,239,391,342,189
368,548,127,182,227,402,388,220
360,559,122,186,227,417,393,217
357,505,135,195,268,461,431,229
326,503,136,194,283,467,417,208
294,489,137,169,286,428,385,193
271,538,134,193,288,418,345,161
274,540,133,215,363,411,342,164
291,568,129,220,373,428,334,151
306,620,123,211,352,390,330,141
308,656,127,210,346,375,319,144
282,651,133,199,345,414,352,146
308,635,134,161,260,446,359,168
315,627,118,136,194,374,304,173
298,629,123,129,177,356,265,174
292,606,116,137,181,356,260,166
306,566,95,122,174,271,189,152
261,558,99,121,155,205,148,115
206,528,107,110,149,189,126,116
193,505,123,105,160,192,113,117
189,571,145,107,168,197,112,126
162,611,191,94,168,197,121,130
160,650,225,90,169,173,113,131
179,714,234,101,171,169,111,119
171,713,257,113,173,162,104,112
167,671,366,102,150,135,98,104
153,655,378,100,153,123,87,100
156,675,380,105,150,108,84,96
136,610,393,111,166,99,71,91
181,677,393,119,202,85,83,97
204,722,306,125,208,83,78,93
203,751,274,130,211,69,71,101
225,753,259,125,202,74,66,92
232,742,232,115,181,78,82,84
212,647,206,102,131,82,72,75
199,607,186,96,124,78,75,80
243,543,175,91,121,84,74,74
276,535,166,100,150,89,86,95
295,592,159,107,166,89,68,97
303,594,159,112,190,89,68,106
300,607,159,110,187,95,126,123
292,626,155,108,199,154,184,168
283,564,165,105,232,185,221,187
320,511,171,145,301,203,241,228
391,504,184,162,330,241,262,265
413,520,182,189,343,296,355,269
415,591,215,196,345,525,511,268
451,733,211,227,332,559,526,277
482,754,212,260,317,631,632,297
436,744,192,259,289,632,635,267
416,727,190,249,294,624,588,261
396,674,179,284,348,482,489,245
390,543,184,340,393,485,480,214
320,480,193,311,391,483,414,165
333,564,201,335,388,525,419,158
398,533,224,377,443,565,478,174
438,468,224,484,573,621,460,172
393,406,242,623,708,618,482,210
402,415,245,746,787,672,496,206
406,287,245,806,894,661,520,210
363,261,221,825,1028,650,564,245
365,378,211,867,1186,671,625,262
384,463,207,781,1131,745,684,238
395,511,199,763,1120,716,650,239
382,605,215,716,1038,700,639,247
420,627,221,710,890,705,597,209
416,680,260,729,833,672,567,193
422,660,244,724,1036,608,534,218
439,635,251,638,1069,635,582,215
441,619,252,604,1105,685,643,224
408,644,243,562,1112,712,631,217
416,551,228,393,973,737,637,268
412,540,223,327,731,752,676,249
424,528,224,281,587,663,618,245
453,530,224,289,525,690,582,250
442,469,230,279,485,645,571,250
421,463,211,242,427,551,610,197
404,510,214,260,403,508,514,214
408,632,212,293,408,552,536,215
386,661,186,299,395,520,547,197
435,747,201,303,403,512,540,197
484,818,223,269,306,604,471,182
477,832,212,248,269,602,469,155
438,813,196,201,262,562,450,162
414,805,198,178,286,497,401,161
391,801,178,175,269,483,387,156
313,779,137,147,271,365,369,160
398,744,152,177,308,461,469,250
390,748,145,186,333,442,452,238
449,780,150,180,312,425,426,240
426,724,155,178,343,433,418,239
445,680,144,184,333,424,379,236
384,718,150,179,301,348,277,177
413,643,152,169,272,369,281,174
378,566,154,171,266,361,326,182
389,593,158,191,261,388,340,195
402,613,178,231,307,458,404,230
419,574,164,209,314,426,418,206
438,589,189,237,335,441,434,232
434,557,180,237,331,449,404,222
437,515,175,218,318,430,400,226
526,535,177,234,384,413,346,196
505,555,170,242,377,389,272,190
491,560,152,222,360,444,301,189
488,558,175,222,387,462,309,179
474,574,173,231,397,446,311,171
413,570,154,171,287,424,333,180
409,607,153,155,271,416,331,176
554,594,169,169,383,460,346,314
550,628,154,237,458,508,336,324
582,601,162,242,453,557,407,350
570,583,216,256,508,649,483,390
598,544,228,271,525,682,497,411
439,553,225,277,471,599,452,303
425,518,216,229,385,555,467,307
431,534,213,236,430,531,421,325
441,505,152,229,392,371,289,275
401,472,132,242,412,340,270,249
423,546,115,221,401,417,301,263
426,552,113,215,395,406,272,268
371,544,92,200,355,379,225,200
306,556,157,210,338,469,288,208
300,533,163,170,287,468,287,208
243,435,151,164,260,390,245,180
304,420,167,168,269,404,302,218
309,428,177,159,239,411,315,220
297,398,143,178,328,351,280,202
389,397,145,207,345,328,298,245
390,393,149,205,342,327,295,245
346,426,130,194,331,286,230,183
372,447,121,194,353,266,231,210
394,454,103,150,245,202,211,221
324,457,108,142,273,177,160,165
387,483,123,157,282,248,205,202
389,474,131,158,283,281,235,210
361,518,128,153,251,264,211,175
389,521,127,151,264,270,210,191
379,542,115,122,243,263,218,192
315,521,96,156,295,198,196,157
341,560,86,164,309,142,174,162
347,501,91,169,331,181,189,163
302,487,95,164,336,226,204,152
315,475,93,166,314,227,192,158
358,486,112,127,267,274,231,162
340,398,116,120,264,300,234,171
343,388,114,137,240,282,217,170
335,425,128,153,260,282,293,173
323,379,136,147,266,336,338,193
285,486,133,153,261,331,314,185
310,507,148,189,279,396,344,203
301,531,150,185,285,417,364,209
296,523,136,179,248,402,304,190
304,533,131,177,236,369,259,180
305,440,123,163,226,342,245,182
330,457,137,134,208,318,283,206
360,431,140,120,188,330,278,218
364,434,139,107,181,323,277,214
397,453,179,125,203,393,301,204
417,515,177,140,230,404,316,204
368,555,153,125,225,348,241,136
342,574,157,166,281,356,263,129
325,594,165,190,305,369,290,149
280,622,124,184,294,318,279,160
275,562,120,174,277,338,283,168
270,507,128,191,270,369,290,177
268,532,119,165,224,343,257,166
284,532,107,154,188,357,239,159
291,576,112,188,214,384,247,152
272,592,111,193,222,360,225,140
320,658,149,192,250,453,328,172
362,697,165,186,250,497,351,196
368,714,183,198,269,487,353,229
397,659,182,172,272,447,363,235
397,658,186,183,274,450,376,238
414,590,176,183,268,438,391,269
378,534,166,184,275,390,371,249
401,497,163,174,291,397,382,244
376,486,157,177,283,396,367,245
381,485,162,171,340,400,396,259
431,495,147,163,327,310,321,239
428,470,150,216,443,301,321,242
516,504,177,241,521,368,321,269
564,524,187,233,548,378,313,270
559,542,188,236,517,374,264,258
485,540,209,241,532,372,257,233
516,526,209,205,456,372,257,241
409,517,193,179,396,463,383,199
339,510,194,197,372,496,395,204
329,485,185,185,359,490,385,199
379,501,150,181,328,489,364,234
340,530,148,170,312,502,385,235
316,516,118,145,238,346,224,215
321,547,113,141,194,283,209,214
317,555,110,141,191,282,209,214
310,578,114,130,201,314,240,197
325,579,107,145,194,296,195,191
324,610,134,258,299,296,210,197
316,618,133,272,349,304,205,181
329,637,138,273,354,311,228,186
299,574,140,284,377,313,255,166
303,575,159,275,369,295,257,170
326,516,148,208,313,286,264,157
323,469,144,213,316,328,273,185
321,437,153,232,340,338,273,184
444,437,147,226,359,325,246,211
680,419,183,268,382,429,383,363
705,424,188,266,386,475,428,379
712,433,190,261,358,468,452,380
716,430,185,260,339,472,461,385
651,476,186,258,293,455,469,375
391,481,132,216,261,402,433,239
319,453,118,206,258,356,384,221
338,514,119,174,238,336,353,218
334,550,110,147,224,314,339,204
347,574,133,160,239,375,404,222
349,632,136,173,300,374,349,208
367,696,130,166,278,384,343,216
378,652,126,169,268,373,342,204
393,625,135,177,272,399,337,211
346,638,114,228,361,360,272,192
345,607,107,231,324,352,262,203
354,559,106,222,324,352,266,193
324,537,113,218,321,396,325,204
304,563,107,209,330,403,339,201
345,486,109,128,257,398,311,195
345,449,109,88,240,369,305,191
324,491,111,84,236,359,312,194
342,524,116,109,264,367,312,228
344,485,137,194,303,376,349,244
322,502,150,199,274,398,369,230
325,494,158,225,279,429,385,226
363,477,167,232,295,434,395,235
373,460,159,233,351,393,343,203
406,471,141,175,313,357,292,195
404,506,126,203,324,314,253,197
408,497,121,209,338,264,231,198
365,472,111,242,336,260,189,188
347,435,114,247,282,268,256,165
348,425,117,245,275,249,259,163
361,401,116,216,265,230,263,166
343,427,110,183,261,253,273,167
365,422,112,140,251,281,304,174
332,444,103,111,229,279,264,172
272,471,96,115,229,283,256,156
287,452,92,149,221,312,270,169
298,472,95,156,192,289,256,155
315,452,115,164,227,275,305,215
368,463,111,163,234,263,289,213
433,480,145,203,268,268,298,219
407,469,146,191,258,238,278,208
437,485,166,191,291,284,307,227
424,473,156,183,271,254,222,177
395,508,163,209,308,251,226,174
413,453,198,182,350,452,339,271
447,487,219,175,367,455,345,297
418,455,206,177,342,438,320,289
478,501,217,246,428,531,353,304
484,447,214,248,408,530,351,315
453,494,182,241,382,430,292,270
413,479,153,240,364,421,284,234
506,480,219,313,469,483,359,294
464,486,216,285,426,393,331,278
469,498,232,279,449,415,344,285
432,451,219,278,431,356,290,252
495,494,240,289,466,363,317,310
409,505,197,262,433,335,239,252
393,475,200,245,450,340,228,244
400,498,199,229,412,343,266,241
406,497,205,234,401,389,312,250
336,495,180,219,357,386,285,178
315,444,157,148,266,332,303,176
293,463,145,130,196,306,306,172
273,411,121,125,216,267,259,156
297,437,131,144,229,219,215,182
298,396,144,158,262,231,218,175
348,411,146,169,291,229,190,186
344,361,150,170,261,281,209,179
332,422,149,167,269,303,205,168
308,389,123,138,256,280,196,131
306,371,114,129,240,264,199,138
258,351,114,126,237,266,184,137
266,406,88,122,234,201,152,137
256,354,85,128,207,159,149,153
242,384,82,134,222,153,140,152
244,374,72,123,210,155,130,151
220,384,74,101,173,151,135,126
227,360,89,112,242,217,157,140
226,363,102,112,259,234,174,118
239,384,108,105,265,250,176,114
243,411,110,111,274,257,170,131
259,436,109,125,275,265,179,145
257,455,97,115,215,218,171,135
237,455,101,117,196,213,168,137
243,437,110,125,216,251,191,147
216,465,108,121,200,252,195,126
273,429,106,124,215,240,201,150
278,404,111,120,225,260,221,165
293,432,98,116,240,258,214,180
313,437,77,115,208,206,205,172
358,404,102,119,216,209,217,198
322,409,108,100,201,210,231,184
392,396,112,120,201,227,208,207
403,374,117,117,182,269,240,205
466,393,121,114,190,303,253,235
534,408,106,109,182,339,285,239
621,452,113,130,182,374,301,274
648,514,112,114,178,362,304,276
655,560,113,134,180,369,316,274
610,545,117,130,187,393,319,266
539,569,116,129,201,371,321,257
475,591,119,115,201,419,316,223
380,571,124,111,207,463,342,216
392,575,120,98,213,436,320,215
378,619,126,99,231,415,329,198
382,594,133,105,227,419,302,184
337,603,131,99,221,389,311,178
360,637,127,118,220,330,290,147
351,631,144,113,216,354,294,180
379,609,143,112,176,340,291,190
379,653,135,123,177,375,362,205
378,634,129,126,198,355,343,202
382,629,128,112,199,392,366,197
354,636,116,118,195,372,354,169
323,656,110,128,201,363,329,150
314,624,112,112,196,392,315,148
318,599,114,113,177,388,351,180
291,545,109,109,162,356,326,179
374,523,114,108,183,366,357,195
376,448,109,97,184,367,362,202
371,492,106,94,171,292,311,186
360,497,105,106,173,254,260,148
351,529,112,108,195,257,249,155
278,513,120,111,178,319,311,150
275,513,120,109,159,330,311,141
411,455,199,159,233,502,413,254
416,423,214,179,242,513,412,261
443,445,220,196,241,523,434,282
428,446,210,201,273,487,371,272
454,482,227,205,311,546,411,314
374,457,167,234,375,384,297,247
380,538,162,263,456,427,295,243
343,533,163,324,506,419,270,213
365,676,171,352,520,422,285,222
335,686,164,404,538,345,250,166
297,742,166,388,497,350,267,161
335,696,154,358,417,327,313,187
357,656,144,299,362,348,327,205
352,512,150,269,322,360,318,189
355,541,138,191,265,358,307,192
389,494,129,173,226,351,300,202
351,491,132,170,224,301,253,176
343,491,132,166,201,334,280,161
357,485,131,149,222,324,284,205
369,450,132,142,217,330,293,201
356,515,138,154,270,334,297,194
355,547,130,173,288,347,295,197
361,586,138,173,293,318,270,199
400,615,151,181,294,393,291,177
412,605,152,171,294,439,306,191
385,570,149,149,269,454,327,173
407,596,153,160,295,469,374,180
403,578,141,162,312,450,356,179
378,544,118,173,296,386,340,191
384,599,115,182,307,325,352,182
428,596,110,178,271,305,341,194
441,580,107,199,257,339,332,198
507,558,125,199,237,341,353,207
528,542,117,191,259,335,376,180
534,490,130,202,282,338,345,200
514,509,135,212,291,348,352,192
498,567,133,165,258,318,329,202
467,621,124,157,280,336,330,203
440,621,129,176,321,373,334,228
425,599,120,183,309,361,335,218
411,578,123,183,308,373,320,220
390,461,135,232,379,359,320,229
328,405,141,246,397,360,325,218
287,431,139,248,370,309,289,195
339,427,131,237,353,331,306,185
362,402,133,228,348,314,347,228
367,428,138,209,305,303,334,222
380,435,119,193,248,282,303,225
429,431,134,176,217,331,339,232
369,432,135,173,211,306,311,226
439,437,142,198,295,369,320,250
441,455,130,197,328,383,335,233
461,440,164,206,339,458,408,274
447,409,171,192,355,452,398,293
471,471,184,189,369,460,399,298
386,461,178,200,374,414,356,243
429,497,231,166,359,517,416,268
430,559,223,155,371,472,368,242
476,575,210,156,373,474,340,230
463,544,210,228,394,489,360,257
486,561,215,255,347,483,364,256
462,531,166,265,315,363,277,228
448,568,149,267,313,318,240,241
425,583,145,274,303,307,292,254
452,597,129,230,340,290,316,260
510,615,122,177,323,329,328,310
527,630,137,180,314,343,340,327
550,649,139,186,308,355,357,317
524,666,144,240,385,376,358,300
576,668,141,257,325,404,342,271
511,656,130,243,328,397,324,220
514,641,111,238,327,384,354,199
504,511,119,262,365,394,377,193
509,494,126,235,321,393,358,189
428,467,149,255,338,412,363,199
438,449,151,267,338,394,375,201
411,435,150,276,353,408,370,208
411,493,157,269,362,432,354,209
418,465,162,290,350,417,330,247
437,455,155,287,425,472,385,250
448,441,152,322,437,478,370,253
459,467,143,317,433,464,351,257
492,419,129,325,416,572,427,257
476,436,109,289,391,558,445,214
427,463,88,250,299,497,393,205
395,446,105,196,315,535,425,197
384,427,129,242,354,566,427,180
342,414,125,210,335,442,336,161
360,441,127,199,335,432,314,161
379,457,137,199,324,409,292,158
371,465,152,297,516,487,277,167
387,454,136,273,509,457,259,161
375,488,150,268,500,484,268,172
400,467,162,272,506,498,338,196
430,439,162,287,558,598,465,246
469,450,176,205,461,557,492,243
445,510,202,200,443,571,525,247
430,582,195,202,450,534,532,241
384,593,190,214,513,553,518,251
350,586,187,206,506,469,438,206
384,579,156,179,425,391,386,209
440,536,121,163,463,361,349,215
456,481,136,307,540,391,322,210
534,479,128,306,508,364,270,188
568,494,166,310,473,346,257,238
527,530,166,336,479,328,279,234
497,568,172,344,449,349,278,227
503,599,155,241,363,326,325,246
409,591,175,249,326,354,348,236
366,575,134,235,307,318,315,175
433,562,127,195,294,360,317,191
410,522,123,188,295,327,336,225
386,452,143,204,280,351,308,207
403,438,125,190,268,305,286,211
412,527,134,211,273,304,279,213
343,506,141,231,269,280,255,203
347,516,133,235,244,291,212,162
359,539,120,208,224,248,189,179
338,536,112,196,215,239,183,173
342,503,115,193,266,271,217,202
383,499,106,212,301,261,211,206
378,568,113,199,322,256,228,204
390,575,117,225,338,285,252,203
452,605,133,256,410,327,262,208
466,565,128,252,382,299,240,175
462,564,159,243,376,322,274,164
490,491,181,331,461,341,257,173
463,456,174,322,482,324,252,183
399,409,166,300,437,289,244,174
411,447,165,294,437,296,240,174
383,445,142,283,435,255,186,161
334,420,108,245,454,245,187,151
341,384,103,234,430,232,154,113
406,400,106,240,435,251,177,148
396,459,99,233,422,240,173,154
406,476,125,278,538,286,176,151
446,510,154,237,470,331,196,153
464,599,161,238,469,332,219,160
424,611,154,231,451,311,204,145
418,523,156,247,483,307,203,146
406,521,144,256,392,331,201,161
419,499,123,233,356,263,169,160
392,520,138,229,341,293,196,162
382,494,149,249,380,317,197,154
422,547,162,271,409,339,275,174
412,539,161,231,395,276,275,160
442,589,209,245,455,396,316,249
440,521,207,256,472,375,290,252
499,581,206,251,454,378,308,301
435,545,203,222,424,371,239,291
469,560,226,203,420,459,393,368
429,543,184,190,360,398,371,320
525,520,200,203,377,408,379,350
460,449,204,209,418,399,375,308
493,508,207,226,420,415,413,340
502,522,174,223,382,330,295,275
477,506,169,219,363,282,286,275
433,574,194,258,400,289,314,287
452,579,181,252,355,274,297,292
420,536,176,232,332,242,247,251
421,523,184,225,338,296,266,256
430,545,188,253,374,332,281,256
404,518,145,211,316,359,270,221
382,523,148,193,310,361,269,218
383,511,145,180,301,350,270,217
334,515,154,195,300,312,236,200
353,459,151,161,269,287,222,194
322,402,136,128,247,209,170,156
328,413,131,128,221,241,181,155
345,451,132,148,230,254,179,181
336,428,107,203,258,233,160,165
308,452,122,206,275,290,171,171
285,434,116,207,272,293,165,165
371,431,145,231,338,308,238,227
369,467,142,221,318,309,243,209
385,492,154,188,374,345,270,233
392,474,150,183,361,309,258,237
464,528,182,283,456,344,275,263
431,509,164,284,426,321,214,221
463,459,180,293,432,330,239,230
439,485,168,274,353,292,209,211
428,471,166,277,365,300,208,199
495,459,144,222,261,294,211,256
477,456,136,199,250,274,200,251
470,520,120,212,249,321,182,254
476,477,117,214,257,316,190,251
488,562,137,205,243,316,217,254
354,551,130,158,231,289,188,167
343,551,143,173,269,312,192,166
459,488,147,159,289,249,178,251
455,486,151,150,289,246,184,266
466,431,143,167,287,220,177,281
469,425,150,211,399,297,212,284
473,417,141,207,393,280,210,280
372,395,135,195,381,295,213,214
372,394,134,202,384,298,204,196
377,381,136,198,380,285,191,197
382,349,130,156,303,198,153,188
408,348,127,142,276,200,174,193
432,421,127,141,276,262,251,212
433,446,129,130,272,270,255,218
403,400,112,148,312,302,251,186
443,458,172,195,311,360,289,236
435,500,176,202,307,350,282,237
403,442,212,208,310,344,256,236
429,492,217,221,306,358,254,235
446,493,219,210,282,336,263,264
397,477,177,168,259,291,234,238
395,466,188,160,273,319,261,252
360,506,145,168,269,259,214,217
318,436,138,166,275,236,212,211
346,458,131,177,253,290,230,199
338,431,126,170,223,282,226,181
384,466,120,169,213,272,197,163
375,460,118,190,218,271,195,158
418,461,116,189,224,286,209,180
387,457,125,183,259,254,198,165
401,458,123,175,249,257,191,175
334,416,107,176,240,235,214,161
327,371,111,147,229,249,215,181
326,418,110,139,265,276,235,187
327,468,113,119,255,255,212,179
340,487,115,123,255,262,222,182
365,479,124,128,254,284,227,188
376,522,124,118,256,273,227,179
368,549,126,125,213,243,226,162
361,540,121,143,186,265,230,169
347,601,124,137,182,243,217,170
410,669,117,146,205,270,187,166
451,635,111,164,192,319,194,189
440,615,101,153,198,314,165,187
519,606,101,164,276,341,230,189
534,536,102,202,336,376,262,185
519,484,115,210,351,386,298,211
483,474,115,234,382,385,326,195
504,454,119,261,410,394,353,225
418,500,117,268,404,420,383,231
396,503,117,276,407,388,367,223
404,503,112,288,467,437,384,209
445,620,138,610,705,474,382,215
451,684,218,731,875,492,362,199
510,814,240,735,889,489,316,210
568,928,273,730,879,524,352,217
612,934,304,797,917,518,391,257
595,885,347,604,843,530,472,283
634,849,328,492,687,705,571,292
634,748,314,489,744,719,600,301
637,675,296,483,743,781,625,309
603,646,313,440,727,851,659,295
618,667,271,472,692,891,624,273
593,685,243,432,675,796,581,277
595,710,254,434,586,775,558,286
565,657,245,449,584,736,582,284
551,694,205,371,488,698,558,289
549,699,215,307,424,646,582,308
516,649,224,318,389,645,593,321
515,539,224,302,360,676,630,290
551,668,260,307,363,716,641,280
581,682,242,319,365,662,636,289
576,670,219,335,351,718,658,261
568,666,222,332,382,784,768,236
524,655,206,344,389,755,759,248
541,553,171,324,387,716,718,258
501,534,177,311,407,729,691,224
507,638,182,324,385,682,657,232
506,653,167,302,364,554,477,209
501,705,196,283,353,548,426,198
411,721,216,280,364,560,421,201
373,694,217,287,352,493,383,188
362,557,209,215,321,445,366,213
347,581,219,223,321,427,336,217
443,682,194,226,343,461,414,214
454,629,159,239,340,402,405,201
446,613,160,244,351,469,433,216
454,629,167,251,338,551,475,187
453,635,154,291,367,564,484,189
400,495,153,323,337,522,422,190
382,551,157,323,315,540,434,191
385,582,148,320,357,505,399,169
352,587,155,372,450,400,321,145
403,558,170,344,436,381,315,153
346,547,178,314,457,387,303,150
385,504,170,302,456,330,255,157
387,479,173,276,408,316,277,178
431,460,155,222,347,289,251,208
424,456,159,227,362,291,241,210
467,438,172,257,388,331,261,236
455,418,177,255,385,333,256,227
478,418,179,254,371,342,288,241
430,471,177,231,350,391,318,233
392,487,158,197,328,386,313,219
435,574,161,174,295,392,373,217
453,570,153,168,293,399,381,233
434,593,148,180,334,384,361,217
470,640,173,202,335,330,333,205
555,626,192,245,356,379,356,212
503,602,201,267,347,392,404,195
467,591,201,279,356,387,396,181
483,634,201,273,315,385,402,161
478,577,193,265,294,391,398,155
403,566,178,235,287,437,419,178
477,522,162,303,399,401,310,222
500,635,171,341,453,418,330,227
487,577,171,343,488,467,352,246
468,531,160,356,513,509,409,272
476,579,177,368,519,505,445,297
427,616,173,328,477,534,462,272
433,607,164,306,468,585,503,297
462,671,177,315,449,629,543,303
500,753,227,340,455,660,538,309
533,828,231,349,519,744,563,311
525,818,231,310,496,767,597,334
529,799,247,307,464,779,582,310
584,742,245,322,455,761,620,413
616,720,250,317,468,884,675,415
587,594,264,329,351,822,614,391
570,599,264,331,318,795,572,379
594,564,262,337,313,778,575,397
521,562,259,314,312,741,477,296
521,533,252,375,252,558,366,374
521,591,222,344,277,537,408,373
548,594,216,371,293,575,444,377
492,589,245,390,279,532,405,376
507,625,281,453,322,580,483,392
428,602,255,422,368,546,477,301
407,578,254,432,345,505,448,302
379,552,248,408,337,418,390,282
396,600,219,365,352,457,444,273
359,548,171,290,311,393,340,219
368,561,156,201,222,379,323,215
350,566,168,181,238,440,377,207
372,574,179,176,247,458,418,214
387,484,159,197,222,396,349,212
461,537,158,181,236,450,383,217
491,630,157,179,243,487,396,221
490,594,148,191,248,441,342,214
463,633,130,208,323,419,291,189
466,656,175,237,335,581,398,155
392,668,165,239,322,549,386,163
359,551,180,255,324,558,418,178
383,583,188,250,311,559,424,195
410,542,185,237,237,592,430,210
418,585,201,277,257,463,356,248
405,549,202,298,380,433,330,236
405,588,194,295,432,389,281,218
495,571,184,278,442,365,267,228
486,564,197,315,448,329,272,225
460,495,210,243,477,470,373,293
503,497,251,278,495,614,434,322
538,525,251,313,484,726,598,366
490,550,262,391,509,748,617,369
487,551,257,365,513,748,612,365
511,583,203,364,477,684,547,300
523,599,148,323,375,578,531,289
574,551,153,288,441,454,452,290
594,522,130,207,489,474,465,299
609,558,120,212,487,481,468,299
590,577,124,206,479,445,489,280
627,613,139,209,468,431,474,270
531,630,151,200,415,401,365,207
545,631,166,177,353,361,332,177
530,650,174,175,353,332,330,178
546,606,181,178,365,329,292,184
553,529,202,210,383,395,330,245
575,509,192,221,318,388,332,252
502,507,192,242,324,368,303,259
501,432,185,227,315,420,314,264
560,511,204,242,309,539,402,268
486,620,176,220,280,485,347,202
460,608,169,206,280,477,339,180
536,671,169,167,269,554,367,255
615,661,261,265,332,561,403,321
550,608,248,260,349,459,366,328
537,478,262,253,378,451,359,329
601,502,292,260,403,557,396,361
546,429,296,276,371,476,361,303
475,450,223,195,316,462,312,253
471,454,216,193,287,466,280,242
462,537,204,219,274,502,301,249
378,600,158,217,267,409,265,219
404,572,128,193,265,415,288,219
385,634,123,185,237,358,279,199
416,618,126,168,235,363,279,240
429,588,121,142,244,317,277,230
441,606,129,129,237,302,296,218
429,628,138,150,256,310,304,242
493,576,161,147,299,349,361,250
456,607,196,192,303,304,377,221
453,609,201,190,312,372,388,230
438,522,200,226,317,445,451,258
416,551,199,279,350,446,472,242
342,521,188,289,328,434,437,226
499,568,188,280,347,458,421,232
502,562,183,268,322,429,421,220
536,575,196,250,356,391,342,192
522,536,193,185,339,368,320,178
521,578,211,193,382,454,364,190
452,553,186,167,364,442,348,192
470,552,180,179,354,451,355,201
447,516,164,189,317,440,372,202
538,506,170,203,296,475,447,218
630,476,147,186,216,379,407,230
583,436,147,192,215,377,409,209
607,455,148,188,219,385,391,207
602,482,148,189,210,384,379,204
555,474,132,183,205,370,272,184
466,462,140,214,215,409,282,161
462,498,126,214,235,468,321,165
391,456,140,206,272,433,317,158
387,419,135,190,266,416,294,159
424,445,170,199,258,418,289,212
411,443,159,163,252,420,313,208
404,372,155,154,234,357,260,217
447,376,148,153,237,381,292,230
490,375,153,140,237,381,351,279
422,381,126,108,248,343,351,235
406,369,136,125,253,327,346,237
431,363,142,129,252,346,371,234
419,404,181,207,224,367,362,245
399,443,180,214,213,368,336,199
404,453,170,210,190,379,332,202
398,434,174,206,202,429,366,226
454,505,175,211,195,406,348,219
468,484,133,139,164,372,335,213
488,488,141,126,180,407,401,215
526,443,166,194,170,419,402,260
543,488,160,198,142,347,344,239
526,423,167,215,147,394,387,277
503,407,161,219,174,388,381,277
499,422,166,232,195,400,289,277
537,468,170,215,208,433,320,258
531,481,183,203,235,503,348,270
510,477,175,185,235,470,318,242
613,475,183,176,240,501,335,304
613,457,176,166,213,446,332,303
546,423,161,149,220,458,305,295
552,423,136,155,202,458,304,298
546,435,143,153,207,523,332,304
416,433,175,232,180,495,336,251
387,465,172,238,186,554,408,259
398,502,197,235,219,622,488,249
379,572,198,255,230,575,482,231
398,596,198,266,243,522,453,219
416,659,169,215,279,544,455,195
428,615,170,223,277,522,404,166
415,689,148,215,251,436,349,167
410,637,163,202,246,436,344,185
393,638,165,186,248,429,379,179
440,601,172,213,236,467,389,195
411,695,173,200,246,430,374,204
527,610,190,207,271,365,350,212
577,617,176,209,264,397,367,226
583,582,177,217,244,406,330,222
548,587,175,181,259,407,349,234
628,505,194,201,250,425,369,265
576,527,179,200,225,471,375,273
554,502,194,254,227,433,345,264
613,531,206,263,252,530,469,325
609,503,198,286,209,482,431,328
522,575,186,277,222,505,415,308
505,531,183,267,240,497,436,299
472,584,183,213,282,520,479,291
393,587,174,191,265,443,388,237
392,605,174,148,268,516,413,204
389,600,161,126,276,509,441,189
358,599,147,139,253,486,394,176
333,527,121,121,195,490,375,160
325,511,99,104,182,482,370,167
365,526,108,100,189,527,351,179
370,443,113,102,158,503,335,183
386,461,116,91,175,532,338,199
395,444,115,80,177,509,324,201
358,490,127,81,200,540,303,171
317,495,154,94,225,475,366,170
324,516,151,100,227,485,352,170
315,547,160,132,223,460,349,148
308,594,163,136,232,522,419,157
322,580,161,142,215,548,432,173
324,608,140,149,182,557,382,169
306,602,144,149,187,548,381,158
290,576,141,155,202,607,409,173
319,613,140,155,244,606,325,164
324,595,175,189,283,660,345,162
354,630,217,255,312,722,449,208
368,605,229,257,333,834,541,227
449,656,248,243,359,988,677,261
436,631,267,256,338,1014,696,265
460,668,252,239,322,1039,711,281
435,576,217,161,318,993,680,276
425,611,244,171,299,955,648,265
368,572,244,154,263,776,486,235
379,527,234,138,263,784,490,238
328,489,226,145,252,652,428,211
303,506,219,147,216,603,362,159
305,465,172,136,198,504,283,149
262,535,139,155,168,453,289,137
237,560,122,160,142,360,254,126
257,568,126,164,132,353,258,122
264,545,126,181,124,350,263,128
277,590,192,207,155,387,288,144
266,550,195,196,173,432,296,135
310,564,204,196,189,487,354,165
346,582,231,255,192,535,426,196
475,628,248,293,241,677,501,242
527,652,277,319,276,721,514,250
584,638,291,391,327,800,576,258
591,645,307,449,358,790,589,324
698,697,380,599,394,852,605,377
660,701,417,637,395,924,734,387
619,664,373,630,405,958,806,400
594,642,371,619,385,977,814,408
610,635,380,578,377,1108,883,382
542,576,324,407,371,1150,938,353
508,560,291,362,415,1159,880,363
536,612,293,354,390,1176,839,356
521,646,281,299,379,1145,801,339
471,628,245,304,352,986,692,296
376,593,197,267,329,869,578,252
376,571,160,191,238,780,579,192
324,514,158,181,213,685,550,164
308,469,161,214,273,626,573,173
308,494,162,208,300,641,574,177
298,502,157,205,294,627,551,178
257,523,142,210,292,471,403,149
241,487,159,231,326,426,366,139
227,483,150,203,264,394,295,121
213,448,152,190,243,471,302,110
246,436,149,196,227,446,295,106
338,405,147,206,220,447,296,152
344,395,113,165,164,441,275,155
364,379,126,204,219,510,315,177
452,393,177,282,291,556,425,249
445,397,206,300,312,609,483,261
401,461,227,301,348,641,505,244
402,537,230,304,359,694,523,241
409,579,247,313,335,706,548,238
317,605,215,259,271,624,451,170
359,628,210,330,257,763,553,205
406,616,189,356,251,770,569,209
417,587,190,355,247,757,569,219
403,642,167,346,260,690,512,211
460,627,171,392,319,667,526,214
464,615,216,472,478,673,499,189
423,646,235,477,504,666,492,199
444,627,249,486,518,664,531,216
542,621,278,508,532,700,569,229
492,597,276,484,530,727,554,217
446,648,238,382,558,629,477,198
482,582,227,351,630,652,458,185
481,667,224,357,736,686,398,170
400,656,186,354,819,717,380,156
431,676,186,426,865,695,365,180
421,612,178,412,779,647,317,166
393,623,181,426,723,612,308,179
384,541,202,425,626,542,326,179
389,497,201,388,513,454,326,194
391,480,246,483,640,465,335,178
557,549,252,516,668,494,400,285
577,610,265,537,703,483,414,289
598,711,270,532,726,545,432,301
589,696,275,530,715,562,410,292
591,757,244,391,536,546,417,312
529,737,238,384,592,469,427,289
496,694,228,348,540,475,452,286
479,691,218,345,505,393,483,269
470,706,210,351,505,356,485,266
470,631,202,318,560,374,487,245
369,655,207,353,601,424,423,168
358,680,189,359,639,426,379,164
333,634,152,353,627,436,314,177
355,598,151,352,633,452,315,197
340,622,155,379,582,419,289,194
345,567,160,297,493,399,304,216
338,506,158,290,425,392,298,211
392,435,202,313,449,461,401,210
367,442,207,305,432,455,391,196
400,495,244,274,431,506,440,221
399,482,232,247,353,474,415,195
457,559,250,275,446,445,421,205
464,576,237,251,441,413,332,242
506,649,236,247,446,400,331,246
514,612,203,233,421,456,320,296
534,621,228,260,429,458,317,301
495,573,224,222,379,550,389,299
452,554,207,217,348,529,390,268
399,539,207,214,359,531,393,281
330,530,189,213,344,430,351,212
324,566,193,190,322,498,385,213
345,576,179,139,277,453,322,203
350,601,223,174,287,440,310,198
469,553,246,186,365,563,324,242
482,533,251,186,373,567,320,236
503,538,257,224,398,548,328,267
547,560,282,230,414,592,358,327
528,533,248,219,404,581,339,326
446,552,264,354,356,506,333,275
450,601,262,377,400,499,331,273
421,552,230,350,370,440,284,230
383,502,210,353,315,313,227,132
426,473,211,355,342,302,224,129
407,438,166,264,371,233,218,119
407,364,184,270,402,286,260,148
439,482,193,285,426,335,263,197
434,495,186,288,453,381,271,214
399,544,194,307,444,421,286,240
388,546,185,268,394,531,340,261
380,556,160,230,320,507,333,248
348,466,160,215,314,491,337,227
382,468,145,195,284,482,347,247
403,433,146,136,266,475,366,223
447,455,143,152,262,342,319,212
448,451,154,197,304,362,308,212
478,483,136,209,310,447,339,233
413,511,133,220,319,406,307,186
451,541,131,257,354,439,323,197
432,564,163,251,369,518,367,205
442,545,160,226,324,509,365,206
391,602,208,292,415,436,346,180
416,565,220,310,439,462,354,196
383,527,207,277,405,426,306,179
386,527,207,274,410,334,241,188
360,544,202,266,416,317,232,181
378,535,166,193,311,304,191,171
373,589,168,192,283,336,207,174
345,598,169,194,282,295,204,171
306,576,138,193,238,327,217,137
327,599,147,191,231,365,218,162
297,521,133,161,229,357,219,155
315,560,167,207,229,456,317,166
321,558,167,215,236,460,320,192
338,565,174,226,235,430,304,190
336,574,174,228,223,412,308,186
360,561,180,255,253,433,350,222
343,453,139,221,232,267,255,198
325,442,136,212,239,261,241,172
341,410,127,215,239,319,274,180
337,343,118,210,238,341,271,173
374,424,116,277,295,371,244,153
356,416,103,257,289,364,229,149
353,408,108,260,295,442,282,154
398,387,164,284,331,455,298,159
393,428,168,295,344,426,293,149
400,414,190,252,359,412,329,220
415,423,195,268,383,410,329,234
420,458,193,263,377,383,296,232
417,478,150,223,383,338,257,272
423,460,155,259,419,357,257,275
363,420,119,228,363,328,179,204
342,440,143,207,366,361,248,198
338,426,143,212,363,299,237,196
272,430,136,214,327,273,225,160
244,410,122,155,265,251,227,154
258,425,131,135,253,356,268,163
262,413,102,111,205,317,198,153
276,489,109,105,207,323,206,169
261,477,114,116,241,318,195,123
272,489,119,124,276,331,221,120
294,452,111,127,264,241,177,117
279,442,101,127,257,243,179,112
280,389,106,167,275,233,173,96
285,383,96,164,242,227,177,116
295,378,102,174,202,219,144,131
304,405,96,177,188,165,127,129
302,396,95,179,190,154,122,132
362,440,102,184,164,179,166,146
364,460,98,183,171,179,167,137
368,452,98,189,169,179,174,128
339,467,102,197,192,194,194,126
361,461,111,215,209,206,227,127
298,387,111,201,244,268,229,123
301,414,114,193,242,271,229,141
305,444,115,172,244,265,221,145
298,439,114,179,261,282,240,141
279,508,109,163,273,284,215,137
275,517,101,167,253,230,217,122
283,530,104,167,254,218,219,124
275,543,102,184,265,251,290,124
284,534,103,176,243,235,271,132
306,536,114,174,232,266,309,145
301,514,106,148,208,267,290,148
280,561,107,151,209,288,297,130
256,559,98,131,192,300,244,121
281,577,91,121,193,348,257,135
287,529,79,124,206,366,234,130
313,623,82,122,220,358,234,139
313,538,73,122,210,347,229,148
336,510,70,114,212,310,211,154
301,516,85,116,221,267,226,134
261,504,83,114,224,212,203,131
295,420,90,121,213,284,257,169
289,424,93,123,208,289,254,160
340,464,110,134,262,379,336,239
343,432,104,129,246,366,312,239
410,468,125,130,234,383,336,249
377,476,120,130,236,328,295,217
397,468,128,134,259,354,299,220
372,427,133,150,227,291,228,155
399,425,134,146,228,298,233,156
390,459,126,143,232,266,211,151
420,421,131,141,249,301,200,154
405,425,127,138,245,297,212,148
407,425,114,113,240,267,184,125
392,436,115,114,230,290,201,133
359,363,105,111,210,309,189,133
315,365,106,128,190,281,190,133
302,341,106,133,168,257,166,130
244,347,99,152,144,252,172,126
306,416,114,155,150,237,174,165
295,416,112,162,165,211,162,151
329,471,137,225,227,252,187,166
332,500,137,227,222,242,177,166
386,570,167,225,275,265,196,187
334,517,156,222,280,245,161,147
332,534,162,228,312,261,175,155
303,550,138,166,282,222,158,140
346,573,139,157,310,214,181,144
294,498,105,142,268,189,159,127
280,502,110,152,279,197,176,120
278,513,109,144,243,204,209,110
299,430,108,124,226,196,207,102
285,375,115,127,184,208,200,115
270,424,109,122,169,198,195,98
323,453,110,113,140,203,189,147
312,411,112,112,142,200,156,147
315,423,110,112,178,223,174,153
291,422,99,105,192,209,179,147
297,378,98,103,192,213,197,147
237,321,90,107,194,219,209,106
232,319,76,126,194,197,199,107
171,322,72,132,168,180,185,99
187,360,80,130,194,233,217,96
204,333,87,131,207,257,223,115
216,388,86,122,198,239,225,135
230,433,86,131,218,257,237,154
234,455,98,132,220,259,233,156
228,449,90,130,194,229,194,166
251,456,88,130,187,258,226,169
252,462,88,125,187,273,226,150
249,449,88,79,140,258,220,127
246,420,74,65,129,271,236,132
278,473,74,69,153,276,257,137
255,485,78,70,170,267,218,124
267,464,82,81,168,270,223,127
287,474,85,118,201,282,237,130
285,479,100,128,229,287,222,128
268,423,101,133,222,281,195,104
285,448,95,137,210,283,198,120
286,408,89,140,213,271,171,117
291,427,85,121,195,277,174,121
296,419,65,109,155,250,169,115
299,413,84,126,156,301,191,127
275,373,86,126,162,272,183,112
271,475,100,159,183,267,192,109
306,445,124,166,194,331,201,123
319,448,128,207,229,332,210,137
363,454,127,209,254,281,197,127
399,498,141,210,270,282,198,140
469,467,158,200,312,361,210,151
511,472,151,284,344,293,181,142
521,496,154,261,328,300,194,143
494,529,148,262,335,333,225,142
478,500,141,264,332,371,268,135
463,524,130,270,312,395,345,146
420,550,134,206,343,473,387,154
407,522,137,202,354,489,383,154
433,514,139,186,336,542,406,166
459,545,158,190,339,589,445,177
430,546,164,164,341,544,415,170
415,518,157,127,272,476,378,170
454,579,157,135,255,480,395,174
412,546,159,138,253,400,372,175
404,524,144,140,262,305,329,159
375,455,136,180,256,317,308,161
377,460,138,182,288,336,302,155
423,426,139,179,305,337,301,140
461,428,151,182,304,348,272,122
479,438,145,198,298,344,280,156
483,474,141,175,314,325,266,163
523,519,138,210,299,316,275,165
443,490,128,211,284,293,249,161
408,493,109,204,270,278,264,164
354,467,108,189,259,264,199,131
357,440,100,179,234,257,181,105
281,373,93,121,211,286,188,117
336,418,105,107,209,289,187,130
348,417,111,115,223,279,176,147
384,409,115,138,264,300,223,148
415,418,107,147,252,294,240,181
442,486,122,150,243,249,259,183
413,450,111,150,244,225,252,181
420,497,122,191,272,262,293,187
398,503,127,174,261,236,258,192
473,525,166,171,283,248,273,224
442,489,161,174,281,251,258,212
439,517,164,179,285,287,278,215
418,505,169,142,282,346,282,210
449,515,164,157,278,371,305,227
332,497,124,146,246,356,286,180
310,497,117,140,248,353,279,180
304,517,115,135,254,333,274,175
310,499,109,215,370,305,251,186
271,538,130,283,363,348,309,164
335,635,176,293,372,532,402,239
376,635,194,321,403,567,423,247
397,592,217,345,422,704,486,269
428,657,215,315,311,748,524,264
423,615,210,319,363,735,517,274
400,520,188,319,428,622,460,234
382,595,182,312,413,602,465,230
367,617,189,396,594,532,455,228
322,537,197,429,678,456,406,215
356,557,211,469,771,471,376,211
352,600,216,474,838,476,365,175
359,578,209,468,840,464,364,174
371,560,195,414,744,393,313,153
369,582,194,425,746,458,345,157
371,601,198,360,617,425,349,149
426,596,205,355,497,495,382,199
439,520,213,348,556,493,353,225
465,572,215,320,535,539,357,238
519,615,220,283,604,500,321,259
501,587,198,257,600,525,341,262
461,553,172,249,591,481,314,231
478,584,163,259,533,495,335,219
442,532,146,263,523,421,311,196
484,477,119,253,332,404,374,225
479,503,122,238,379,353,335,215
482,529,129,244,369,332,349,233
436,496,126,234,363,317,323,221
466,545,146,223,375,336,358,234
411,547,152,194,342,371,318,194
434,572,155,222,375,402,330,243
402,517,147,213,361,389,303,232
451,553,169,214,382,453,372,251
449,495,161,201,355,420,328,238
418,504,165,185,350,401,346,232
429,476,159,136,307,414,356,199
446,541,183,192,339,416,367,205
450,568,181,194,330,348,307,205
426,596,165,194,318,346,307,212
507,598,195,191,326,336,316,232
466,571,203,258,326,285,296,218
481,523,209,267,463,382,347,236
428,454,197,269,472,391,338,207
483,486,203,269,479,404,352,207
387,453,163,267,473,367,289,176
396,459,163,243,482,376,315,188
374,434,135,190,319,252,233,154
395,410,165,198,312,266,259,162
327,317,158,200,298,252,253,155
366,396,174,216,319,297,266,153
387,380,167,185,270,277,224,138
400,423,167,189,303,291,255,159
415,429,139,172,265,304,263,162
414,473,143,169,269,304,267,176
375,397,132,149,251,264,251,181
365,445,127,126,242,277,269,193
332,408,130,101,215,265,239,167
317,430,128,104,209,218,195,178
312,417,130,108,228,204,185,161
328,450,125,132,222,259,230,176
290,413,117,132,224,249,212,160
323,422,105,147,220,281,219,183
304,410,104,142,220,277,223,161
296,411,120,268,360,345,225,164
277,367,111,285,392,307,175,138
345,462,117,303,389,327,195,144
316,450,117,304,389,295,174,103
349,472,128,307,395,335,210,139
358,493,125,230,297,289,193,135
406,519,148,230,284,318,216,196
372,444,143,212,282,297,196,188
432,503,157,207,295,401,307,269
409,488,143,218,327,386,294,257
408,487,130,197,307,368,299,269
368,460,114,179,273,356,344,231
446,468,121,167,273,356,360,246
397,441,110,171,261,257,301,172
399,440,125,189,297,263,313,178
404,407,125,192,307,316,332,171
403,392,123,169,307,296,279,170
338,369,142,185,332,386,299,173
338,403,141,202,361,406,291,163
335,384,129,178,301,380,270,157
338,395,128,166,276,339,246,158
340,416,120,175,303,383,249,175
301,423,105,186,307,315,199,146
307,380,108,179,313,304,197,180
300,428,113,173,322,324,192,177
291,448,118,173,334,335,194,164
290,470,125,160,309,283,172,149
300,480,116,135,307,263,171,156
317,470,110,110,252,237,169,119
315,434,131,123,260,230,174,121
335,427,134,143,261,223,193,145
317,412,128,148,250,233,196,136
351,395,152,145,204,313,246,155
337,395,164,154,200,305,226,141
388,405,160,164,219,344,229,187
375,381,155,149,204,345,213,178
432,403,165,161,246,370,223,226
411,396,145,180,303,342,207,218
426,387,130,184,309,345,228,228
385,452,116,160,284,322,232,208
421,469,110,163,318,384,247,223
372,437,94,179,321,377,279,185
451,455,123,168,321,469,354,189
446,477,118,152,327,488,352,185
474,437,129,160,336,478,368,197
454,453,136,170,334,443,369,213
496,457,141,150,338,479,368,220
448,435,114,142,301,389,282,210
438,442,124,143,296,373,275,214
428,415,118,183,336,385,274,213
413,380,121,177,311,371,270,178
401,384,129,168,297,338,248,178
385,390,130,161,287,305,227,195
386,384,121,159,284,360,248,196
371,410,111,108,220,334,215,176
385,403,96,93,208,334,211,173
344,427,75,84,177,300,241,163
324,414,90,96,194,283,243,160
308,398,98,109,223,219,220,152
405,390,104,102,234,288,251,169
408,377,110,177,266,296,248,177
462,357,122,197,278,289,201,181
462,363,117,192,264,303,203,169
500,373,115,193,249,303,236,182
457,389,117,196,243,255,203,169
427,421,114,145,226,283,214,161
410,411,104,126,221,290,237,175
440,422,98,127,232,289,233,175
406,427,98,119,251,267,204,171
366,407,102,112,273,262,208,156
456,405,113,100,293,320,219,187
439,420,117,95,295,328,190,160
417,446,117,104,298,336,212,173
499,436,111,105,273,353,226,183
516,429,117,144,278,349,229,200
462,407,114,146,243,256,197,166
505,433,114,148,262,242,201,186
502,447,113,147,266,231,176,180
470,490,120,153,259,190,157,159
449,507,125,119,225,229,148,148
434,494,144,125,227,260,194,152
364,449,146,131,209,265,195,124
359,388,148,130,197,280,214,120
259,375,140,122,203,276,203,121
305,326,137,123,209,300,232,150
316,345,107,124,230,281,203,155
310,408,102,119,236,278,207,182
384,432,113,116,257,290,203,193
403,404,118,115,264,320,208,191
376,438,101,137,257,294,194,180
372,429,105,124,243,281,185,172
376,407,112,117,224,283,178,159
315,488,105,136,212,251,163,169
292,482,105,137,203,254,156,167
287,463,106,111,202,255,165,168
283,474,115,123,216,263,181,187
294,498,113,129,221,265,187,176
317,403,109,112,224,284,215,163
333,381,107,117,262,329,221,165
310,377,111,118,263,312,189,148
310,411,97,107,231,319,181,128
297,353,95,98,246,313,167,130
261,367,107,121,226,296,158,133
377,374,107,121,225,221,164,145
411,414,97,118,244,208,164,147
415,360,108,123,267,203,168,160
413,368,100,124,249,196,170,158
415,392,86,97,262,190,156,144
321,404,86,112,239,180,158,154
281,437,91,117,216,194,202,165
274,488,85,116,200,169,207,176
305,532,111,142,209,181,207,177
285,513,131,165,193,171,207,171
274,551,126,156,175,183,192,160
359,558,134,193,178,222,198,174
358,561,139,203,174,260,237,151
353,506,137,207,232,262,243,165
352,555,119,196,244,270,238,168
363,503,121,192,241,271,238,163
317,449,112,147,235,238,213,159
339,407,109,166,282,211,172,169
342,429,101,190,282,226,190,189
356,368,94,184,281,213,185,197
371,429,92,187,286,199,185,204
388,417,93,196,288,181,189,194
371,464,108,181,241,171,196,193
442,459,116,182,244,262,197,211
453,478,135,198,281,302,252,220
499,502,147,200,327,353,297,247
491,534,152,206,327,386,337,263
564,532,167,196,345,410,374,363
497,587,175,291,375,398,408,341
492,591,167,300,366,386,393,348
441,548,162,298,328,358,375,331
445,607,168,291,336,360,359,321
362,589,143,309,323,416,362,202
357,538,125,204,270,385,333,195
371,519,121,177,240,388,361,182
347,555,135,195,251,382,366,184
299,459,120,194,237,358,353,173
303,455,137,178,239,330,327,176
315,450,129,151,190,399,341,173
270,426,131,151,180,392,291,150
285,402,115,142,138,381,265,128
285,405,112,138,131,374,240,121
264,389,80,115,115,317,192,101
240,404,86,136,114,196,107,99
233,424,76,140,114,168,90,90
198,436,70,119,121,194,101,85
187,440,72,116,125,196,111,80
148,484,78,116,119,187,109,70
133,536,76,81,117,179,106,67
124,568,79,57,111,188,108,74
102,527,87,53,107,160,84,69
98,505,92,53,105,160,67,81
94,510,136,59,109,175,73,77
101,531,141,64,114,170,72,98
110,522,145,57,107,153,69,92
112,596,142,60,107,152,67,99
106,623,140,59,105,148,58,87
107,597,98,55,99,124,50,88
112,572,95,43,82,135,50,61
103,562,89,43,85,139,52,61
98,495,84,39,75,143,57,57
104,479,96,46,80,130,55,62
103,462,110,47,84,124,52,80
84,442,111,44,90,101,56,83
90,467,121,50,84,98,59,108
123,508,152,57,91,88,64,121
125,532,151,54,89,85,66,124
132,524,145,57,85,81,62,114
142,516,141,60,90,80,57,120
144,571,153,55,95,74,58,99
124,530,238,59,100,74,48,81
126,526,244,63,98,74,50,86
175,579,249,58,104,75,51,95
222,595,260,66,113,97,112,137
419,577,261,88,151,196,192,205
556,633,199,160,258,244,257,241
594,635,198,185,331,352,363,271
641,614,212,208,393,479,442,315
640,639,231,274,474,487,460,310
601,691,236,336,521,518,488,290
534,685,230,331,548,519,481,279
523,709,229,326,539,485,442,255
468,696,230,320,510,490,458,210
479,635,203,273,474,566,555,223
407,512,221,245,425,571,562,205
406,455,246,305,376,564,549,186
372,365,266,313,340,638,608,212
362,341,248,312,364,611,590,262
363,309,253,308,330,546,487,238
380,266,226,263,320,489,430,233
303,200,186,148,285,565,507,244
305,202,151,117,280,501,419,217
295,175,153,102,221,425,351,139
262,156,139,96,196,461,368,146
223,142,134,90,198,517,495,190
227,331,114,85,202,456,433,172
220,511,117,84,196,429,440,169
244,563,126,87,211,460,465,184
230,610,124,84,201,427,443,185
221,634,119,89,191,389,348,141
224,583,127,109,159,438,353,152
