79,48,38,36,26,22,57,71
88,45,40,39,29,25,61,73
74,51,50,56,34,26,76,87
86,45,53,62,35,26,75,90
79,44,54,64,35,28,72,97
91,44,57,65,37,25,78,93
93,46,58,67,37,26,82,101
95,44,49,56,30,28,72,90
93,41,47,57,28,29,79,93
96,43,48,57,28,28,77,96
88,42,49,55,27,31,80,109
98,39,47,54,24,28,81,109
98,34,50,57,25,26,93,130
92,36,51,53,25,28,105,134
107,38,47,57,33,29,110,138
123,39,47,59,32,28,114,132
113,41,52,72,35,28,125,141
131,42,57,74,33,30,138,147
133,45,59,74,37,30,139,145
139,46,71,80,33,30,141,145
123,45,71,87,37,27,132,153
119,47,66,76,35,28,120,139
141,52,62,75,35,24,104,141
144,52,61,80,33,24,87,142
124,48,50,74,33,23,83,152
127,48,51,76,33,23,79,139
138,45,55,79,36,23,76,144
145,40,57,81,44,28,74,129
200,36,55,79,45,31,81,151
229,49,56,81,45,35,82,146
229,52,55,72,43,35,89,147
226,51,56,71,45,38,114,153
222,59,55,71,38,36,135,181
177,61,64,80,36,33,144,185
140,51,70,90,39,30,148,179
141,50,73,92,40,30,144,176
143,51,70,91,36,26,130,177
156,43,69,89,43,28,111,172
152,41,61,85,41,27,105,175
152,44,52,69,38,29,95,172
150,43,51,73,37,27,99,179
145,43,54,75,38,30,102,190
89,41,54,71,31,26,94,167
78,39,52,64,34,26,85,134
75,36,49,69,33,28,95,146
98,36,46,62,36,31,101,158
104,40,52,68,36,28,99,161
104,42,51,74,37,30,95,156
124,47,56,80,39,33,92,158
121,46,57,84,41,30,97,164
113,49,57,88,39,30,105,163
116,48,57,86,39,31,104,148
118,46,62,84,39,30,108,148
103,43,61,79,37,27,110,149
110,42,60,69,34,28,96,127
99,37,56,61,33,25,79,103
84,33,50,52,33,32,78,101
82,35,44,54,35,34,73,97
92,35,42,58,34,34,63,87
82,39,46,71,36,34,62,86
90,41,50,79,40,41,69,92
112,46,49,79,40,36,73,83
138,46,56,82,39,37,112,107
141,49,63,79,41,39,117,117
144,45,67,73,42,40,126,132
148,46,67,66,37,33,121,128
143,42,73,70,35,35,119,129
119,44,68,70,35,32,89,127
110,43,63,72,31,31,86,127
110,46,58,77,30,30,78,141
96,45,60,76,31,30,75,141
84,45,53,71,32,29,78,142
79,44,52,68,33,31,122,155
71,41,56,70,33,29,121,170
82,41,67,89,37,30,131,151
100,45,68,92,41,38,152,172
106,44,69,99,44,37,150,164
111,44,68,99,41,37,120,146
114,49,69,100,41,37,120,139
114,58,59,79,39,39,111,148
103,52,59,79,34,31,89,126
100,54,76,87,33,31,87,132
107,54,76,83,37,33,83,143
115,51,75,82,36,34,97,143
120,41,73,80,36,31,100,136
127,43,66,75,37,31,93,135
124,41,44,65,35,29,100,143
114,38,42,67,32,24,100,136
123,44,39,62,32,29,91,132
114,42,47,66,34,29,81,124
113,42,52,77,34,28,87,128
113,44,54,70,35,32,75,121
113,42,58,71,37,32,67,114
98,37,58,72,38,27,69,95
98,43,53,73,38,27,72,104
86,43,51,67,37,28,101,133
93,49,53,71,37,23,108,126
91,53,49,70,34,26,114,135
122,55,49,68,33,26,113,146
124,55,47,64,32,29,119,161
123,56,48,71,32,28,90,135
118,53,42,66,30,28,83,135
116,49,44,64,32,26,71,118
73,47,41,63,29,26,65,104
92,42,41,64,30,23,55,75
93,42,37,52,33,24,69,93
91,36,48,56,34,24,73,97
88,36,46,60,33,22,74,100
88,35,46,61,34,24,69,101
56,47,46,61,34,28,66,94
68,47,47,59,32,29,58,108
70,50,36,55,32,30,55,108
71,51,37,50,29,30,52,105
68,50,36,53,29,31,68,106
68,39,37,61,31,29,70,116
67,44,45,72,34,30,80,93
69,43,51,77,35,31,88,110
68,44,52,80,38,32,90,109
66,46,56,79,39,29,79,112
63,47,56,74,34,28,75,104
49,42,49,61,32,25,68,96
48,44,44,59,34,32,80,95
68,45,49,72,32,30,80,106
79,44,45,74,35,32,99,128
86,43,57,85,36,31,106,139
92,46,61,89,35,33,110,144
91,41,63,88,34,25,97,131
80,38,59,77,35,27,105,130
97,44,75,87,38,30,108,115
159,50,81,95,40,30,116,115
165,49,80,95,41,29,107,136
172,50,85,95,39,28,108,149
197,52,86,97,37,27,100,149
314,73,77,98,35,24,92,158
295,66,65,83,36,25,73,155
316,67,66,80,37,25,76,139
325,69,61,84,37,29,95,143
325,75,63,86,38,28,101,135
225,58,57,74,34,26,105,123
215,60,54,72,32,35,119,144
177,61,55,70,30,35,119,137
161,63,58,69,29,35,112,123
136,56,67,75,33,38,125,140
114,52,72,80,37,40,118,136
111,51,73,81,38,35,105,108
147,51,75,82,39,37,113,123
141,49,69,81,41,38,124,141
198,58,73,76,38,40,117,153
200,57,75,75,34,38,115,154
206,58,73,79,36,42,138,204
182,59,73,82,35,41,128,200
180,57,73,78,34,39,115,188
119,43,68,79,39,44,134,218
131,43,68,81,42,46,139,234
137,44,67,76,39,42,137,256
174,45,67,91,42,46,150,283
188,51,72,99,42,50,160,319
188,54,68,93,39,47,146,298
178,55,65,87,38,47,142,288
173,55,72,93,39,47,125,243
142,52,69,82,37,44,125,224
136,49,69,77,38,41,109,204
204,57,71,93,43,39,103,221
251,65,71,103,44,37,121,230
257,62,68,111,46,39,128,233
273,64,75,114,49,39,127,246
271,68,73,110,49,44,123,224
239,60,70,103,44,43,120,200
185,59,69,100,42,43,106,191
184,62,76,87,47,42,98,187
162,60,68,85,43,42,87,149
161,54,66,86,42,37,91,145
177,56,63,80,42,35,91,148
181,47,62,72,42,37,88,149
179,44,49,68,37,35,96,141
187,46,61,72,41,36,102,151
183,47,68,72,45,37,123,156
152,43,67,72,44,35,120,144
145,44,64,72,43,32,125,143
137,45,71,82,50,36,127,136
122,46,70,79,48,32,117,120
134,54,64,85,45,32,92,124
129,57,65,86,46,34,101,134
129,57,67,87,49,38,91,122
125,56,63,82,40,38,74,122
119,53,54,77,38,40,89,126
109,42,53,75,40,40,94,108
101,37,54,73,39,40,83,94
98,42,64,84,41,39,82,102
91,46,63,80,40,37,83,97
100,49,62,80,39,34,66,91
107,48,64,77,40,35,63,99
118,47,62,82,39,36,63,119
118,42,54,71,36,42,67,113
130,40,57,69,37,41,79,130
125,38,65,78,37,40,80,128
114,40,64,74,35,39,74,122
102,40,66,70,34,35,83,108
151,44,66,72,37,30,94,134
142,40,72,95,40,31,83,123
139,36,65,106,45,30,84,138
140,40,67,113,45,32,85,140
139,39,68,112,45,33,73,132
99,39,69,109,42,27,65,117
113,41,66,98,38,27,82,140
112,42,72,107,34,36,84,125
109,39,71,106,35,34,85,123
101,41,74,110,36,33,98,126
93,41,71,113,36,33,98,121
91,42,68,108,35,33,97,92
126,47,68,86,35,23,98,102
131,51,70,85,32,27,99,104
136,49,70,88,33,28,93,102
136,48,69,84,31,27,85,93
132,47,72,94,34,27,68,90
112,53,73,92,34,35,90,179
119,53,70,89,36,35,99,197
153,60,88,113,45,40,101,229
147,59,90,114,45,40,99,231
156,58,90,111,45,38,98,233
163,54,89,118,46,33,86,174
159,50,87,117,46,31,76,171
125,45,66,93,37,30,70,119
131,48,69,93,38,31,73,131
160,56,62,88,37,35,81,140
148,52,64,97,38,33,68,136
146,49,64,98,40,32,75,119
146,50,65,97,41,27,82,124
146,50,58,98,43,30,97,145
115,44,64,106,45,28,93,137
128,43,59,91,43,28,92,147
127,46,59,89,41,32,87,149
123,45,57,85,40,30,94,160
119,42,59,81,37,29,79,132
105,40,51,69,36,31,83,129
77,38,53,76,36,31,86,120
79,39,57,79,39,27,87,123
79,39,56,80,38,29,71,110
92,44,54,80,39,32,76,127
94,45,54,83,40,29,78,130
100,51,51,73,37,32,85,134
98,53,51,73,39,35,88,150
103,55,50,70,38,36,98,147
87,49,49,70,37,32,91,132
72,48,50,67,34,33,87,128
64,42,50,66,35,32,80,132
66,42,45,61,28,27,70,106
65,43,49,65,29,24,66,101
63,48,51,75,33,26,71,104
65,52,52,80,35,25,67,102
70,55,52,76,35,24,65,91
63,50,52,74,36,26,67,91
63,48,50,71,35,26,63,107
65,42,50,60,31,27,66,105
67,45,56,66,30,31,100,124
61,42,55,77,31,32,106,138
62,47,53,83,32,34,107,147
55,44,61,99,32,34,110,153
52,47,67,103,33,32,114,153
50,40,63,94,31,28,94,143
60,40,63,87,29,30,98,142
63,39,68,83,29,26,107,136
60,45,61,64,27,28,116,146
61,41,52,59,28,28,107,144
67,41,55,59,27,28,102,139
63,46,56,58,31,29,95,131
64,46,55,56,31,30,86,126
61,41,53,57,32,29,59,101
62,42,60,66,33,30,70,109
70,45,61,69,36,33,70,108
72,38,62,76,35,30,75,115
76,39,58,76,37,35,81,117
79,42,66,90,37,35,81,110
90,48,61,85,39,37,85,132
84,45,55,83,37,36,83,135
87,49,56,83,37,35,84,120
82,51,56,83,35,29,74,111
98,51,53,71,39,30,105,149
114,48,53,69,34,27,98,149
127,55,60,72,36,32,115,176
127,53,61,68,35,33,110,182
127,49,58,67,33,32,111,185
113,44,55,110,30,31,89,155
92,42,52,118,32,32,99,149
74,36,43,124,32,28,84,112
65,35,38,125,36,27,92,117
69,43,40,129,39,28,95,114
69,45,38,94,36,25,96,118
65,44,38,81,36,24,84,111
66,41,41,67,39,27,94,128
70,44,43,68,39,28,85,116
70,36,51,75,40,30,78,116
72,37,53,75,40,30,76,121
76,36,55,75,40,29,82,116
73,34,54,76,36,27,68,96
77,32,52,72,35,29,81,102
75,32,46,59,33,28,85,106
78,32,51,66,34,30,78,97
70,33,55,65,33,29,73,100
77,46,63,64,32,30,90,131
70,44,62,59,31,28,80,128
72,49,62,59,33,29,88,128
69,47,56,49,32,29,95,133
70,49,52,72,45,30,96,141
56,38,39,72,47,29,80,120
70,41,45,74,46,31,95,134
73,35,50,76,43,31,86,128
77,36,53,77,43,32,85,128
87,37,55,62,36,34,92,132
91,37,55,61,35,33,91,122
95,44,57,62,40,33,88,125
97,47,52,57,43,32,93,145
102,49,59,61,42,30,94,159
93,45,59,59,39,26,82,139
121,46,65,61,38,30,91,144
133,39,64,61,34,32,86,147
137,39,62,62,32,32,90,145
133,38,57,60,34,32,85,124
141,43,58,64,32,32,86,126
122,43,55,67,31,30,82,128
106,43,55,74,31,27,77,124
108,40,58,79,32,29,81,138
113,42,57,79,31,31,86,147
105,44,55,81,34,32,85,155
100,51,59,78,33,31,80,157
108,54,53,68,32,34,80,165
105,59,52,66,34,31,76,144
120,62,55,69,37,32,96,177
128,58,55,65,36,31,100,171
139,56,55,71,36,33,100,176
129,54,58,70,35,31,111,161
148,54,65,71,28,33,122,186
155,58,67,69,28,31,109,182
151,57,69,67,28,33,110,185
147,54,69,70,29,33,108,177
145,56,68,74,30,33,123,241
132,53,66,71,33,34,119,257
109,43,58,67,30,35,113,239
103,42,54,67,29,35,118,247
96,44,48,55,29,34,116,249
94,41,47,52,29,32,107,209
116,47,45,48,34,30,105,188
143,55,54,56,37,29,116,192
162,56,56,64,39,28,111,192
162,59,60,74,40,30,115,198
164,58,60,72,40,30,97,170
159,55,66,85,39,39,112,187
168,74,69,97,37,40,138,198
181,85,78,102,42,43,144,208
182,82,83,116,46,43,147,214
191,84,86,118,48,43,145,218
182,85,78,111,49,34,129,204
166,64,72,97,50,36,95,200
145,54,65,92,48,34,97,217
165,56,55,74,45,38,101,222
162,57,57,75,44,38,109,231
156,54,57,77,41,37,108,214
136,53,54,77,37,32,112,197
127,54,54,72,34,31,99,161
110,52,52,64,35,25,87,132
98,48,44,66,37,26,86,108
89,49,43,63,36,27,81,99
95,50,47,62,38,27,73,117
90,47,45,58,41,26,83,124
93,47,45,54,43,32,91,120
93,47,42,45,39,31,85,116
96,41,43,43,39,31,82,120
92,41,39,49,40,33,76,105
94,41,41,52,40,44,68,83
79,53,39,56,37,46,65,92
80,53,44,55,38,46,67,94
78,58,45,57,38,46,66,90
76,56,44,51,37,45,65,83
76,57,39,47,35,34,71,104
71,43,40,46,34,26,66,132
70,46,42,47,38,28,64,138
68,42,43,50,36,27,67,139
65,47,42,53,37,27,65,138
53,43,42,51,36,24,54,119
43,44,42,52,35,29,55,82
56,42,39,57,32,31,89,106
62,43,40,62,33,32,92,109
70,38,49,63,31,34,94,118
72,48,49,66,29,35,92,118
81,48,49,66,30,30,94,114
74,50,49,59,33,27,70,85
70,48,45,49,31,27,62,78
63,50,37,46,30,25,66,72
62,40,39,42,31,24,78,91
49,39,41,53,34,25,73,88
50,37,39,53,31,23,64,84
50,40,42,55,35,25,66,86
51,39,41,54,35,25,70,85
53,45,39,54,37,27,58,74
50,43,35,44,34,24,58,71
63,50,37,50,33,26,77,94
60,48,33,49,32,23,76,101
59,50,33,53,33,24,67,101
57,47,31,63,31,22,68,93
60,48,30,64,31,24,91,110
52,38,32,60,35,26,108,122
53,36,34,57,33,25,110,119
55,34,36,57,37,26,113,134
53,34,36,46,36,27,111,133
54,38,42,46,37,29,99,129
43,40,38,44,34,25,62,103
43,43,45,45,34,25,57,102
44,39,42,39,28,24,56,77
50,37,42,39,29,25,76,106
47,34,40,37,28,22,67,96
48,38,46,43,28,24,91,107
53,36,39,43,28,24,92,106
58,38,38,46,29,25,89,117
60,38,39,46,26,22,73,96
61,36,37,45,27,25,94,102
63,30,33,44,26,24,77,96
73,32,33,48,29,26,85,112
66,29,35,47,29,26,86,104
65,31,36,49,30,26,90,103
64,31,37,51,30,25,71,98
68,32,35,47,29,26,68,120
52,29,33,43,28,27,64,110
72,33,32,44,29,27,65,113
72,36,35,43,34,26,67,112
74,37,34,46,34,26,62,115
75,37,32,49,36,27,63,97
76,38,39,52,34,24,50,85
64,44,39,54,35,25,86,113
60,42,39,54,30,26,82,131
59,45,38,49,32,25,88,145
56,46,43,52,30,23,86,139
60,45,42,50,33,24,91,143
54,39,44,44,30,22,62,128
62,36,41,43,30,23,68,140
65,38,42,46,28,22,64,124
69,37,38,39,27,22,64,123
64,37,37,37,25,21,56,122
63,37,31,36,25,22,49,112
55,43,39,36,24,20,35,74
59,45,39,35,25,20,36,83
55,47,38,38,27,20,46,90
62,50,35,39,27,19,47,103
68,50,37,42,27,18,60,104
69,49,31,47,28,20,65,107
64,52,36,45,29,21,69,104
61,49,34,43,29,21,69,103
67,53,37,50,33,24,71,107
62,52,42,52,36,23,65,115
60,51,42,48,34,24,64,112
56,44,36,49,33,23,57,109
56,44,40,48,32,22,49,101
56,37,40,40,27,20,51,81
63,41,37,39,25,23,48,74
65,40,35,36,26,25,72,87
67,42,37,39,28,26,73,86
65,48,35,39,27,27,85,93
56,47,32,40,28,27,84,100
46,44,31,43,28,27,93,113
44,42,31,48,29,24,77,108
61,53,37,47,29,25,80,112
64,51,37,47,28,25,72,110
71,52,38,48,26,26,72,110
79,51,39,44,26,26,63,93
85,55,42,40,27,25,58,88
74,44,34,38,28,25,54,83
75,40,33,38,31,25,58,89
69,40,36,42,32,25,56,78
65,42,37,41,32,22,51,81
64,40,36,43,31,21,64,85
66,38,38,44,30,20,60,83
65,41,39,45,28,24,66,105
69,40,41,43,29,23,66,112
65,40,38,41,28,25,69,111
60,39,43,41,29,26,63,111
67,50,44,45,31,30,76,148
66,48,45,46,34,26,72,144
60,48,40,45,32,27,75,140
61,52,45,47,30,26,74,140
63,51,45,50,30,26,81,157
63,42,46,45,30,23,75,129
62,46,46,44,29,24,70,114
61,45,48,44,27,23,74,114
60,52,47,49,29,24,72,115
58,55,40,43,29,25,59,90
45,50,38,42,27,23,56,78
48,46,42,42,25,22,54,73
48,52,45,46,28,23,52,77
51,42,43,38,27,21,59,79
66,41,43,38,28,19,60,78
71,48,44,37,29,19,61,96
81,57,39,36,29,20,66,109
86,54,35,30,28,19,71,110
84,55,37,36,29,20,66,109
76,51,36,39,29,21,67,115
74,47,35,43,29,20,66,102
64,40,36,46,31,21,63,91
65,42,38,50,35,23,52,109
69,41,35,49,34,24,53,108
64,42,36,47,34,24,52,93
61,41,36,47,35,24,53,96
66,36,37,47,34,23,66,103
58,32,38,44,32,20,63,92
59,35,39,49,35,23,65,93
65,40,38,48,34,23,65,93
70,43,39,51,33,24,60,90
68,47,38,49,32,25,54,83
75,45,34,49,33,26,58,73
77,42,37,47,29,23,67,79
71,39,39,48,30,23,69,94
75,37,36,41,28,22,76,100
73,35,34,40,31,24,72,104
72,39,32,37,28,23,69,104
71,40,30,39,30,22,57,99
71,38,31,38,30,22,70,103
63,38,38,44,31,23,75,118
60,37,43,46,29,22,73,119
59,36,46,48,31,22,74,113
52,44,50,47,27,24,78,112
52,45,49,48,27,25,74,117
57,48,45,48,25,23,62,107
62,47,41,48,24,23,70,106
54,44,40,49,24,22,71,108
62,40,32,50,27,26,74,129
63,38,30,51,28,26,63,115
58,32,30,47,28,26,70,104
54,35,33,49,29,26,61,100
53,36,32,45,29,27,62,100
51,37,34,44,32,25,72,85
52,37,34,42,32,26,78,85
61,41,36,57,38,27,73,84
63,39,35,58,41,28,75,99
62,44,37,64,41,28,78,104
60,38,36,62,38,27,64,89
62,40,40,64,39,26,60,91
61,38,40,53,34,25,66,101
61,36,38,48,29,24,62,86
69,38,38,46,28,24,57,83
66,43,37,48,26,23,67,98
65,43,35,48,25,23,70,110
71,44,33,43,25,24,72,130
77,46,36,53,28,24,75,135
80,41,36,52,28,23,75,133
93,36,39,55,28,23,104,143
94,35,38,55,28,23,102,130
97,32,38,67,27,24,106,107
95,31,37,60,26,25,111,112
89,31,36,60,24,26,111,114
78,34,35,57,25,24,73,94
82,36,33,55,24,22,71,96
94,40,37,45,27,22,70,109
94,38,36,44,27,21,57,102
96,39,42,45,31,22,63,109
96,37,40,46,31,27,63,104
92,35,47,47,32,29,65,104
68,31,42,42,32,27,50,82
92,35,47,48,32,28,56,79
94,35,47,48,28,29,60,69
90,36,48,46,28,24,59,69
92,36,44,45,28,23,57,68
90,36,49,55,26,25,56,72
55,36,45,55,25,25,51,67
75,34,40,52,26,23,40,67
78,34,42,50,27,26,51,71
83,35,42,51,32,28,55,70
84,37,40,46,32,27,54,65
84,35,42,43,32,25,52,62
58,32,41,44,31,27,55,59
67,33,39,46,30,24,56,71
63,35,39,48,25,24,55,76
63,34,35,49,24,24,67,79
63,33,33,47,27,24,71,78
71,35,41,50,27,21,69,81
66,35,41,49,26,23,68,73
61,32,41,49,25,21,68,69
59,32,46,49,26,21,60,67
64,33,47,51,27,25,63,80
72,36,42,45,27,26,72,92
74,33,40,46,29,24,77,101
84,34,48,50,28,25,85,112
88,34,45,45,28,25,84,112
83,34,45,44,26,22,83,104
79,33,46,46,28,24,81,110
74,35,48,48,26,25,82,99
68,35,47,49,26,26,77,104
76,39,46,51,25,26,87,126
81,38,51,63,26,30,87,127
72,34,49,61,25,27,86,111
70,34,46,60,27,28,79,128
75,38,39,55,31,27,84,115
75,34,41,53,33,28,86,135
69,34,33,39,32,25,94,136
73,38,36,41,31,26,94,137
74,39,38,41,31,26,92,129
73,38,37,42,28,25,81,133
63,37,39,42,28,25,71,92
64,40,40,41,27,26,65,93
63,36,44,46,29,24,65,115
63,36,43,46,28,25,76,114
49,33,49,45,26,25,79,105
50,39,46,44,23,22,85,102
56,38,46,47,24,21,78,106
59,38,41,46,23,22,75,80
63,39,42,46,29,23,69,75
68,39,36,52,30,24,69,104
66,32,36,56,30,26,61,103
65,34,37,53,29,26,81,106
68,34,37,49,28,27,80,108
72,32,40,51,23,26,79,116
67,31,40,44,27,26,77,101
65,40,41,39,26,26,98,101
64,39,40,43,27,25,84,93
59,39,38,42,30,24,83,98
53,42,36,43,30,24,80,84
52,41,34,43,29,23,82,81
54,34,36,44,30,23,71,117
76,34,36,48,31,25,71,115
73,34,37,50,30,24,70,109
70,32,36,51,27,22,68,107
71,36,38,52,28,24,70,109
78,37,37,53,26,23,57,74
67,40,38,47,26,23,63,73
66,42,41,51,25,25,71,73
65,40,41,47,29,26,72,85
71,36,43,46,28,26,68,79
68,35,41,45,31,23,64,84
67,31,37,46,32,24,70,82
73,29,36,41,33,24,65,86
75,32,41,44,36,26,64,90
71,32,37,43,34,24,67,87
68,33,38,45,34,26,74,80
58,30,39,44,31,24,60,78
64,34,38,44,36,27,69,114
61,33,34,37,30,26,68,102
59,36,37,40,34,27,71,106
55,34,38,42,32,26,63,103
52,35,39,48,32,28,62,104
38,30,38,47,27,24,58,66
42,32,39,50,28,25,78,97
53,31,36,47,28,26,76,118
54,31,44,49,28,26,83,130
57,36,42,43,29,26,89,135
59,39,42,42,28,27,85,132
63,36,42,40,28,25,70,116
54,35,41,41,26,23,64,88
53,34,33,37,27,23,77,72
53,29,32,36,27,24,72,89
66,30,40,38,28,24,77,101
63,33,39,39,30,29,86,106
62,32,43,45,30,29,87,108
62,31,41,47,29,29,68,109
61,33,42,46,31,30,69,88
47,31,33,54,30,30,65,77
49,28,35,58,26,25,59,62
49,31,34,59,25,24,63,62
49,32,34,56,26,25,69,65
54,29,35,58,23,20,66,83
57,28,35,49,25,20,74,86
51,30,32,43,26,21,65,87
64,31,30,32,28,21,68,108
66,31,29,34,30,20,61,108
62,33,27,42,32,20,72,102
55,33,26,45,31,20,62,95
63,32,28,47,35,20,65,94
52,30,30,51,33,20,58,72
56,35,31,49,31,20,78,77
56,35,34,41,31,19,71,68
60,35,33,39,30,20,73,72
62,35,33,37,26,21,70,77
62,35,41,43,29,21,68,72
58,31,43,42,32,23,62,60
60,35,42,43,32,24,73,80
66,38,44,48,33,21,72,81
55,41,45,52,33,22,71,75
52,41,36,47,30,22,75,75
53,39,34,46,27,20,63,73
59,37,38,50,27,25,73,64
49,35,40,48,26,24,74,69
52,32,39,48,29,25,80,75
55,32,40,46,30,25,78,82
54,34,42,47,30,26,77,85
53,32,44,49,31,23,50,75
73,31,40,46,32,26,72,86
74,30,41,45,31,26,68,92
73,30,41,47,29,26,68,88
76,31,43,49,26,26,71,85
73,34,42,41,24,24,72,84
63,36,44,42,24,23,58,71
63,36,47,50,22,23,59,74
66,37,52,54,24,23,60,74
68,38,49,51,24,21,64,87
70,35,46,54,26,24,74,93
58,33,46,56,26,23,67,86
57,35,45,48,27,25,64,73
55,32,38,43,27,24,66,79
48,28,37,44,26,27,80,100
72,33,39,44,25,25,73,99
75,33,40,46,23,25,74,103
78,32,38,46,23,24,74,105
77,31,41,45,23,26,76,103
76,32,44,44,25,23,57,72
61,29,42,50,25,22,66,65
76,37,39,44,26,22,66,75
75,37,39,45,27,22,71,77
74,39,38,43,28,21,66,72
79,41,37,43,27,24,84,77
73,39,37,41,27,24,76,89
61,34,36,41,30,24,79,85
62,33,37,42,32,29,77,92
62,32,38,42,31,28,77,91
60,31,36,43,32,27,59,101
55,31,34,40,32,27,58,89
50,32,35,41,30,27,58,82
46,33,35,38,27,21,58,73
42,32,33,44,26,22,59,75
49,33,34,43,24,20,55,57
53,33,34,41,24,23,67,66
56,31,33,41,23,24,61,67
66,31,37,45,23,23,54,63
69,32,39,45,26,25,66,79
60,32,44,42,27,25,63,78
60,31,45,44,27,24,52,75
60,33,45,42,29,24,56,75
51,33,44,39,29,26,66,77
49,33,46,37,26,25,68,71
56,34,40,42,30,27,72,78
59,35,41,46,30,25,73,79
55,33,41,48,29,24,69,77
57,35,37,48,29,24,62,78
63,34,34,47,29,23,59,69
75,35,35,46,25,20,58,71
77,41,32,40,23,20,61,70
79,48,37,42,31,19,63,72
88,59,44,43,34,22,70,72
86,75,44,42,33,21,59,69
76,78,43,39,33,21,53,54
75,75,44,39,33,21,50,66
87,77,39,40,28,23,48,68
87,93,32,39,25,19,44,77
88,86,40,41,31,20,42,82
84,85,45,49,33,23,51,82
84,84,45,54,34,22,49,69
71,81,45,53,32,22,51,68
63,55,47,56,32,24,45,55
63,47,41,63,28,23,51,54
70,46,39,65,27,22,49,75
68,46,41,67,28,23,51,75
66,45,43,67,30,22,52,74
79,47,41,63,29,22,57,77
82,53,39,57,29,21,52,75
76,51,39,48,27,21,44,53
73,50,37,41,26,19,42,52
74,50,38,41,24,20,51,57
55,46,40,47,24,21,48,68
55,42,39,46,24,22,57,73
64,41,43,50,24,24,62,78
67,44,41,51,23,25,63,84
68,44,39,48,22,24,52,82
70,42,38,44,21,22,49,77
72,61,41,46,20,21,41,70
64,62,40,46,24,22,45,64
62,60,41,45,26,26,48,57
66,61,39,44,27,26,54,57
66,61,38,46,29,27,69,62
56,38,38,46,29,29,80,87
54,37,36,43,26,27,78,87
53,38,41,42,25,23,78,89
54,42,43,44,25,24,74,88
53,44,44,44,26,24,61,82
54,46,44,43,26,21,46,56
55,50,42,45,28,24,58,58
64,50,41,51,30,24,64,80
58,44,38,50,29,23,71,79
57,45,37,49,30,23,74,77
60,48,37,49,32,23,73,76
61,44,37,49,30,21,69,77
60,47,35,44,28,23,70,67
68,52,38,50,29,23,86,71
73,52,38,48,25,22,85,74
74,46,36,47,23,22,94,84
73,46,37,50,23,22,93,83
65,43,36,51,21,21,89,74
54,36,34,43,22,20,67,69
49,36,34,50,24,21,70,72
43,38,36,50,25,21,60,67
42,41,40,46,25,21,67,76
48,41,40,47,31,22,76,87
49,44,41,51,30,22,77,88
53,45,43,46,28,22,75,85
53,44,38,44,27,22,73,81
54,42,36,47,26,22,79,87
52,42,42,53,24,22,74,79
56,43,49,52,25,23,75,81
51,42,49,55,29,24,73,78
56,48,51,56,30,24,87,83
58,48,51,55,33,24,72,70
55,46,44,52,31,22,66,69
54,43,37,52,33,23,69,66
68,49,42,51,32,24,86,70
67,46,43,50,32,24,83,83
65,45,41,49,29,23,80,79
68,44,41,47,29,23,81,76
67,42,42,47,29,22,85,82
62,40,41,48,27,19,83,89
56,38,38,49,27,22,94,74
59,39,43,54,27,23,97,85
56,44,48,55,28,23,101,103
55,45,48,55,28,25,119,111
46,42,42,48,27,24,120,112
46,41,47,55,28,24,104,109
40,41,45,54,29,25,110,104
44,37,42,50,28,25,106,90
51,38,45,50,26,24,83,75
58,39,46,57,27,26,82,67
61,44,45,50,26,22,89,67
67,43,41,47,27,22,83,68
64,44,40,50,28,24,84,67
58,41,35,50,30,22,86,75
52,39,35,48,31,22,85,77
50,37,35,52,31,22,81,79
44,38,40,55,30,22,78,81
52,40,41,54,28,21,77,76
50,41,46,57,27,23,75,68
57,44,45,57,27,26,67,64
57,42,44,54,29,28,71,75
61,43,41,49,32,27,78,93
53,41,41,48,32,27,81,94
59,43,35,42,33,26,75,96
53,37,36,43,34,23,69,96
50,36,37,43,31,21,61,87
51,36,36,44,27,19,48,58
54,35,36,49,27,20,52,66
52,35,42,59,27,22,51,62
54,43,44,61,23,21,47,57
60,45,42,59,26,23,48,64
59,44,44,59,26,22,47,69
58,46,44,59,27,23,67,94
60,45,39,51,27,24,83,103
57,39,33,49,30,25,87,104
56,40,34,51,31,24,86,100
54,37,31,55,31,26,90,99
54,36,36,61,32,25,72,71
51,35,38,58,30,23,55,60
49,34,39,60,28,23,56,65
47,31,41,60,27,23,62,69
44,31,43,59,28,20,58,69
48,29,40,57,26,21,56,66
45,31,38,57,31,24,52,60
47,35,40,53,33,23,45,56
41,33,40,52,30,25,43,55
42,36,40,51,29,25,43,50
43,37,47,55,28,24,45,55
46,35,46,56,25,23,56,81
51,31,47,62,26,21,56,83
56,36,48,65,27,21,62,90
57,32,48,68,30,20,62,92
52,33,41,61,31,21,59,88
50,34,44,64,31,22,49,64
40,35,42,57,29,24,47,59
32,30,41,55,28,23,33,42
33,29,41,61,27,23,46,45
33,31,40,58,28,24,49,44
31,31,37,58,27,23,49,42
30,29,38,61,28,24,72,56
33,33,37,63,29,23,71,57
31,34,33,51,28,23,68,58
32,33,34,56,30,24,74,67
38,32,36,51,29,23,75,71
41,33,34,49,28,19,60,69
38,31,34,50,28,23,64,71
38,30,36,53,30,25,63,70
45,30,33,49,27,22,57,73
41,29,35,55,30,22,71,76
41,26,35,56,31,24,71,70
43,28,39,51,33,25,70,67
49,29,48,52,30,23,73,84
43,31,54,55,34,26,84,98
43,32,54,58,37,28,78,98
53,34,63,63,39,29,91,105
53,33,61,68,36,28,99,123
53,32,64,76,40,30,96,113
62,32,60,75,39,28,94,100
70,32,60,82,34,28,100,130
70,33,57,91,32,27,88,133
79,34,57,92,33,24,82,126
79,38,47,84,33,25,84,128
81,38,47,87,31,25,85,143
78,38,47,76,31,23,77,120
76,35,41,75,34,23,76,110
68,35,42,72,37,25,71,102
67,32,43,73,34,23,62,106
58,31,43,67,35,25,56,80
58,32,46,67,36,26,59,93
57,34,48,53,32,27,57,95
56,34,47,58,29,26,73,96
51,33,47,63,30,28,92,91
55,31,44,63,31,26,93,95
53,29,47,65,29,27,90,80
47,30,45,62,29,28,91,86
54,28,44,54,28,29,95,93
77,31,48,59,27,27,78,96
78,31,55,58,26,29,76,97
78,32,50,57,28,29,81,94
82,31,60,70,31,27,84,99
78,31,64,76,35,26,73,90
63,31,63,72,35,25,79,100
57,32,57,75,38,26,88,119
61,32,60,79,38,26,92,122
55,34,54,77,40,26,103,121
54,34,54,78,40,26,101,121
43,32,54,78,39,25,96,107
46,28,52,76,38,24,84,85
41,27,50,78,39,27,101,93
58,32,48,74,38,31,87,101
63,32,43,66,35,31,90,103
66,36,56,69,38,36,95,116
73,40,62,71,37,36,104,114
74,41,63,61,35,34,90,108
67,36,60,62,35,32,93,94
69,42,62,76,37,33,90,103
75,41,50,72,34,31,98,99
70,38,49,84,33,32,102,110
83,38,51,88,34,32,93,118
81,38,50,88,34,30,87,121
76,33,60,81,34,31,94,118
75,32,59,80,35,28,85,128
72,33,55,67,36,28,70,123
63,34,54,72,35,27,78,125
58,34,54,69,33,26,85,120
58,36,36,65,33,25,75,118
52,33,38,72,35,25,75,100
49,35,38,73,36,23,83,100
37,36,37,65,37,23,81,87
39,34,38,68,39,24,74,86
55,32,40,67,37,25,73,85
58,32,39,59,34,23,72,81
75,36,41,59,42,28,81,114
78,34,41,56,40,26,75,115
78,38,50,79,47,26,90,128
69,39,55,85,49,25,90,131
65,39,54,85,50,26,86,131
85,38,56,96,46,23,82,115
82,37,54,98,49,26,85,117
83,33,43,78,43,25,69,106
83,34,38,74,39,25,70,100
88,33,39,79,40,28,93,115
59,29,35,70,34,26,80,101
61,29,39,72,32,26,77,91
67,35,44,73,32,29,94,121
72,33,43,70,33,30,98,123
81,34,49,67,35,28,79,113
87,35,49,58,36,28,78,112
87,35,51,56,35,30,89,123
80,29,54,64,33,28,75,93
81,28,56,65,34,27,66,89
70,29,50,59,30,30,71,83
53,29,49,61,30,30,71,79
63,33,48,55,31,27,63,74
66,34,45,53,34,27,69,115
63,36,46,52,33,28,70,113
58,36,46,53,32,23,62,115
70,37,49,51,35,25,93,150
63,48,46,57,36,28,91,145
64,50,41,54,33,26,83,120
60,49,44,59,36,26,86,126
61,49,45,65,39,28,106,138
51,46,43,68,38,24,81,99
54,34,45,64,37,21,84,108
47,29,46,64,37,26,96,109
66,32,46,59,35,27,93,114
68,33,44,53,33,26,76,102
73,34,46,57,30,26,82,104
69,34,45,61,31,27,75,99
76,33,51,57,31,24,60,93
64,32,51,63,30,23,64,79
62,29,52,66,29,24,63,85
57,30,57,70,34,25,57,91
56,26,58,70,30,23,60,89
54,29,51,70,28,22,58,92
50,26,52,66,30,21,64,99
53,27,52,69,30,22,72,106
50,29,46,69,28,25,73,103
50,31,45,68,30,25,81,100
46,33,48,71,32,27,83,98
53,35,43,67,32,28,80,94
48,36,44,63,32,27,70,81
60,34,44,55,30,23,71,82
66,36,51,62,32,24,61,87
67,36,59,76,34,24,59,86
65,36,60,79,34,24,60,90
74,38,62,79,33,25,70,99
66,39,62,81,31,24,66,99
62,37,59,80,30,26,78,110
69,34,51,73,33,26,108,134
67,34,52,75,34,27,109,148
60,33,48,74,32,27,103,137
61,33,50,75,34,27,107,155
62,34,52,79,34,25,112,168
65,35,56,73,30,26,91,151
65,35,61,70,32,24,91,146
65,41,65,84,38,25,93,156
67,39,63,84,40,27,92,142
65,37,61,79,41,31,101,121
58,36,56,78,40,30,104,129
64,37,49,76,40,29,102,115
63,29,46,60,36,31,117,141
65,30,46,63,35,29,117,139
73,31,51,64,35,28,112,179
69,33,59,76,33,27,105,184
62,32,63,79,34,29,104,191
58,33,63,79,34,28,93,167
56,33,63,75,33,27,97,165
46,33,56,72,32,27,83,113
43,31,48,56,31,26,81,101
45,31,48,57,33,27,101,93
50,31,51,62,33,26,99,88
46,29,55,65,32,28,91,87
45,29,55,63,32,27,86,98
59,28,59,74,32,27,94,103
60,29,54,73,27,26,70,97
61,27,59,74,27,26,70,94
63,28,54,67,28,24,83,124
66,28,62,71,27,25,86,121
58,28,58,61,26,25,86,123
75,31,62,69,29,26,91,135
74,32,57,76,30,28,100,140
75,32,57,83,31,29,95,127
77,34,51,84,36,30,100,138
74,35,50,89,40,30,94,128
56,31,47,86,39,29,94,124
54,33,47,81,38,26,80,125
54,39,48,80,37,25,88,119
49,40,47,81,34,25,85,139
50,40,51,79,31,26,91,153
46,43,57,72,32,27,94,154
44,40,55,75,33,28,94,149
41,36,59,77,32,28,81,148
35,35,59,75,30,27,91,128
67,38,57,72,31,29,94,126
72,38,54,78,32,28,108,169
76,39,55,72,35,29,119,189
82,40,49,64,38,30,128,189
88,38,53,70,38,30,146,187
75,37,59,73,39,29,141,177
76,35,57,72,37,30,156,146
78,36,55,73,35,29,153,128
71,36,56,72,32,28,153,161
66,36,57,70,30,29,127,155
61,35,52,67,28,30,127,159
56,37,50,62,27,29,87,144
50,37,55,68,32,28,86,141
50,36,53,71,33,28,76,97
52,35,48,63,33,26,70,111
54,35,47,65,35,25,78,106
62,36,50,72,34,31,82,119
64,34,47,76,29,31,72,122
63,34,47,76,30,31,71,124
63,33,47,82,29,32,86,113
63,33,49,91,29,32,77,116
59,33,49,86,29,28,70,119
65,32,48,79,29,29,75,113
75,34,48,79,30,31,72,116
75,33,50,75,31,30,57,112
69,31,46,66,29,29,60,104
66,28,40,63,29,28,66,102
64,32,36,59,31,26,68,116
56,30,42,63,32,26,77,111
52,35,44,58,33,27,79,115
54,36,42,54,35,25,82,116
59,38,45,54,34,24,76,99
55,35,52,65,33,24,67,75
56,37,49,62,33,19,69,106
61,33,49,63,33,20,86,122
61,36,48,60,32,23,90,128
58,35,46,63,34,22,97,141
61,35,46,64,32,24,100,148
69,38,47,62,34,25,93,134
78,39,44,67,33,25,83,135
77,36,56,75,33,23,78,133
76,36,57,73,31,25,84,128
75,37,53,68,32,25,109,161
79,33,56,79,33,27,155,222
121,38,63,84,35,27,157,224
129,43,61,88,41,31,159,240
132,48,62,88,42,33,171,251
145,52,67,88,43,34,172,269
178,59,69,85,43,34,156,264
172,65,76,88,43,35,179,272
180,68,79,87,42,34,194,285
187,70,81,87,46,35,193,288
199,66,78,86,49,35,192,265
173,64,77,82,46,35,183,238
169,57,77,95,55,37,166,231
157,54,71,98,53,35,158,205
153,50,73,103,51,33,147,225
154,58,77,122,52,37,156,239
173,71,92,124,56,41,195,286
171,82,86,113,50,43,266,320
184,87,95,108,50,45,285,355
198,92,96,105,60,53,330,404
180,89,92,84,56,49,320,394
153,76,72,77,52,46,292,356
148,62,69,64,51,46,233,328
138,56,60,69,51,45,201,288
109,44,60,76,39,35,104,182
102,44,65,80,40,35,102,198
123,45,74,82,41,37,101,204
110,47,76,83,37,32,73,184
110,42,72,74,35,30,78,183
116,43,67,67,32,30,80,178
124,46,63,63,31,33,78,163
98,47,56,61,32,28,73,135
97,46,50,57,32,29,71,137
86,46,47,55,32,27,58,128
90,46,43,46,34,26,58,132
80,39,44,47,31,23,55,107
89,38,49,52,34,25,66,130
88,36,52,55,33,25,67,128
82,37,53,56,34,26,75,121
73,34,54,56,32,26,74,122
75,35,50,52,32,29,82,140
78,35,43,57,34,28,75,128
71,35,52,76,36,28,75,129
72,36,55,78,35,29,74,131
76,35,52,77,36,27,74,122
72,36,56,78,39,26,115,142
62,34,60,72,36,26,127,140
66,35,50,50,33,26,131,143
69,35,46,48,32,27,128,150
61,36,47,55,32,27,126,143
70,37,44,53,30,29,96,133
75,40,39,49,29,27,81,140
71,37,37,50,30,27,76,137
88,39,41,52,31,25,76,138
84,42,48,49,30,27,84,138
87,42,46,50,29,23,69,118
89,40,45,55,29,25,70,123
97,41,45,55,30,25,68,131
85,38,43,58,31,27,73,124
82,35,35,57,33,27,73,125
78,32,34,60,34,26,69,111
75,36,34,58,34,25,66,88
68,33,32,59,35,24,94,117
63,31,34,57,35,27,99,128
67,32,37,63,36,24,92,131
57,35,35,63,37,26,97,162
53,32,36,60,36,25,99,167
69,33,40,60,34,24,72,142
79,37,40,59,33,20,58,129
78,36,37,50,30,22,64,121
89,32,38,48,34,28,85,88
87,32,39,47,35,30,84,79
76,33,37,47,35,31,87,72
68,27,33,40,38,32,90,82
75,26,35,39,38,31,85,92
66,29,39,41,33,27,89,108
74,29,39,43,35,26,93,109
70,31,37,43,34,26,90,110
67,31,41,46,31,25,92,125
66,33,47,56,34,25,94,120
67,38,45,57,31,24,75,98
67,41,45,57,25,24,71,99
68,38,45,59,29,23,76,99
78,41,46,63,30,24,81,105
76,41,43,58,29,25,85,109
76,38,42,55,29,24,79,111
68,35,44,60,30,23,74,108
69,37,48,62,31,22,77,114
61,35,48,62,31,23,78,91
59,35,44,63,30,23,75,99
61,37,46,67,28,24,72,102
61,37,44,65,29,25,72,101
62,37,40,59,25,25,67,101
61,36,36,52,24,27,64,94
61,36,38,56,27,25,72,79
58,30,53,67,34,26,75,97
58,29,51,66,36,25,85,106
57,28,58,71,38,26,85,104
57,28,59,76,38,22,75,104
52,29,59,70,38,22,63,105
51,32,44,57,33,21,89,97
58,33,47,58,33,23,83,92
66,33,47,59,29,22,81,89
64,33,52,62,30,23,82,91
63,32,52,65,27,22,81,85
67,29,56,66,30,25,57,80
66,32,59,70,32,26,56,71
66,34,53,72,33,26,56,67
67,35,52,74,33,26,65,75
72,35,49,73,38,28,75,98
64,35,46,70,35,25,71,87
66,32,42,66,33,24,67,92
58,33,45,69,34,26,75,96
63,35,45,62,32,25,91,99
72,35,45,60,25,24,86,85
73,33,43,58,27,27,82,82
75,35,42,57,25,26,84,87
78,32,40,48,23,25,92,92
77,29,37,45,27,25,80,82
68,30,36,44,29,25,81,83
73,38,40,50,31,24,88,91
70,38,37,51,32,25,86,85
65,39,37,48,33,23,72,78
64,40,35,46,31,24,65,89
61,39,39,49,33,26,70,95
63,34,43,56,33,25,65,95
57,33,48,63,33,23,64,94
57,37,49,64,33,24,71,96
71,38,48,64,34,24,70,88
78,44,47,62,32,22,68,80
71,43,44,52,37,24,87,82
71,43,40,41,37,24,89,81
72,40,42,48,42,23,82,84
64,38,44,50,42,23,80,82
55,32,43,52,44,24,87,91
57,33,40,52,38,21,64,83
62,34,41,59,38,22,74,101
68,37,37,59,37,23,72,102
57,37,35,57,37,23,76,102
60,39,35,58,34,23,74,94
62,37,34,59,34,26,90,111
64,38,34,65,34,29,81,104
63,36,32,60,30,30,82,106
63,36,33,61,28,28,86,106
64,33,34,61,31,28,74,99
62,33,35,61,36,28,62,89
58,32,32,46,35,28,71,86
55,28,33,50,36,27,71,79
60,33,34,49,39,28,66,82
58,37,33,47,40,30,70,87
61,37,34,51,38,28,65,85
67,38,38,63,36,25,55,81
62,39,38,59,34,25,53,78
70,45,38,61,32,26,59,87
75,42,38,62,28,25,56,89
70,41,37,67,26,25,66,106
62,40,34,61,29,26,63,102
72,42,35,60,30,26,66,104
65,35,37,61,28,26,60,93
63,38,40,64,27,24,60,100
72,37,41,52,30,25,61,92
74,35,42,50,30,28,68,95
67,31,42,49,30,28,66,92
70,31,40,48,31,26,64,92
64,30,37,43,32,27,75,86
56,30,34,45,28,25,66,79
60,34,33,48,28,25,70,82
70,35,31,46,29,25,75,96
63,34,32,50,28,24,83,101
67,33,40,60,28,23,78,98
70,35,42,61,28,24,77,88
75,32,40,57,25,24,68,95
67,36,43,57,28,26,75,87
64,38,43,57,30,29,76,85
63,40,37,48,31,28,69,83
69,41,36,46,33,29,74,97
64,42,37,48,35,28,80,102
69,39,38,56,32,30,86,111
70,37,38,53,32,28,77,107
69,34,35,52,31,28,77,103
61,36,36,53,28,26,76,95
57,34,40,56,29,27,73,77
51,37,37,54,32,23,50,64
53,33,40,52,30,24,48,64
50,35,45,50,32,24,55,68
53,35,42,57,35,28,63,75
60,40,41,56,33,24,57,73
75,37,47,53,33,28,63,70
77,39,44,56,35,28,67,71
79,41,43,54,33,28,69,70
76,40,44,46,34,25,58,56
79,37,44,45,37,32,74,71
65,36,38,45,36,30,73,69
64,36,40,43,35,29,69,68
75,35,39,45,35,29,66,72
76,32,38,44,33,32,74,85
74,33,37,46,29,26,65,76
76,34,38,45,32,28,68,77
80,34,38,45,31,28,73,89
76,31,38,48,30,27,71,92
79,35,38,49,28,25,67,82
73,35,37,47,29,26,63,81
72,41,39,49,28,24,58,80
71,41,38,52,26,27,52,68
64,40,36,50,28,28,61,77
74,39,37,47,27,27,54,80
80,41,38,46,27,27,55,90
77,36,34,43,25,27,53,88
74,36,35,43,25,23,70,94
74,39,36,44,27,24,59,83
61,37,36,48,29,26,59,81
78,34,36,48,32,27,62,72
84,33,36,50,31,26,80,88
89,37,42,50,32,27,66,91
87,37,40,55,31,26,73,89
85,38,43,57,31,24,73,88
60,40,45,57,29,22,69,83
64,41,45,55,29,23,56,77
62,37,38,52,29,23,56,66
66,36,37,46,28,22,60,70
71,35,33,44,28,24,63,74
74,33,29,43,27,26,69,79
62,33,31,46,27,25,64,66
64,33,30,45,28,24,62,71
60,31,35,49,32,24,52,65
73,32,37,46,32,24,53,83
78,36,36,62,34,23,50,91
83,33,39,65,37,23,51,97
78,34,40,67,37,24,54,93
84,35,37,64,34,26,60,102
73,35,40,64,33,25,59,85
71,33,45,53,30,25,58,75
67,36,44,48,28,26,59,70
72,37,48,44,28,25,65,89
65,40,54,49,29,23,76,89
63,39,50,50,30,23,75,92
52,38,47,47,30,21,77,92
53,37,45,47,29,21,77,93
45,34,41,49,31,22,74,74
48,33,37,49,31,21,64,80
45,31,37,48,31,22,63,80
52,31,36,44,32,23,68,78
54,32,36,50,34,21,64,76
56,33,36,51,31,20,60,76
64,29,35,48,30,21,52,64
78,30,31,47,29,19,52,60
78,33,33,47,27,20,41,68
88,33,32,48,25,20,49,84
86,32,33,47,25,19,54,86
83,36,37,54,28,21,65,98
70,34,38,60,30,23,66,100
65,33,36,61,28,20,62,94
50,31,37,56,29,22,81,100
51,32,34,56,29,23,80,101
54,31,29,46,25,21,74,98
58,30,30,40,23,21,72,94
61,30,31,39,26,23,75,96
58,28,33,40,29,23,54,77
62,30,35,39,28,22,57,85
61,29,39,45,33,26,54,70
59,33,38,48,33,26,53,69
55,33,41,53,33,25,47,67
53,33,38,52,30,24,41,67
56,30,36,51,31,23,39,49
49,32,35,59,27,20,48,50
48,28,38,59,27,18,53,56
52,31,36,58,28,19,56,60
53,32,37,57,27,21,61,60
48,32,40,58,28,20,56,64
50,31,39,49,27,22,60,62
49,31,38,47,29,25,65,62
50,29,37,44,27,26,69,79
63,30,39,45,28,25,63,87
60,30,35,45,29,28,69,88
57,29,34,41,29,27,68,98
60,28,36,44,28,26,62,95
57,26,37,45,30,25,58,81
55,27,40,48,28,25,61,72
58,27,41,50,25,21,53,73
61,27,42,51,25,22,49,72
58,28,38,46,25,19,50,72
67,31,42,49,23,21,50,82
66,31,39,48,24,21,53,97
71,38,43,49,26,23,54,97
70,38,42,49,26,23,54,91
71,39,46,53,25,24,53,96
66,36,43,49,26,23,54,84
59,37,44,45,27,23,51,65
52,34,41,43,25,23,68,82
50,36,42,43,26,24,67,83
50,40,39,43,26,25,67,80
50,40,39,43,25,24,66,82
47,40,38,44,25,23,64,80
48,36,37,42,27,22,66,54
52,36,34,39,28,23,73,58
55,32,34,37,27,20,71,66
52,33,36,46,27,20,68,64
51,35,36,46,27,25,76,67
46,35,39,52,24,24,67,68
44,35,40,52,24,26,65,70
42,33,40,53,24,28,67,56
45,34,38,46,26,28,66,55
46,33,36,45,26,25,58,50
45,32,33,40,27,25,49,51
49,31,33,42,28,24,45,51
48,38,37,50,29,20,46,52
50,41,37,48,27,21,53,52
52,45,37,55,26,21,75,62
53,46,37,58,26,25,76,63
47,49,35,57,22,24,72,56
46,48,34,50,23,26,70,57
40,44,34,53,22,24,66,55
40,41,34,46,24,23,40,43
38,40,35,57,25,20,44,40
43,39,35,59,26,22,45,44
41,35,36,61,26,20,46,45
42,35,33,62,28,22,45,47
43,34,34,67,28,23,44,48
43,32,31,55,25,23,36,43
48,30,35,64,26,21,32,47
54,33,31,62,27,21,34,45
52,34,35,59,27,21,46,48
52,33,38,58,28,21,45,51
54,34,38,61,30,21,47,55
48,34,35,52,28,21,49,48
56,31,38,50,29,22,45,48
58,30,36,50,27,23,31,47
59,31,33,52,25,23,31,48
63,29,36,51,25,24,51,57
64,29,37,52,27,25,49,55
57,28,37,55,26,26,50,58
78,29,38,58,29,23,52,61
83,30,37,53,30,22,53,59
79,33,35,49,29,22,35,47
77,32,37,51,28,22,34,45
76,32,34,52,30,21,33,47
53,31,35,52,27,23,39,39
50,30,35,51,26,23,56,57
60,34,34,52,25,22,55,58
59,37,35,59,25,22,55,61
57,36,35,56,24,23,55,63
58,38,32,54,24,23,51,64
48,38,32,55,24,22,31,47
42,36,33,58,24,23,32,48
44,33,30,47,24,23,32,50
41,35,31,47,23,21,32,43
43,33,32,46,25,22,29,40
56,31,32,47,25,20,28,50
62,34,32,41,25,18,26,58
63,36,37,46,26,18,28,54
64,33,36,46,28,19,28,53
62,34,37,47,26,19,32,55
73,35,39,46,26,19,32,62
64,29,40,47,26,22,32,52
63,29,34,39,25,21,29,51
70,30,34,40,23,21,35,52
75,31,32,40,25,22,33,52
57,33,31,40,26,23,33,35
57,31,31,39,25,21,32,38
57,31,31,38,25,21,30,41
49,30,34,39,25,23,25,45
38,31,36,40,24,21,22,43
40,32,37,40,25,23,22,42
40,33,35,40,24,22,28,42
36,32,36,45,23,23,30,43
34,33,38,47,25,21,28,39
35,31,34,45,24,21,29,39
33,29,31,43,23,20,28,44
35,29,33,47,26,21,36,44
39,29,36,43,28,20,36,43
42,28,31,42,27,20,36,41
42,28,41,44,29,20,36,48
42,27,42,49,31,20,36,40
41,28,45,48,28,20,25,45
40,28,44,55,32,21,27,44
42,31,52,55,32,22,25,53
47,32,49,56,31,22,24,53
46,31,51,55,30,23,29,55
47,31,52,57,31,24,30,50
48,33,50,55,26,24,27,51
43,30,43,57,24,22,27,45
40,28,39,56,25,23,27,36
39,29,36,53,30,22,23,36
43,28,31,50,30,22,28,43
40,27,33,49,30,23,28,41
41,26,34,43,31,22,29,39
40,30,36,40,29,22,31,40
41,29,36,44,26,20,30,40
39,29,35,48,27,21,26,34
40,31,38,46,30,20,25,38
38,32,37,46,30,20,26,39
45,30,36,50,30,20,27,45
45,30,37,47,29,22,30,42
40,30,38,46,28,19,28,43
43,31,36,52,27,19,29,39
44,31,37,56,27,20,33,38
40,33,39,54,28,19,30,41
40,35,39,53,26,19,34,43
45,32,39,52,27,19,33,46
42,32,41,57,28,20,34,46
44,31,39,58,27,20,30,53
40,30,37,58,28,19,33,46
42,30,35,58,30,20,28,48
37,30,36,58,31,22,30,47
40,28,32,45,30,22,31,51
39,29,30,39,30,23,30,46
39,27,29,36,28,24,29,47
37,25,35,38,28,23,29,45
38,27,38,53,28,22,30,44
46,28,36,53,27,22,26,44
46,28,37,59,27,22,33,46
49,35,39,63,27,20,33,48
47,34,35,61,25,21,33,46
48,33,34,49,24,19,31,50
45,33,36,55,25,18,31,46
39,31,40,52,26,17,23,40
36,25,41,57,32,20,38,38
39,27,43,60,34,20,37,47
38,34,42,59,35,21,39,44
30,34,42,56,35,23,39,43
33,34,38,53,33,24,39,46
32,33,39,45,29,23,24,47
31,34,42,54,28,23,23,38
31,30,42,56,27,22,19,37
43,31,42,58,27,22,21,39
48,32,45,62,27,21,20,40
47,34,43,63,25,21,22,36
49,33,36,53,22,21,23,42
49,31,37,50,21,21,23,40
40,33,36,47,26,22,28,40
36,32,37,41,28,23,32,37
37,32,39,40,30,23,32,41
34,33,44,48,34,23,36,39
33,35,46,54,34,24,36,38
32,31,47,56,33,23,32,39
31,32,46,57,35,22,29,39
34,31,44,57,35,22,29,44
34,30,41,52,33,22,27,47
39,27,36,48,34,25,29,48
39,28,37,45,30,24,28,47
37,26,34,46,28,25,29,46
42,25,33,45,27,25,29,48
42,27,33,45,26,24,32,45
43,31,36,47,26,20,31,47
43,30,33,50,26,19,30,48
46,30,30,49,26,16,29,52
40,30,36,50,25,16,28,44
41,29,38,49,25,17,22,42
38,25,33,49,27,19,26,41
39,28,36,46,27,19,27,40
39,29,40,47,26,20,26,39
39,30,37,48,25,21,29,42
36,29,38,51,26,21,29,42
37,31,38,47,28,19,26,43
40,30,38,48,27,18,24,50
40,31,35,45,28,18,25,46
40,31,44,62,29,18,21,44
45,31,44,62,29,20,21,45
43,33,44,62,28,20,20,45
43,35,44,62,28,21,21,45
41,34,44,62,28,22,26,47
42,34,35,42,27,21,25,48
39,35,34,39,25,21,24,48
42,33,34,36,24,22,26,49
37,29,31,39,28,20,26,43
36,30,36,44,34,20,22,39
32,30,34,45,36,22,24,37
32,27,31,49,35,21,24,37
31,28,30,53,37,23,25,35
30,28,33,56,34,24,30,37
31,27,30,57,30,23,29,37
31,25,32,59,28,21,29,38
32,26,35,63,30,22,28,36
31,24,40,62,28,19,26,34
34,24,38,56,29,21,21,41
33,24,40,54,28,22,24,43
50,27,45,60,28,21,23,45
52,27,45,54,26,21,27,46
53,30,41,52,26,22,29,50
53,31,42,53,26,21,33,42
53,33,40,52,27,21,33,41
50,32,36,47,29,23,33,43
49,32,35,51,32,22,29,46
46,31,36,57,32,24,29,38
45,30,36,60,31,22,25,39
47,29,37,61,32,23,27,46
43,30,39,61,30,22,28,42
48,30,42,56,28,24,31,41
49,30,40,54,27,23,30,42
49,29,41,53,27,23,30,41
47,30,42,55,28,23,32,40
43,27,40,51,28,23,33,40
35,26,38,50,26,20,31,38
33,29,38,47,26,20,34,43
42,30,45,59,31,23,59,63
50,29,45,55,30,23,73,74
50,31,45,63,32,23,83,86
56,33,50,68,32,24,85,94
60,30,50,69,34,25,86,95
55,30,46,65,32,23,73,83
47,30,44,63,32,23,57,73
44,28,41,58,32,22,42,60
37,26,38,61,33,24,39,50
34,26,38,64,33,23,37,48
35,25,37,56,31,23,32,47
39,22,36,57,31,21,38,48
43,27,37,55,29,21,36,48
45,25,35,49,27,18,34,49
44,28,37,49,24,21,33,47
44,29,36,49,26,21,34,49
42,30,41,50,24,22,25,44
38,25,39,49,25,23,25,40
33,27,39,45,24,24,26,32
35,26,35,41,23,20,25,38
33,24,35,37,22,21,26,36
32,25,31,37,23,21,28,35
31,26,31,40,26,20,27,36
32,27,30,40,26,19,25,37
25,31,30,37,27,21,23,31
28,32,34,61,36,22,28,34
36,32,34,62,39,24,32,53
45,33,35,61,36,24,33,58
59,31,37,62,37,24,34,63
63,27,41,65,36,23,33,69
64,28,38,47,29,23,33,70
63,28,38,44,24,23,27,62
58,28,40,47,27,24,28,63
47,28,40,48,27,22,43,66
58,33,36,46,28,23,49,84
72,33,43,51,31,22,62,135
73,35,42,54,32,23,65,143
77,37,43,59,33,24,67,146
85,38,45,58,30,25,61,149
83,36,45,66,35,29,78,139
72,36,38,68,35,29,71,94
83,38,39,66,36,28,74,95
108,39,42,66,34,28,131,126
112,41,44,72,36,29,136,126
110,41,45,68,33,25,127,127
111,41,45,61,29,26,134,128
105,39,43,63,27,24,131,122
90,36,41,61,27,22,75,88
80,31,37,57,25,20,68,106
93,33,35,52,24,21,77,109
98,36,41,57,24,19,63,108
99,37,44,59,28,19,66,134
89,40,44,59,31,22,83,140
92,42,47,59,32,23,85,127
84,38,49,63,33,22,77,133
87,37,47,66,33,22,81,138
105,39,52,63,37,23,84,127
118,36,51,66,36,23,78,151
122,39,49,68,35,22,80,159
122,39,50,69,37,25,86,159
132,45,49,62,36,24,87,157
119,46,45,68,31,26,85,170
114,47,47,64,31,25,87,153
113,49,54,65,33,28,99,169
127,51,50,58,30,27,106,178
125,47,54,60,32,29,104,200
120,46,55,61,34,28,100,177
114,47,68,76,34,29,106,184
148,47,69,92,38,28,122,174
141,46,72,100,40,28,120,176
134,44,69,105,40,27,118,147
141,44,68,103,38,28,125,151
146,51,53,93,40,26,114,165
134,50,46,75,32,25,90,151
135,55,41,66,33,24,78,136
137,55,40,58,31,25,81,146
135,55,42,58,34,24,85,171
130,46,40,55,30,25,85,142
117,43,44,66,35,26,78,143
107,38,44,65,33,27,80,137
104,41,53,70,35,27,110,142
104,42,52,69,33,30,102,117
118,48,57,72,36,31,112,124
118,49,55,66,33,32,126,136
116,50,62,66,35,31,129,138
118,49,60,63,34,31,106,132
119,46,60,70,35,27,112,122
106,41,61,70,34,25,109,133
111,40,60,65,35,23,97,128
122,39,60,72,37,24,94,131
121,36,59,76,36,22,90,124
117,36,55,68,35,21,83,136
116,39,53,70,33,21,70,115
105,41,55,71,31,25,62,101
107,42,51,70,26,23,62,116
101,43,52,71,29,27,81,116
112,45,56,70,30,29,81,103
118,42,57,70,27,29,81,111
124,44,58,79,34,27,87,128
111,45,55,79,34,28,89,125
135,51,55,75,34,25,84,138
133,52,53,83,34,24,85,136
123,51,51,81,37,24,86,137
121,53,47,74,37,27,104,125
135,51,46,73,35,27,105,118
116,45,44,70,34,30,98,129
111,45,47,67,35,32,105,169
126,50,52,68,32,31,107,163
111,43,53,68,32,30,91,170
115,44,60,71,33,31,87,178
113,47,66,74,36,30,89,162
118,47,66,74,37,27,87,131
107,43,67,77,37,28,81,137
107,42,68,81,33,25,69,125
94,46,63,73,34,24,76,133
102,47,56,71,30,22,79,133
104,51,53,65,27,22,71,130
108,52,51,66,31,23,97,174
122,54,52,60,31,28,101,182
123,51,56,66,31,29,100,172
118,48,60,77,31,30,94,173
111,47,62,77,31,29,98,178
114,49,66,78,30,28,89,173
112,59,67,89,31,26,93,195
118,62,67,86,32,26,95,195
115,61,67,88,32,27,94,199
109,56,68,89,32,27,92,196
106,54,64,86,32,28,80,172
103,45,63,81,32,30,77,155
124,41,64,96,35,33,81,161
127,45,61,89,39,32,81,163
128,45,63,97,41,33,82,164
127,44,63,99,43,35,90,155
139,45,61,95,46,35,107,178
115,43,63,79,49,32,116,233
132,43,64,74,45,33,127,233
130,42,56,62,44,33,126,232
128,50,54,53,40,31,120,230
107,55,54,49,36,29,107,225
108,61,52,78,32,27,97,181
89,63,53,83,36,31,108,191
90,63,56,92,47,33,129,227
105,60,56,95,51,35,130,229
105,54,58,98,51,35,125,207
106,47,53,83,49,34,124,186
106,44,53,83,48,32,104,180
106,48,53,76,38,28,77,135
96,47,64,85,36,27,78,170
100,49,64,82,43,35,119,203
96,49,63,81,44,40,163,238
96,51,69,77,44,42,168,231
102,48,69,80,43,42,174,243
110,49,63,82,49,48,211,246
110,49,62,87,44,42,209,251
105,49,62,91,44,38,189,230
112,50,54,98,41,36,187,226
107,47,55,96,43,36,184,211
134,51,59,92,35,31,158,207
145,53,60,85,36,33,170,244
160,54,63,83,32,33,161,252
159,55,62,77,37,32,158,266
165,60,64,79,39,32,160,280
195,61,83,99,42,34,169,297
207,75,84,104,46,37,142,253
196,76,84,106,50,36,133,230
193,79,86,107,48,34,134,216
187,83,86,103,45,35,135,199
132,80,68,79,43,37,111,142
112,66,66,78,40,32,98,116
109,64,63,75,40,33,91,127
112,61,63,73,40,33,88,126
119,57,66,79,41,31,79,118
143,54,58,74,40,27,65,117
138,52,61,74,42,29,65,123
140,52,61,74,39,27,81,130
137,47,59,71,40,28,82,125
137,41,49,63,37,28,84,129
101,40,44,61,33,26,87,123
103,37,37,57,29,25,88,121
105,40,37,52,27,27,80,111
103,41,43,60,27,27,77,114
97,46,43,65,30,26,77,123
98,45,45,66,31,25,67,121
95,48,48,67,32,28,92,151
93,44,45,67,34,28,101,152
93,42,39,64,34,28,105,160
87,40,49,66,34,29,99,154
95,44,52,66,35,31,110,164
84,41,50,65,34,27,91,131
81,45,54,68,34,27,74,118
98,51,61,77,34,26,71,122
105,51,59,79,33,26,96,129
98,52,61,81,35,25,82,140
99,52,64,88,38,25,82,153
99,52,64,90,38,25,91,162
82,47,57,79,36,28,95,173
88,47,58,78,35,27,88,177
89,53,57,82,35,27,90,168
86,56,53,73,32,27,93,168
89,58,52,64,31,27,88,165
86,61,51,67,33,25,91,160
78,60,46,58,36,26,87,165
76,53,46,70,42,27,97,172
79,49,52,78,44,28,98,162
78,46,50,77,44,26,96,158
78,44,54,76,45,26,89,138
87,46,58,93,48,26,90,182
95,48,55,85,43,26,100,185
116,57,63,88,44,28,107,212
119,56,67,94,45,29,106,215
126,56,65,94,44,30,108,225
119,52,63,76,38,29,101,175
123,53,65,70,39,29,96,167
104,42,54,56,36,27,95,133
104,42,55,53,38,28,99,130
96,45,57,52,39,28,97,129
91,45,55,57,44,27,91,138
86,42,52,62,42,26,82,131
92,44,50,63,39,26,66,136
82,47,43,58,38,25,78,137
86,43,44,67,37,25,83,130
89,41,54,75,33,26,85,125
77,43,52,73,32,24,76,111
64,41,61,76,34,24,76,93
77,35,63,78,34,29,78,90
78,35,66,78,33,28,80,95
78,41,59,69,30,28,82,97
75,39,61,68,31,30,94,101
77,40,59,72,31,30,94,136
65,41,57,71,30,25,80,132
66,45,48,59,32,26,82,132
65,43,51,64,33,27,87,129
69,47,59,69,33,26,78,131
68,48,57,63,34,26,76,97
80,48,57,64,33,27,85,108
75,45,61,70,33,26,85,115
73,45,59,72,31,27,90,128
82,44,56,84,32,27,90,123
88,47,61,95,33,26,102,133
86,48,61,96,34,26,95,134
83,47,61,104,33,27,96,138
82,45,63,99,36,25,89,126
78,43,58,93,36,29,101,141
75,40,54,82,33,34,95,132
67,40,60,82,35,35,105,160
69,40,59,73,36,36,109,154
76,39,60,73,35,39,104,161
72,42,59,61,33,35,103,151
81,40,59,69,37,33,115,179
102,41,61,73,35,34,111,152
135,44,68,80,36,33,109,182
137,43,67,83,36,30,110,180
139,39,68,87,40,32,101,180
134,46,66,83,38,30,98,165
128,49,61,78,39,31,109,189
94,47,57,69,38,33,105,162
87,51,57,67,38,33,106,170
93,52,58,61,35,31,110,167
89,49,54,70,35,33,97,172
91,46,56,79,36,28,87,159
92,51,52,79,36,30,110,205
101,53,55,83,37,35,120,214
96,53,54,86,36,35,114,217
100,53,60,75,35,35,115,207
98,51,62,71,35,37,112,200
111,63,64,78,33,34,93,161
134,63,59,73,32,30,102,152
141,61,58,77,34,32,104,169
138,59,52,76,37,32,101,166
132,60,47,77,35,30,95,160
122,43,45,69,37,34,111,162
99,43,44,75,39,35,91,152
86,44,47,72,39,32,90,141
96,46,50,73,37,32,111,154
92,45,46,63,37,33,110,152
86,46,43,62,34,28,84,124
75,43,47,68,30,25,88,132
73,42,48,75,33,26,95,138
72,42,46,79,33,24,72,121
79,45,54,85,34,24,78,139
79,43,59,90,36,26,97,141
75,44,62,86,63,25,94,142
74,46,62,84,67,25,91,136
68,43,73,95,69,28,97,147
67,42,73,93,69,29,102,140
69,41,70,97,69,27,86,140
83,48,66,95,45,29,94,126
99,50,63,92,35,29,95,139
99,49,53,78,31,29,97,147
97,50,52,75,29,28,92,138
101,53,50,64,32,29,100,144
92,49,54,61,32,31,96,148
86,46,51,56,35,31,97,133
83,47,50,56,34,31,101,131
87,49,66,69,35,32,118,148
91,45,68,76,35,33,115,147
88,42,67,80,36,32,113,145
81,42,72,86,36,35,113,172
84,43,73,96,38,34,107,174
88,41,61,91,36,33,108,172
99,46,61,89,36,35,136,211
109,44,63,88,34,33,140,220
108,42,59,83,31,29,134,196
112,47,58,72,32,30,137,195
115,45,63,68,33,30,119,189
107,43,60,63,32,25,84,155
102,46,57,63,34,26,83,167
100,46,59,62,33,26,83,165
98,43,62,64,33,26,80,153
85,43,60,69,32,26,77,150
78,41,60,69,32,28,83,143
72,40,60,68,31,27,75,114
76,41,65,73,33,26,78,136
74,42,62,70,33,27,73,140
74,37,65,83,33,25,75,132
78,37,66,81,34,24,71,127
101,35,66,80,34,27,77,128
98,37,65,87,34,28,90,110
106,42,68,93,38,28,90,108
106,49,60,78,38,30,91,126
112,49,58,83,37,30,100,166
103,52,63,83,40,30,116,238
106,52,61,80,44,31,120,244
93,49,57,73,41,30,119,256
94,44,57,70,43,29,125,262
81,43,57,65,41,32,129,272
67,47,51,63,40,33,133,208
77,46,59,74,38,33,127,219
83,45,69,86,39,34,133,208
86,49,67,88,37,34,129,191
84,53,66,90,39,32,117,143
97,49,66,89,40,32,121,202
100,47,56,76,38,31,118,206
96,47,46,67,39,35,119,217
92,42,48,68,41,38,131,237
105,40,60,69,39,35,135,261
102,45,60,74,38,34,108,238
94,44,60,69,36,36,112,226
103,49,67,83,34,33,118,253
108,51,69,84,35,32,115,234
97,49,61,83,35,32,109,206
92,45,65,81,34,30,111,200
99,49,66,80,33,28,107,211
94,47,57,60,33,27,89,159
108,50,54,56,32,26,79,183
118,52,66,69,34,28,79,197
112,52,60,65,34,28,85,180
100,47,57,66,34,27,78,159
102,48,56,68,35,27,89,181
97,44,56,66,33,27,82,159
86,47,42,62,31,27,104,150
94,47,44,73,31,28,98,172
108,48,47,79,32,30,101,182
108,43,48,77,30,29,109,184
98,42,51,77,29,30,111,187
100,37,51,74,30,32,104,199
94,42,53,65,34,32,111,197
78,43,54,70,33,30,111,197
73,42,57,73,32,30,113,193
75,47,53,74,34,29,112,213
66,46,57,73,33,27,109,197
63,43,57,72,31,24,130,221
62,42,57,67,33,26,129,211
66,43,65,87,36,27,121,216
77,41,65,89,36,26,120,208
80,41,61,86,36,26,125,206
83,42,68,95,39,27,109,184
90,41,68,93,39,29,111,194
89,49,64,74,38,31,111,182
85,50,68,81,40,33,123,207
98,50,68,84,42,34,114,213
102,54,61,84,40,34,105,202
104,60,62,85,40,32,113,207
105,57,55,85,39,30,110,206
105,59,52,80,36,28,103,172
100,63,54,92,40,28,103,176
109,59,49,84,43,31,157,179
102,54,45,89,44,30,156,162
101,51,51,88,45,30,157,159
94,49,59,87,45,31,153,145
95,47,60,74,40,31,168,148
91,49,67,75,36,30,118,148
98,48,69,73,37,33,126,150
93,52,75,76,35,34,120,145
94,53,73,74,35,34,120,147
94,51,75,78,34,33,97,168
100,51,78,90,36,33,98,173
104,55,86,88,34,35,127,240
134,58,82,89,35,34,133,257
134,54,79,88,34,34,133,265
127,53,76,83,33,35,132,242
123,50,74,81,37,37,145,253
153,50,67,88,39,34,124,227
130,48,60,83,39,38,154,256
136,50,60,90,42,36,156,260
136,51,65,101,45,38,164,267
126,57,58,96,42,33,155,247
81,53,56,86,37,31,142,229
80,48,68,107,42,30,108,187
76,46,66,102,40,34,122,192
84,45,59,102,42,35,115,191
88,44,61,99,39,36,109,185
84,47,58,101,40,36,113,174
87,47,46,78,34,32,108,158
88,51,50,82,37,29,105,184
82,52,49,71,31,24,96,174
83,48,52,82,38,30,96,189
88,59,56,87,41,36,116,239
91,60,52,88,46,36,117,237
86,60,52,91,48,37,105,204
91,59,55,93,48,36,110,217
97,59,51,85,44,32,136,233
99,48,55,85,40,29,111,174
102,48,59,85,41,28,137,217
101,42,58,76,36,29,135,214
108,44,57,73,35,28,132,197
97,46,63,74,34,27,105,165
93,53,55,65,35,26,127,202
80,53,54,69,34,27,110,183
80,55,51,70,33,24,111,182
63,55,50,72,35,28,129,190
73,53,45,70,37,28,129,193
72,43,47,76,36,27,104,145
82,45,49,75,33,27,113,111
98,46,55,88,34,29,113,132
98,43,61,85,38,32,94,122
98,47,60,85,39,33,98,118
99,46,60,86,42,33,108,139
98,45,57,91,43,34,93,136
93,50,54,83,42,34,97,112
97,50,46,80,39,31,114,126
95,52,43,77,36,31,114,134
90,55,48,80,34,30,107,112
83,53,55,91,33,29,98,116
90,49,56,94,36,26,108,151
88,49,57,98,35,27,88,144
95,48,62,100,33,24,82,136
96,45,62,100,32,25,80,135
98,44,58,86,30,22,80,145
89,45,56,79,28,24,83,129
99,46,61,82,29,24,95,134
92,44,57,79,29,23,99,155
92,44,56,69,31,24,121,172
89,44,53,63,31,24,124,164
82,42,60,68,32,24,107,146
72,39,59,65,31,23,96,155
66,39,56,64,33,28,112,150
71,37,55,65,30,27,103,152
71,38,57,70,30,30,101,170
80,49,49,64,29,31,117,183
76,49,44,61,29,31,116,175
81,45,46,63,29,27,99,164
74,47,46,74,31,28,87,151
79,48,42,69,31,27,91,132
86,43,48,74,30,25,76,117
85,44,52,74,32,28,91,141
82,45,50,86,33,29,86,136
90,46,50,90,36,31,108,139
87,48,51,93,37,29,101,132
67,43,43,89,39,29,103,133
75,46,39,93,41,29,104,156
72,45,43,87,39,27,105,158
82,42,47,72,38,24,81,164
80,44,43,67,38,24,84,168
84,44,49,69,36,23,95,165
96,40,52,65,35,23,92,128
105,42,50,60,38,25,96,149
95,42,48,57,39,27,102,146
97,39,71,83,41,26,99,141
95,39,74,85,43,27,85,157
90,41,75,85,41,28,81,152
80,39,78,85,38,27,78,132
82,40,83,110,40,29,80,148
78,38,69,98,37,33,81,158
92,43,63,94,33,32,94,149
81,40,65,96,32,29,89,153
88,39,66,103,32,29,91,158
88,45,63,77,26,25,85,142
89,44,58,70,26,21,84,131
81,41,61,73,30,23,64,121
83,42,63,68,31,26,55,101
87,43,63,62,32,28,86,146
86,40,59,63,34,30,104,140
87,41,60,70,37,31,104,143
83,40,72,85,42,32,120,164
80,38,66,88,42,32,122,165
70,40,62,85,42,30,101,116
78,34,65,91,44,27,80,130
80,33,64,85,42,26,81,130
98,38,50,71,35,24,88,114
97,42,54,70,38,24,88,114
101,42,55,73,39,23,92,122
95,44,49,69,35,25,89,98
100,55,52,73,36,26,98,125
82,54,52,70,34,25,71,113
95,53,56,71,36,24,108,132
86,56,56,72,36,26,110,151
82,58,59,71,36,26,109,154
76,51,55,65,34,23,101,136
90,52,56,69,36,25,106,147
87,53,53,67,33,26,81,147
94,49,49,69,31,26,78,130
96,47,47,66,30,26,87,133
94,47,47,70,30,27,101,128
83,44,48,72,30,25,96,114
70,41,45,69,29,24,94,108
61,43,44,61,28,23,91,100
82,48,53,67,28,25,98,99
90,48,55,69,32,26,91,101
99,49,64,82,35,26,97,123
100,49,68,84,33,26,104,119
102,45,70,84,35,27,110,127
82,41,68,91,39,28,96,140
75,42,68,94,39,31,91,142
70,38,58,79,39,32,88,152
73,42,67,83,40,33,87,149
78,43,64,84,40,33,78,145
78,48,64,78,36,31,76,143
74,49,67,74,33,27,80,147
69,51,67,73,32,27,95,130
80,48,55,64,31,26,83,149
77,48,57,66,30,25,91,155
83,43,51,59,33,25,115,146
90,41,54,55,35,25,117,143
104,37,51,59,34,27,116,156
98,36,56,69,33,25,115,139
95,36,55,66,34,27,121,138
90,42,61,69,32,28,106,135
97,40,55,80,33,30,100,127
79,43,53,75,31,26,94,103
72,43,49,67,33,28,115,131
86,44,51,73,31,27,107,152
105,38,44,70,30,28,107,160
97,38,47,66,27,26,121,179
100,36,51,75,30,29,112,176
108,39,57,83,31,27,90,150
103,42,55,77,33,28,88,126
85,44,54,75,34,26,85,128
100,43,55,65,35,29,67,128
96,51,60,64,33,28,73,127
101,49,57,55,32,28,83,136
98,46,58,61,30,26,82,137
99,45,58,69,30,25,79,127
98,49,62,78,30,22,78,105
97,41,56,76,33,22,82,106
98,43,51,74,33,23,82,111
101,45,47,68,34,23,81,106
112,48,52,68,33,25,83,119
104,46,42,63,31,23,88,133
106,47,43,64,29,25,90,150
96,47,53,71,31,26,84,140
99,48,60,77,31,26,87,141
88,48,61,86,34,26,86,129
89,47,63,85,34,27,84,117
87,50,72,97,36,27,75,94
86,45,65,92,36,26,70,89
90,45,70,93,37,29,89,135
96,42,66,82,35,29,87,140
89,44,70,81,37,30,89,147
87,40,59,64,35,28,88,143
85,41,58,70,33,27,88,145
80,42,51,68,31,25,68,101
83,42,50,70,31,25,69,125
81,40,45,72,29,26,62,135
83,39,46,75,29,28,60,138
84,40,50,73,28,29,68,140
80,41,55,80,34,29,102,146
76,47,54,77,35,30,113,136
94,50,53,74,35,28,114,121
92,50,59,74,37,27,124,122
91,51,59,71,38,27,124,121
83,48,54,58,34,24,94,113
84,42,57,61,32,24,89,107
82,40,59,66,31,25,88,106
86,52,64,75,28,27,86,101
101,51,65,86,32,32,84,129
110,54,63,90,31,34,90,130
101,54,63,92,32,32,78,124
91,59,60,89,35,33,84,129
93,50,50,79,35,32,81,140
78,51,48,71,30,28,82,115
76,49,52,73,34,28,97,143
96,48,59,77,36,28,99,142
95,45,65,84,37,27,91,129
91,45,64,87,38,28,97,150
97,45,63,89,40,32,110,164
113,48,63,94,39,30,95,138
111,52,57,94,39,32,96,149
121,48,59,98,38,31,96,154
149,52,62,100,38,30,83,131
155,63,67,104,38,26,72,123
148,60,64,97,35,26,85,134
145,57,64,92,34,27,102,140
147,59,59,82,33,29,104,137
142,60,55,79,32,29,111,143
153,53,60,72,30,29,108,144
153,52,61,73,33,29,101,137
159,62,60,76,31,28,95,129
161,63,59,82,32,26,98,138
142,60,59,78,30,24,92,130
118,54,50,75,34,25,84,122
132,57,55,72,30,24,80,122
117,46,55,66,30,24,76,118
105,46,62,62,31,25,73,121
109,43,65,68,35,27,72,124
133,47,66,70,35,28,84,143
121,45,64,73,37,28,92,146
146,45,65,78,40,27,80,151
189,59,66,74,38,28,101,153
188,62,63,66,34,27,102,150
173,60,63,69,37,26,103,169
174,61,68,85,39,28,106,170
160,67,71,86,40,31,113,163
120,54,66,93,39,31,93,157
119,50,77,103,39,32,101,170
127,50,76,105,41,33,105,159
125,51,71,94,37,33,92,161
122,47,66,91,35,30,97,176
113,49,71,85,36,30,97,172
113,47,60,74,37,30,88,155
110,47,60,72,31,31,72,147
112,45,65,67,32,30,90,156
137,48,66,70,32,30,88,143
141,45,70,78,35,31,94,147
142,49,82,79,32,31,100,160
137,46,84,77,33,31,111,178
143,47,80,79,35,29,100,176
123,40,82,77,35,31,98,184
115,37,74,72,32,29,102,202
119,35,62,70,35,30,102,206
134,41,62,73,37,32,110,185
114,45,62,72,35,33,111,189
115,46,60,70,31,31,116,179
123,52,63,73,30,33,108,159
124,51,62,73,32,32,109,168
105,47,55,68,29,27,90,158
124,43,55,74,30,26,88,145
128,43,51,74,32,26,77,139
124,47,52,73,36,28,90,150
121,47,51,73,34,29,101,127
144,54,65,78,36,30,103,125
136,54,63,76,39,28,103,134
131,52,69,84,42,35,120,151
125,52,68,85,40,32,119,139
125,53,73,90,39,31,102,134
101,46,62,86,37,30,99,133
97,46,71,101,36,31,97,122
101,53,68,98,35,26,76,120
103,48,63,93,36,25,59,117
103,46,57,86,36,27,77,125
97,49,65,100,37,27,87,135
118,50,60,85,40,27,90,138
107,46,55,81,36,26,85,135
115,44,55,79,33,26,92,131
113,43,55,85,33,23,83,130
123,40,48,69,33,25,85,139
103,39,43,65,29,25,94,145
101,38,47,68,30,26,97,135
95,39,52,74,30,26,89,132
101,44,55,71,29,26,88,125
95,42,58,71,28,25,83,118
93,44,57,69,26,24,81,121
99,41,55,68,28,24,81,127
99,39,54,72,33,24,86,131
97,34,51,70,32,25,85,134
86,33,44,66,32,25,89,142
87,32,47,65,35,26,80,129
92,34,48,64,33,25,77,128
92,34,46,53,32,27,75,146
83,35,45,50,31,29,73,148
86,35,46,53,31,28,81,128
91,37,44,53,28,29,79,122
80,40,46,59,31,30,83,125
79,42,45,59,32,29,90,112
75,41,44,60,32,28,88,104
71,41,41,52,33,27,75,99
61,38,38,53,32,25,71,96
63,33,35,43,30,22,71,87
80,31,32,42,26,23,70,92
82,30,34,42,26,22,71,91
84,30,44,67,26,23,84,97
93,33,47,71,29,23,91,113
99,37,51,72,31,25,92,124
86,37,54,74,32,24,88,125
84,37,59,82,32,26,91,125
85,40,57,86,32,23,81,121
76,37,57,87,29,24,72,111
75,33,56,89,30,25,67,95
86,34,55,89,30,26,73,105
92,37,50,88,30,23,69,104
92,36,45,71,29,25,61,105
91,36,46,69,30,25,62,100
82,36,42,65,26,22,59,96
69,35,50,71,26,20,42,66
60,34,49,64,28,21,54,62
62,31,50,62,29,22,61,71
68,31,47,57,28,23,62,74
75,32,47,56,31,24,78,119
72,32,35,49,29,23,76,115
72,33,38,45,30,23,66,115
81,36,39,45,27,20,60,111
85,37,39,49,29,24,79,121
77,38,47,64,27,25,79,120
75,39,51,63,28,29,82,130
74,40,50,64,26,28,86,130
77,38,49,62,28,30,93,134
83,46,47,60,31,30,81,135
84,45,40,46,29,29,65,98
84,41,35,42,30,27,71,85
83,43,33,44,29,26,68,84
70,45,38,52,31,25,60,77
56,41,40,66,29,20,63,59
61,42,39,77,35,20,68,78
58,44,38,79,35,19,63,78
57,40,38,79,35,22,66,80
55,40,39,84,37,23,72,76
55,43,50,84,35,22,65,75
57,44,52,74,32,22,65,62
58,43,56,75,34,23,74,74
58,43,62,86,35,21,76,74
70,47,60,82,33,22,67,78
68,41,52,77,34,22,70,75
65,41,56,94,33,22,69,73
72,48,52,92,31,23,56,57
77,47,48,86,32,22,47,56
65,40,49,85,31,21,53,51
68,41,51,84,30,23,61,55
63,39,50,70,31,23,57,57
54,32,52,70,34,21,59,61
47,34,52,63,32,24,65,62
48,34,57,66,33,24,65,66
47,32,58,66,33,23,56,63
49,33,52,59,31,23,61,66
57,33,53,63,31,24,71,85
59,32,57,71,32,21,69,89
67,40,58,66,28,20,63,88
62,42,55,65,29,21,60,88
66,41,64,73,30,20,54,86
61,38,66,72,28,20,41,66
59,39,63,69,30,22,54,62
46,29,58,70,34,21,64,84
50,32,60,77,37,24,65,86
46,37,54,76,40,23,70,87
53,40,51,78,42,25,76,88
59,40,51,81,41,23,64,84
61,43,50,78,40,24,53,60
63,39,50,77,37,22,64,62
62,37,52,76,35,23,58,59
58,39,57,73,32,24,66,65
59,40,56,73,30,25,72,64
69,40,60,77,31,25,73,64
64,39,58,81,34,26,69,63
61,38,56,80,34,28,82,82
61,39,61,87,34,26,82,85
58,39,68,94,34,26,90,91
41,36,68,97,36,26,90,90
45,37,73,95,36,24,86,87
54,42,75,94,35,22,73,67
59,39,68,89,36,23,63,72
56,38,69,93,45,22,42,61
61,39,67,92,48,22,48,65
58,37,60,92,47,24,59,75
58,33,55,89,49,23,59,73
49,31,68,99,46,22,55,57
51,34,65,84,39,22,60,61
44,37,63,79,32,21,56,57
47,38,61,73,36,21,56,82
44,43,64,80,35,23,55,87
49,46,50,69,35,24,53,89
48,45,48,72,37,23,48,89
49,43,52,76,37,23,60,97
58,44,55,77,34,26,88,103
61,41,55,73,34,24,101,120
60,38,59,75,37,25,104,120
69,36,60,88,44,28,116,127
70,42,60,88,47,28,124,127
62,42,61,87,47,25,102,102
57,41,63,91,50,28,96,80
55,40,58,91,52,27,98,85
43,40,59,79,48,25,84,74
48,36,59,82,47,26,78,67
53,40,58,83,50,26,82,72
59,39,56,77,47,23,80,70
59,40,53,69,43,22,74,62
59,40,59,70,40,25,79,65
61,41,61,66,39,24,79,70
66,38,59,59,35,25,79,98
64,40,56,56,30,24,74,104
66,42,61,62,33,26,104,110
66,42,54,61,33,26,100,108
65,44,50,64,32,26,89,109
60,42,53,67,33,26,85,80
64,41,54,71,34,26,86,76
63,40,50,72,34,24,62,73
64,43,45,67,32,22,62,71
60,41,44,67,35,21,62,64
59,38,45,69,33,20,60,64
48,39,43,64,35,22,66,64
54,39,39,59,39,24,53,67
61,37,47,68,40,27,55,74
63,38,53,67,38,27,56,73
59,40,54,68,39,28,54,71
61,38,53,68,39,29,64,67
63,37,54,67,31,27,82,86
60,37,60,61,30,25,84,83
56,35,54,55,29,27,85,86
57,36,51,51,28,25,84,88
55,35,57,53,30,25,73,83
56,33,57,54,32,28,66,63
59,37,44,53,32,28,73,66
61,36,52,67,35,28,78,70
61,34,55,74,37,29,79,67
65,35,50,71,36,29,86,88
56,36,48,71,36,27,76,89
50,36,48,71,36,25,67,107
49,38,45,61,34,23,62,102
56,37,47,50,33,27,72,110
60,36,50,57,30,24,70,101
65,38,56,58,30,25,76,108
67,34,56,54,30,27,83,92
68,34,51,51,30,26,81,93
63,34,44,48,25,23,72,84
68,43,43,50,32,24,79,78
66,42,36,53,32,22,78,72
63,41,43,58,32,22,66,71
59,40,44,58,32,22,68,69
63,39,45,67,35,22,72,71
54,34,42,66,33,27,67,88
54,34,42,61,32,27,61,77
51,33,35,58,34,28,60,74
52,34,40,63,35,29,58,73
47,34,45,60,37,28,52,73
40,30,46,57,36,24,55,69
43,33,51,61,37,25,70,77
47,33,56,63,36,24,70,74
53,32,54,57,35,24,70,79
56,33,54,69,35,24,71,76
55,33,51,68,39,24,75,56
60,32,49,70,43,29,83,78
63,31,45,69,43,29,86,88
57,33,50,80,48,29,99,86
55,32,50,67,50,32,101,87
63,32,57,80,45,30,96,105
63,28,58,80,42,28,76,82
61,30,57,79,41,27,72,74
63,27,54,75,36,26,53,77
62,26,50,73,31,22,50,75
58,28,49,58,32,22,64,75
50,27,44,58,32,22,87,107
53,28,46,61,33,26,93,120
52,26,45,59,34,26,97,117
56,29,49,61,36,28,109,124
49,27,44,59,35,28,95,112
58,32,45,52,32,25,75,91
59,31,47,51,33,23,72,78
57,31,45,42,31,24,78,83
57,31,41,45,32,23,64,81
60,30,40,48,33,25,70,83
55,25,41,53,33,24,69,76
53,24,36,50,30,22,72,74
52,25,37,55,31,22,59,66
50,27,37,53,29,23,55,59
49,29,40,54,28,20,46,49
50,30,44,54,30,24,65,55
51,30,46,57,30,26,63,73
52,32,45,52,30,25,63,72
50,28,43,48,27,25,71,73
50,30,45,54,27,26,76,89
57,32,41,53,27,24,66,83
53,33,42,57,27,23,62,69
55,30,43,58,29,23,62,71
59,30,44,63,32,22,57,70
63,27,37,55,33,23,74,68
51,23,40,59,33,21,72,79
47,23,40,56,33,20,72,77
48,25,44,56,30,21,72,77
50,25,44,58,27,23,69,75
47,32,47,60,28,23,66,68
58,36,46,54,30,24,72,70
61,38,44,53,30,24,72,67
59,38,40,53,32,24,71,64
52,39,41,46,32,22,75,65
53,36,41,44,31,22,58,54
44,32,41,48,28,21,53,42
41,30,39,44,27,21,54,53
43,30,42,47,24,19,56,55
43,28,38,48,23,18,55,54
41,25,35,47,28,21,66,58
37,27,40,49,28,22,62,56
51,30,45,51,30,22,82,59
55,30,46,48,32,23,94,71
58,31,52,53,33,24,90,72
57,31,53,58,28,22,80,69
65,30,50,55,30,21,81,72
59,29,54,58,29,22,60,64
54,27,53,57,29,22,38,52
54,27,51,53,28,23,48,55
55,26,48,47,30,23,53,61
50,26,47,45,30,23,52,56
50,24,41,48,35,24,52,55
54,26,40,50,34,23,60,62
53,27,39,52,33,23,53,64
54,35,41,55,33,23,48,57
49,33,40,55,33,25,53,59
48,33,38,47,30,23,58,62
45,32,39,45,32,27,74,78
46,31,37,45,32,27,80,78
43,24,35,46,31,27,81,80
42,25,37,46,29,25,77,79
37,26,39,49,29,26,74,80
49,28,34,49,25,23,51,63
48,29,32,47,28,22,61,59
47,26,35,44,28,23,64,59
52,26,35,42,28,23,70,62
54,25,35,40,27,24,71,61
55,24,41,40,27,22,74,57
55,23,45,43,29,23,61,57
56,23,45,44,28,21,66,56
53,24,43,44,33,23,67,51
59,25,41,43,32,21,61,54
51,27,38,43,33,22,57,49
52,28,34,39,29,23,57,53
53,27,36,41,30,25,59,55
54,28,38,41,24,24,54,56
55,29,39,40,27,25,70,64
49,27,38,46,34,25,69,64
53,31,37,44,37,25,71,64
51,33,33,38,39,25,77,63
58,44,33,45,39,25,79,72
51,46,29,45,38,23,74,64
54,50,30,41,32,24,76,65
54,49,32,44,29,23,82,72
58,51,29,43,25,24,73,74
51,42,27,34,24,23,69,66
58,47,36,38,24,23,60,58
78,46,35,38,24,23,58,60
90,60,36,36,24,24,52,63
92,61,39,40,23,22,63,62
102,74,48,45,26,23,67,62
110,74,42,42,26,24,70,64
96,87,44,43,26,23,75,63
85,79,47,46,28,22,74,52
100,85,49,52,33,21,57,57
113,106,42,47,34,22,55,63
127,123,48,56,37,25,53,61
148,129,47,54,36,25,64,79
152,147,46,52,35,26,59,77
142,155,43,44,31,25,67,75
127,145,48,52,33,25,65,69
110,137,45,49,34,21,62,72
93,132,53,58,38,24,48,49
108,174,55,61,40,25,48,58
139,220,69,77,43,30,71,67
196,271,72,76,40,28,73,73
214,276,75,82,39,32,79,82
216,286,74,81,39,30,84,85
223,267,75,80,37,30,88,84
219,250,73,69,51,29,67,72
196,232,77,74,54,30,66,67
186,233,76,72,54,30,60,64
195,228,76,70,54,29,57,64
182,232,78,73,55,28,57,66
191,242,70,74,42,25,54,71
185,217,71,80,36,26,53,73
182,226,69,77,35,22,51,66
196,235,67,75,34,26,63,73
206,243,67,77,32,27,61,78
205,242,83,76,31,27,61,83
208,250,77,66,33,28,61,84
240,253,86,68,39,29,66,85
228,236,90,69,39,28,59,86
221,215,89,73,39,30,59,77
223,174,79,77,43,29,59,70
237,189,87,86,43,30,60,72
212,169,89,101,49,31,79,81
211,199,93,123,53,30,76,87
213,199,92,120,54,29,75,87
201,206,90,116,52,29,75,84
168,171,81,110,54,30,81,85
165,185,84,104,47,29,73,80
164,163,77,80,45,29,82,80
175,179,85,81,48,28,81,85
172,174,90,85,46,31,85,86
178,175,95,87,46,30,85,86
162,152,87,74,45,28,74,82
166,144,87,67,40,29,63,80
152,125,86,68,36,29,77,78
140,119,81,62,39,31,79,80
129,116,80,60,41,33,73,78
128,116,78,58,39,32,75,81
109,113,74,61,43,34,70,73
102,102,64,62,45,35,54,68
111,107,66,62,43,31,57,72
126,106,58,60,38,29,80,95
130,104,60,69,39,30,79,97
154,127,61,72,37,28,100,109
149,132,67,70,36,27,100,110
146,131,59,68,36,27,93,105
130,140,64,68,36,25,72,79
143,149,80,71,35,23,84,89
129,150,86,70,36,26,85,98
133,150,82,66,36,25,96,101
157,183,89,70,36,26,99,104
202,191,90,70,38,28,99,108
190,182,74,60,39,31,88,95
187,173,75,66,39,28,75,67
185,170,76,75,48,33,70,67
174,132,75,75,48,33,74,66
122,111,80,81,49,33,76,63
137,117,82,82,50,32,96,81
145,103,78,78,50,32,89,89
137,101,76,67,41,27,85,91
121,97,69,68,39,27,79,90
127,113,61,58,35,26,77,88
123,114,59,57,33,22,45,73
106,110,55,54,30,23,46,62
122,107,56,53,29,22,50,50
129,119,57,45,30,20,51,51
140,106,54,48,31,22,50,50
128,95,53,43,31,23,50,54
136,99,50,42,30,22,43,64
125,102,50,45,29,23,46,69
123,100,54,51,26,25,51,74
118,102,65,53,27,24,52,77
117,103,67,61,27,25,53,72
105,100,76,65,37,30,67,75
105,99,75,67,41,30,66,74
103,95,77,64,43,28,61,67
91,83,78,66,43,30,63,66
87,81,78,62,45,29,64,71
88,82,70,57,37,24,54,62
86,81,71,61,33,23,58,60
79,69,68,65,31,23,60,60
79,74,60,63,33,21,58,59
81,75,59,65,31,21,55,55
81,75,65,66,31,21,58,59
81,78,62,61,33,22,46,59
81,75,61,61,34,22,43,62
67,62,57,57,32,21,41,60
80,98,58,63,31,19,44,60
76,98,55,74,35,19,35,53
81,102,56,75,33,18,33,56
85,109,53,71,33,19,34,54
89,108,51,72,32,23,50,59
85,74,45,64,32,24,48,62
96,76,44,49,28,23,48,59
96,68,42,50,29,26,54,64
95,58,44,50,29,26,55,63
91,56,56,61,32,25,62,69
83,58,62,64,30,24,63,67
73,49,63,69,31,24,62,65
78,50,63,66,30,22,56,54
79,54,64,73,29,20,56,53
80,63,59,76,27,19,40,43
80,62,54,71,27,18,37,39
78,64,51,68,26,20,61,52
68,66,54,67,25,22,61,57
64,63,55,61,25,24,60,58
61,52,57,52,25,25,57,54
64,55,58,56,26,27,70,58
74,56,59,68,29,25,51,61
81,49,55,67,27,24,51,61
80,51,51,65,28,25,64,70
82,53,43,58,29,23,64,73
83,53,58,66,29,23,65,79
69,51,57,52,28,24,67,74
56,54,63,55,29,22,67,70
67,60,73,68,27,20,56,61
68,59,74,71,27,20,59,61
61,55,74,66,28,20,42,49
63,55,73,65,27,17,54,49
67,54,74,73,27,19,54,50
57,46,67,62,27,19,54,52
63,51,67,62,27,20,49,57
65,50,56,58,25,21,49,57
63,53,55,62,24,23,45,59
60,52,55,51,24,23,66,68
64,52,59,52,25,22,67,71
74,60,63,50,27,21,68,66
72,63,66,50,26,21,72,67
72,59,66,47,26,21,74,68
84,58,62,49,28,20,60,67
83,58,59,50,30,21,58,60
82,51,59,58,28,22,60,62
84,50,54,58,28,21,56,63
89,57,56,60,28,21,39,59
74,56,57,60,25,22,35,49
73,59,54,59,24,23,70,61
60,58,48,53,23,21,69,58
57,60,49,60,29,21,72,66
54,59,47,62,29,20,73,64
72,58,47,61,31,20,78,72
74,54,50,61,31,21,61,66
84,55,50,62,31,20,60,66
83,50,51,53,27,20,57,60
82,44,48,48,27,22,57,61
71,46,49,51,27,22,77,70
72,48,45,50,26,22,68,72
72,47,50,52,26,21,70,83
78,55,55,58,26,23,76,88
77,58,58,56,25,22,88,92
77,57,54,54,21,20,69,82
75,57,57,57,24,21,68,81
63,55,54,56,24,21,65,73
64,49,47,53,23,21,58,68
66,50,46,51,24,22,59,63
68,48,50,50,26,23,61,68
66,49,50,50,25,25,61,68
66,46,48,48,28,26,62,64
60,46,50,51,29,26,92,72
58,45,45,52,28,25,84,78
56,45,49,59,27,24,81,73
63,46,46,59,27,21,81,71
77,50,47,61,27,22,83,75
77,51,54,59,23,20,46,61
78,49,59,60,25,20,37,57
79,48,57,55,26,21,34,52
80,50,58,53,29,22,48,65
80,57,58,51,33,25,49,66
78,55,53,54,34,25,49,67
78,57,51,53,32,25,51,62
76,59,50,51,34,24,62,64
69,53,48,49,31,23,51,53
49,43,48,49,24,21,53,54
55,45,49,46,25,21,54,49
63,51,50,47,27,22,53,51
58,47,48,53,25,21,42,46
60,50,52,59,24,22,43,48
65,50,51,56,25,22,45,51
65,56,58,62,27,22,44,51
56,50,55,60,25,23,46,50
59,52,55,55,24,22,46,52
60,51,54,53,26,24,46,47
60,49,55,56,26,22,43,54
58,41,46,49,26,22,59,62
62,41,50,51,26,23,55,61
65,41,49,51,27,27,54,63
68,43,53,47,27,26,55,71
63,45,55,48,27,26,48,61
65,45,63,51,28,26,25,53
67,43,62,51,27,23,27,53
64,42,62,51,26,21,64,64
59,45,69,67,25,21,64,60
63,42,67,64,25,21,64,60
58,49,62,64,23,21,64,60
50,48,63,65,23,22,66,62
58,48,66,69,25,21,46,56
63,44,59,59,27,20,50,53
59,46,57,60,29,21,53,53
64,39,52,58,30,21,54,54
70,46,51,54,29,22,51,55
64,44,58,57,28,22,49,50
64,44,53,55,25,22,51,57
68,51,55,57,25,22,48,54
61,51,54,57,25,20,48,54
62,54,61,59,28,21,47,55
60,56,47,47,26,20,35,53
62,61,51,49,27,19,25,45
62,57,53,50,27,19,42,48
71,57,56,51,27,21,45,48
66,51,47,52,27,20,45,46
66,48,49,52,28,20,45,45
64,46,49,51,26,22,45,47
60,46,45,51,27,21,30,47
49,48,44,53,24,20,48,50
51,45,44,54,24,20,56,50
58,50,44,58,24,22,60,52
59,47,41,57,26,22,60,56
64,46,50,63,25,22,71,59
64,43,51,62,27,22,63,59
64,44,54,61,27,23,60,63
68,41,57,60,26,23,59,65
66,44,56,58,27,22,61,63
65,42,58,60,28,23,62,62
68,42,58,56,30,24,59,57
69,42,54,57,30,23,56,57
58,40,53,57,30,23,55,58
63,38,56,68,30,21,54,52
68,42,51,63,27,19,62,57
69,41,48,62,25,20,67,64
64,44,52,66,27,20,67,59
63,46,50,66,27,18,66,54
57,50,44,57,27,21,69,66
48,49,36,50,27,21,62,63
46,60,42,58,29,19,55,62
49,60,39,52,27,19,54,62
49,60,39,50,26,19,54,61
41,56,41,45,26,17,55,54
51,56,48,50,25,19,39,49
46,44,51,51,23,19,37,43
51,50,51,52,26,21,53,49
53,49,52,51,26,21,54,49
59,48,54,52,27,22,54,50
61,46,52,53,27,20,54,53
64,52,44,45,27,21,66,60
65,48,43,43,25,20,55,59
66,51,45,48,25,21,56,60
62,55,50,52,25,21,50,57
54,55,45,46,26,21,51,52
50,49,45,47,25,22,35,43
56,50,48,52,24,22,33,42
61,48,46,51,24,21,33,41
60,45,38,52,23,21,53,47
58,45,40,55,23,21,54,47
62,48,44,59,23,18,54,48
51,43,42,52,25,18,54,46
50,39,36,48,26,18,52,49
58,39,40,47,25,20,63,52
68,42,40,48,26,21,64,58
66,41,39,44,27,23,68,62
82,46,43,48,28,24,85,74
80,46,48,48,27,26,87,71
81,45,46,48,30,25,73,70
73,46,46,47,29,25,72,67
72,46,49,48,28,25,68,64
61,49,45,47,25,24,45,53
63,50,46,47,25,24,65,69
65,54,47,45,22,23,61,69
69,51,47,44,20,23,62,68
71,51,42,46,20,22,64,68
65,45,47,49,22,22,64,68
68,45,45,52,22,20,64,63
62,49,44,51,23,22,70,64
71,55,42,50,25,21,67,62
72,54,43,46,25,22,66,67
71,57,42,48,25,22,66,64
65,57,50,55,25,23,44,52
71,53,53,57,24,20,28,42
77,50,55,63,23,20,68,74
75,54,54,64,22,21,68,70
79,56,53,60,21,22,70,74
79,60,47,55,21,21,71,75
73,66,48,62,21,21,74,75
62,66,55,57,22,23,41,49
72,68,56,58,23,23,38,52
76,67,56,59,26,22,60,59
80,66,59,60,26,22,63,63
80,56,66,57,26,22,60,65
72,54,58,55,27,21,61,61
69,61,66,64,27,20,62,63
62,60,69,69,25,21,38,53
70,59,70,65,26,21,31,63
106,67,68,62,26,22,78,77
116,78,80,69,28,22,82,86
122,80,79,61,29,22,83,84
171,101,84,63,30,23,86,88
175,106,83,69,31,23,87,80
176,109,79,71,32,23,52,69
175,111,68,65,31,24,43,58
175,111,61,65,30,25,53,57
137,107,57,64,30,25,53,57
142,105,55,58,30,24,52,60
118,102,55,62,29,26,49,53
117,98,57,63,32,24,71,57
114,94,63,69,34,21,64,63
102,77,58,62,32,22,62,62
97,75,60,71,32,21,63,63
93,68,60,66,31,22,66,64
92,65,60,69,29,22,49,60
93,91,62,63,28,25,65,70
100,96,63,64,30,24,68,74
95,96,63,57,30,25,68,74
98,100,64,58,32,23,67,76
93,96,62,50,32,23,71,79
95,83,57,48,29,21,55,65
91,81,55,50,28,20,53,55
78,76,50,44,27,21,50,53
88,91,47,41,26,22,48,49
107,94,52,45,27,21,38,48
96,79,53,53,30,23,60,55
95,79,59,56,29,23,63,57
101,82,60,59,30,23,64,53
90,68,60,59,29,23,64,53
66,66,57,60,29,23,61,52
71,69,56,55,30,22,50,48
103,85,55,50,32,22,66,68
111,83,56,49,31,21,67,71
118,79,61,51,30,21,68,71
120,81,62,57,30,20,68,71
139,96,65,60,30,20,60,72
116,79,63,61,30,22,61,61
104,84,62,60,31,23,62,62
112,93,57,60,30,23,63,64
120,91,53,53,32,23,66,70
98,73,49,54,31,23,66,67
98,78,51,55,31,21,41,62
108,80,56,60,31,21,52,62
97,68,56,59,32,20,49,66
83,69,60,62,29,20,47,60
82,70,63,61,28,18,50,56
79,66,61,59,27,18,50,52
67,54,56,57,26,16,38,54
69,53,61,58,27,18,55,56
75,52,61,60,26,18,58,57
71,48,56,53,26,18,53,56
72,45,55,59,28,18,77,80
67,45,53,57,29,19,75,75
58,47,50,58,31,21,64,68
53,45,44,52,32,21,63,71
56,44,46,53,32,22,65,79
67,51,49,61,32,22,41,58
70,54,51,70,33,22,54,66
71,50,50,66,30,20,58,69
68,48,50,65,27,21,60,67
67,49,47,68,26,20,58,59
64,49,52,67,24,22,73,66
68,45,48,58,22,21,65,62
63,49,46,57,22,20,62,61
64,53,46,64,22,21,58,58
70,54,51,70,23,21,59,61
66,56,42,66,23,21,36,52
65,57,42,66,23,21,53,60
65,56,41,66,26,21,57,61
67,57,54,64,29,22,57,62
68,59,57,57,31,22,56,59
74,55,56,48,31,22,66,63
75,54,56,46,31,22,62,63
81,54,64,56,30,22,59,62
77,49,56,56,27,23,58,60
78,51,55,66,26,22,59,63
88,48,63,71,26,26,69,79
91,60,71,77,28,25,71,73
93,60,70,76,29,28,106,121
123,64,68,77,33,27,131,177
128,61,62,69,35,28,135,180
114,65,53,68,37,26,129,177
116,56,51,67,35,27,131,184
114,58,58,65,39,28,119,171
85,60,67,69,38,27,102,130
77,57,71,75,44,31,130,164
99,56,74,78,42,31,141,181
89,57,82,96,43,31,158,177
93,55,82,94,43,30,155,177
117,62,81,87,41,29,152,178
126,65,80,83,34,27,139,145
117,65,78,79,36,26,130,146
132,65,80,68,38,26,116,150
134,69,81,74,36,26,152,191
120,62,77,79,36,26,155,187
112,63,89,85,38,24,151,194
129,65,96,95,38,24,152,195
134,73,98,102,36,24,154,221
139,74,96,103,35,25,156,197
138,71,99,102,36,28,158,205
144,76,98,102,35,28,156,201
140,80,92,97,36,28,158,193
130,79,81,90,37,29,160,230
134,81,81,87,39,28,127,214
146,87,83,92,42,27,130,204
154,82,77,94,40,27,136,211
172,74,78,92,40,29,134,217
200,76,87,92,37,27,149,185
197,69,86,92,38,26,154,197
218,67,93,94,34,24,152,211
209,64,93,91,35,24,155,218
191,68,94,95,34,23,153,214
168,57,86,83,33,23,140,210
193,60,82,86,37,25,142,221
168,65,82,101,39,28,140,225
169,70,81,104,40,29,144,233
190,72,83,99,40,27,143,230
183,81,90,111,42,29,133,214
163,84,92,108,40,28,133,217
168,81,92,101,41,26,151,256
174,82,90,95,41,26,139,241
156,77,88,95,38,27,141,245
160,68,78,82,40,29,140,247
165,69,76,84,45,32,154,306
170,65,72,77,44,34,160,287
176,61,95,102,44,36,181,314
174,64,91,105,46,35,183,327
165,63,93,108,44,34,179,322
167,59,93,105,38,31,154,248
159,62,84,96,39,30,134,222
143,63,71,89,38,28,97,173
142,65,77,85,39,29,111,150
150,68,83,82,39,27,120,148
148,68,83,82,38,30,138,221
160,66,96,85,34,33,161,244
163,69,93,64,36,35,176,300
158,66,89,65,34,34,171,302
162,70,96,98,35,35,197,314
169,69,99,99,39,34,198,288
182,89,95,117,42,32,207,332
182,85,96,124,45,30,207,304
216,90,111,130,48,31,223,363
219,88,100,108,48,28,196,357
200,84,100,112,45,26,185,341
204,64,97,90,46,26,166,306
204,66,94,87,42,28,157,296
229,64,83,79,40,27,160,220
240,67,91,86,43,29,161,212
242,71,88,78,40,30,172,267
245,80,92,81,40,28,149,234
251,78,91,78,42,29,173,236
213,76,91,82,42,28,148,232
205,76,85,80,39,28,186,257
208,79,82,82,41,26,176,207
166,65,73,89,38,25,182,205
162,67,75,95,37,22,166,212
165,70,74,89,36,25,171,227
170,71,81,87,37,27,174,244
189,71,108,96,37,28,180,261
195,79,118,92,37,28,179,264
214,80,115,83,36,28,168,251
226,75,122,98,42,28,168,263
243,85,120,97,42,28,130,230
228,85,102,94,44,30,137,231
229,79,93,96,45,31,132,228
210,81,96,100,47,30,140,234
203,84,82,87,41,30,142,204
184,73,90,96,43,29,159,239
184,68,86,95,41,25,153,217
199,72,80,90,45,27,170,257
223,79,108,102,43,30,196,291
218,79,121,114,46,33,228,343
237,88,115,108,46,34,230,356
248,96,122,110,48,39,263,406
243,95,129,113,47,39,256,399
226,84,143,144,56,40,244,382
208,82,151,146,57,40,217,344
172,89,160,148,58,44,240,349
149,80,156,145,55,40,211,303
134,84,153,144,52,38,223,308
161,85,117,104,43,35,221,314
166,88,95,92,41,33,236,312
178,73,97,99,35,29,209,284
188,83,107,102,42,38,292,373
188,79,112,108,44,39,287,369
161,81,119,106,44,41,292,369
162,88,128,103,47,46,303,398
171,85,122,95,51,48,303,402
177,79,113,99,47,47,290,428
191,82,114,105,52,50,306,437
211,81,122,120,54,50,315,471
206,75,114,127,54,46,295,454
195,88,110,127,50,44,292,447
193,87,124,124,54,40,223,356
187,82,122,113,47,34,199,334
171,82,113,100,45,35,182,271
178,82,122,101,41,39,279,390
180,66,120,95,46,44,280,392
166,61,103,92,42,43,295,398
154,63,102,99,44,45,290,399
146,61,97,98,43,43,285,400
142,59,89,91,43,39,200,304
129,67,85,91,41,37,196,285
138,69,94,107,44,39,226,322
135,72,88,103,46,40,235,321
137,77,84,102,45,39,233,329
132,72,74,102,43,36,226,313
154,72,88,115,43,34,220,312
144,71,81,100,41,29,167,252
164,75,97,106,37,30,171,275
157,71,105,105,40,35,194,265
161,71,108,105,42,35,189,245
134,64,105,95,41,35,222,292
165,65,109,101,40,35,223,287
154,56,97,89,43,36,229,302
182,52,95,87,42,34,217,303
177,50,111,102,43,36,232,316
177,56,131,113,41,35,209,292
153,55,132,114,40,37,202,284
151,54,135,119,38,38,202,270
150,60,139,120,44,44,284,330
158,62,147,130,43,42,280,335
164,62,142,119,46,43,296,349
160,64,142,111,48,47,298,368
154,68,138,107,48,48,291,350
133,70,138,119,49,48,233,331
119,74,136,107,50,57,219,319
120,75,134,110,54,66,209,309
139,76,150,130,65,75,233,336
143,79,164,135,65,73,224,327
130,74,160,124,60,71,187,273
131,73,159,142,61,71,225,288
129,72,156,144,57,65,219,282
152,85,144,151,51,62,210,264
161,84,130,146,54,64,222,276
162,86,135,154,60,66,230,281
175,92,126,134,59,59,213,266
169,89,121,130,60,58,202,270
141,72,113,104,53,47,176,221
135,67,119,120,58,46,190,229
151,66,116,115,61,53,222,276
139,72,107,114,64,65,235,268
135,73,116,117,64,63,232,237
145,77,122,119,63,63,240,274
168,80,130,114,55,61,227,266
160,84,130,114,46,55,197,219
177,79,141,107,48,57,212,235
182,82,142,103,54,64,221,235
215,87,147,123,62,70,221,186
207,96,141,121,64,74,216,174
210,92,142,118,66,74,218,191
199,85,156,129,62,67,194,196
220,90,163,151,58,66,221,262
192,95,183,149,54,64,230,285
176,98,189,149,54,62,227,295
166,104,194,167,57,59,229,319
162,109,174,159,56,62,218,302
139,110,158,151,62,63,198,282
128,116,170,162,73,94,205,310
155,131,189,165,73,105,230,313
172,128,224,157,69,104,220,276
212,131,230,159,72,104,208,274
242,128,234,154,66,102,201,273
247,117,213,137,51,84,197,236
244,107,204,135,57,84,179,221
248,113,173,123,57,86,184,241
209,106,166,118,52,82,200,236
202,128,180,114,62,94,192,213
201,138,185,114,65,97,192,237
188,131,166,116,68,97,206,243
192,127,168,136,73,101,206,233
208,130,165,139,75,104,201,239
180,108,154,150,68,95,220,242
181,94,151,142,71,89,206,192
191,83,159,141,64,77,182,178
173,80,154,133,58,71,180,173
164,85,165,144,57,64,178,173
155,88,170,128,59,63,189,225
137,88,157,135,47,52,181,234
120,93,159,143,52,63,237,251
120,97,155,152,57,65,241,257
122,92,153,142,55,65,242,269
121,91,167,143,50,61,226,260
128,98,188,143,56,64,237,259
130,99,175,133,56,60,203,250
154,116,177,128,65,66,219,277
190,128,186,151,69,74,249,372
206,144,193,149,71,79,241,354
222,147,181,156,69,78,231,373
238,148,191,168,73,84,299,435
224,144,196,159,82,104,377,473
224,162,236,159,98,119,513,590
219,164,245,169,105,126,570,643
209,180,328,174,108,126,592,682
190,186,335,158,102,118,564,677
189,179,328,154,89,98,510,642
211,155,294,140,70,73,385,511
213,142,278,142,60,57,306,448
228,118,182,131,54,57,289,388
246,109,181,142,55,60,306,356
243,118,185,142,54,58,317,382
195,125,199,142,62,67,309,377
184,124,192,128,63,64,314,418
149,118,181,115,63,65,291,407
148,117,192,118,63,63,284,428
188,126,230,130,76,73,341,470
199,126,235,129,70,65,354,471
202,130,226,130,85,88,399,490
206,144,233,126,87,89,408,497
212,167,253,120,86,97,430,478
222,161,249,109,81,97,435,553
215,160,269,107,81,103,418,520
221,160,288,123,70,87,366,457
241,163,327,141,69,88,374,468
232,146,330,139,70,83,342,465
192,139,335,140,60,76,283,296
189,135,343,140,58,67,249,284
179,121,343,153,52,63,238,288
151,108,310,151,50,63,226,294
150,104,274,150,49,60,204,272
175,109,268,161,51,58,201,298
182,122,236,170,53,59,210,306
198,141,227,163,57,64,215,297
199,148,230,156,58,63,201,282
192,143,237,153,58,60,213,278
166,137,205,140,55,57,213,241
155,127,204,153,58,60,204,257
132,108,188,135,51,54,198,255
136,105,182,139,56,62,235,254
122,102,171,135,54,58,215,247
122,96,169,134,54,58,200,247
154,93,153,96,47,53,201,216
155,95,167,104,48,54,213,238
146,83,151,107,39,38,155,192
153,89,152,117,44,42,191,207
161,103,151,120,47,43,196,208
132,107,147,127,49,45,215,250
136,110,129,120,50,46,238,239
157,103,126,116,55,48,241,269
154,103,127,114,57,52,239,268
143,96,154,164,56,55,227,255
183,93,148,165,54,55,234,263
179,85,154,168,54,55,209,253
170,92,167,178,51,54,209,227
190,84,165,175,48,53,187,225
190,73,138,132,47,50,188,235
156,70,148,127,47,47,175,249
175,76,153,122,48,44,164,246
199,75,154,130,48,47,162,243
201,102,152,136,46,40,162,242
214,109,171,131,44,39,179,245
211,107,166,137,45,41,166,200
197,102,155,137,45,40,165,202
177,113,146,135,47,39,182,219
148,91,140,136,50,38,175,224
133,84,120,137,52,40,151,208
126,83,128,132,48,36,163,199
128,84,126,135,48,41,163,206
107,59,113,108,45,44,153,187
108,56,113,97,42,42,147,156
100,52,135,120,45,43,152,160
106,54,118,120,47,44,122,141
102,51,119,117,45,40,124,132
142,60,128,119,43,36,118,155
154,60,130,123,43,36,117,154
157,61,102,96,37,34,121,185
157,57,112,97,40,34,133,197
162,61,116,91,37,32,134,192
128,54,117,99,47,32,135,184
118,53,123,105,50,33,140,187
123,52,127,104,50,33,138,154
130,52,124,103,48,34,132,141
143,57,134,124,55,39,127,151
153,59,118,111,46,38,126,148
158,62,116,117,44,42,141,152
157,66,109,121,47,44,130,158
152,72,118,129,49,48,175,208
138,78,136,135,44,48,186,228
140,79,169,176,52,52,212,257
144,84,184,178,54,53,208,303
164,105,206,195,58,56,270,392
168,111,217,195,59,57,274,383
164,115,217,184,61,55,270,372
155,114,214,172,64,53,260,360
176,124,216,176,72,53,275,341
208,122,210,170,74,57,252,265
236,120,214,184,79,56,244,298
243,107,193,178,76,55,247,312
248,104,176,173,71,54,234,306
240,89,163,164,75,63,273,414
216,73,144,151,72,56,243,411
181,64,114,127,64,52,243,396
203,81,123,155,69,57,239,398
224,85,116,136,70,59,242,396
226,81,112,128,58,44,168,263
211,76,148,158,53,49,173,244
217,84,150,162,55,56,158,258
192,81,150,154,53,56,160,235
160,79,153,166,48,53,156,236
141,80,153,169,45,52,161,230
143,81,143,147,49,51,172,236
141,73,136,142,47,44,149,179
135,64,126,130,46,37,140,174
146,85,153,139,47,39,141,173
158,88,149,143,49,41,145,174
187,88,128,134,49,40,123,157
191,86,137,141,49,42,147,168
188,82,145,145,47,41,150,163
191,60,111,125,46,39,145,159
189,54,111,133,44,37,140,181
188,53,111,150,42,41,155,210
177,53,95,140,38,43,138,209
189,55,99,140,39,43,130,207
184,58,92,136,54,58,233,302
188,60,94,118,54,58,238,309
158,63,129,119,59,54,225,293
165,65,166,166,62,52,237,291
151,62,168,168,62,51,244,291
192,70,180,185,64,46,211,327
174,66,179,184,61,44,206,317
169,60,158,171,57,42,207,312
160,55,135,134,58,48,199,311
158,55,117,118,56,47,192,310
93,61,124,145,50,36,118,157
133,67,126,153,58,43,117,138
142,73,125,157,57,43,109,129
138,74,118,167,54,33,83,114
169,80,136,168,60,51,139,152
166,63,118,128,53,52,147,159
172,78,119,127,46,46,141,156
182,81,115,119,47,49,170,169
190,82,117,97,48,53,177,175
169,80,113,106,43,36,143,161
177,81,112,103,43,38,144,152
155,72,114,99,45,42,150,173
145,63,111,102,45,39,117,166
154,68,113,103,42,34,112,173
152,67,106,107,40,37,129,180
151,68,102,109,39,36,124,180
147,71,103,104,34,32,121,171
140,72,105,101,33,33,123,183
133,69,103,100,34,36,122,170
131,69,114,99,37,33,117,190
139,67,116,96,38,33,114,195
136,60,108,96,38,36,121,193
135,60,120,111,40,36,124,190
122,56,110,111,41,37,127,193
127,63,89,110,39,37,124,179
118,66,87,105,39,37,123,171
123,68,123,119,41,34,114,170
114,70,115,103,36,32,105,153
121,71,127,115,40,34,123,161
121,63,136,117,41,35,113,139
120,68,138,123,40,34,111,149
110,62,115,108,36,33,102,135
115,60,117,116,39,36,121,140
113,59,104,101,35,33,101,126
140,68,113,108,34,34,104,153
151,64,115,106,38,39,112,175
150,62,112,108,37,39,112,178
147,58,102,97,36,38,93,175
141,60,98,97,35,37,118,180
128,48,83,75,37,36,130,167
106,51,78,75,37,34,126,145
137,54,89,81,41,36,147,158
136,61,92,78,40,33,155,159
143,62,96,85,41,36,153,172
133,64,93,84,40,36,145,160
131,61,107,87,37,35,153,155
108,66,97,80,36,36,162,153
104,61,96,84,37,37,154,153
100,57,94,79,35,35,144,177
92,60,95,92,34,33,144,179
94,62,78,90,37,35,146,183
86,55,72,94,35,30,115,172
106,63,77,100,42,38,138,179
104,62,73,101,40,36,127,133
120,59,83,95,44,40,156,149
137,66,86,94,44,38,155,143
141,66,85,87,44,40,154,144
151,58,81,92,42,33,141,147
152,61,83,96,43,37,156,156
139,63,63,86,39,31,117,127
122,54,57,88,36,30,106,118
135,58,62,89,36,35,123,136
110,62,66,86,34,37,118,119
123,64,69,83,35,37,116,164
129,66,79,94,34,38,113,168
129,68,95,121,33,38,113,176
126,62,95,124,37,39,115,175
131,64,109,119,34,36,117,197
128,63,123,127,35,35,115,157
126,62,127,130,37,40,167,201
135,61,129,104,39,43,188,214
129,63,128,102,39,40,178,206
134,64,128,107,43,41,188,197
131,62,114,105,42,41,190,211
126,59,125,107,44,39,156,163
137,62,134,118,49,38,162,168
147,61,145,119,47,35,165,170
159,61,148,124,51,38,156,171
162,61,151,140,51,36,144,154
165,58,147,146,49,33,138,163
154,57,133,142,45,33,101,139
156,70,126,141,45,33,102,164
142,67,121,148,37,30,126,165
142,69,146,150,37,34,134,182
138,71,136,139,35,34,130,189
136,68,141,141,34,32,129,192
116,60,163,150,35,33,131,172
132,60,155,138,39,34,119,201
126,57,132,117,38,29,110,182
124,62,132,127,44,31,121,179
124,62,132,124,46,31,124,180
122,55,101,116,46,30,115,173
133,56,119,118,44,29,103,130
143,57,123,127,42,30,105,139
143,48,124,118,38,28,100,138
143,50,121,123,41,28,106,142
145,53,116,126,48,30,128,163
121,49,110,125,48,28,121,159
107,47,103,115,50,29,121,153
113,53,107,116,50,30,122,141
122,53,107,111,48,30,127,173
134,50,108,103,38,29,115,164
131,46,90,96,38,30,146,165
138,47,116,98,43,31,145,166
134,43,116,106,49,32,137,172
135,45,116,108,50,32,131,127
136,56,139,123,55,30,133,118
139,66,150,127,58,32,111,118
136,65,130,123,53,31,127,131
149,69,134,108,45,30,126,123
138,67,161,123,41,28,117,118
121,58,148,121,39,32,143,153
111,49,155,132,38,33,145,170
158,57,158,129,42,36,146,168
157,53,172,146,59,36,154,190
156,55,146,134,62,37,156,192
155,76,156,144,64,35,130,165
165,85,139,137,63,31,125,144
115,79,135,136,62,36,120,154
102,79,115,125,47,35,125,137
114,83,117,131,44,33,132,142
115,68,95,124,49,38,135,140
108,62,101,122,53,42,130,160
114,63,112,134,54,36,125,145
112,62,108,139,55,37,110,137
112,61,99,128,57,42,129,131
128,57,99,115,50,36,118,133
123,57,106,125,45,34,117,126
117,58,105,115,45,37,156,134
114,61,113,130,49,38,167,141
110,62,141,144,50,37,144,145
88,64,149,151,53,37,143,169
86,60,140,142,55,38,153,163
89,66,138,141,55,36,106,149
100,68,128,120,49,35,96,137
99,64,112,120,51,32,94,130
99,63,105,111,47,36,104,128
114,61,111,109,44,35,94,116
146,54,122,129,40,34,90,123
140,57,142,147,44,36,89,124
133,59,139,137,40,36,90,130
136,59,136,138,38,30,77,103
131,60,133,140,40,32,80,114
88,59,126,129,45,34,91,115
92,50,105,113,45,34,85,113
116,62,101,110,47,37,84,109
117,62,108,109,46,39,86,102
113,67,107,118,46,39,88,95
126,65,98,116,48,41,86,122
147,69,109,125,46,38,87,132
129,54,101,127,46,38,95,141
130,56,99,135,49,36,111,156
128,52,126,133,47,35,100,154
123,59,139,166,58,34,103,146
104,55,130,155,61,40,107,140
110,60,132,151,58,36,105,132
106,62,129,145,56,37,90,119
105,60,103,147,56,40,104,122
118,60,94,122,41,45,95,106
120,64,95,131,42,49,92,114
111,65,97,137,43,51,88,112
127,60,93,141,45,52,84,105
138,65,107,147,47,48,89,122
142,59,105,136,44,42,91,130
134,60,97,137,41,36,108,135
140,64,112,146,46,35,109,146
126,67,116,141,45,37,111,160
113,63,102,133,44,37,97,154
101,62,114,140,55,42,100,148
116,63,117,134,57,39,78,139
109,57,99,119,59,43,79,126
107,54,108,140,67,45,78,113
135,62,108,145,70,45,87,137
137,67,96,137,65,40,78,138
129,63,98,139,61,41,78,133
135,61,104,137,55,36,77,139
154,65,98,122,46,36,75,148
137,60,111,109,39,39,66,119
128,54,119,107,38,39,69,112
131,53,117,109,46,40,68,115
129,51,113,118,50,43,69,111
113,42,108,113,52,42,66,99
103,39,90,114,55,38,58,84
98,41,84,119,59,39,82,110
87,41,84,110,56,39,83,109
108,46,87,107,59,35,89,118
96,47,85,119,57,33,91,116
100,47,92,117,57,35,93,118
108,48,80,109,52,35,86,108
110,47,88,123,53,34,83,105
105,47,84,119,48,34,72,103
113,50,83,106,48,35,79,106
112,58,79,126,54,35,81,107
123,58,76,131,55,36,67,102
121,60,63,122,51,39,67,102
121,65,64,126,53,42,75,100
128,66,66,121,55,44,71,104
133,59,67,106,48,45,70,109
122,61,68,107,48,45,72,103
133,62,72,100,49,42,93,119
118,53,73,100,48,41,95,110
117,48,88,105,44,39,92,102
113,51,96,97,49,37,87,99
107,45,95,93,51,37,89,107
93,40,96,99,55,44,67,91
106,39,105,102,59,42,62,104
107,42,95,106,72,46,68,112
110,41,87,107,70,47,70,111
106,48,91,108,73,47,64,113
106,59,86,114,73,42,76,114
101,62,80,113,70,45,77,112
88,60,75,110,57,40,70,107
80,63,83,109,52,38,69,109
82,61,82,112,47,36,68,94
95,53,86,105,46,37,56,87
95,53,101,111,45,35,67,89
105,62,113,116,51,38,67,79
112,60,106,118,57,41,80,120
112,58,107,114,56,41,82,125
101,60,110,108,53,40,81,127
93,59,91,95,53,38,71,122
84,56,92,103,46,36,76,142
74,54,97,103,48,35,62,116
86,53,92,115,46,42,65,125
113,54,85,120,51,44,77,154
118,51,83,123,51,45,74,153
117,45,82,119,54,44,71,138
117,53,83,141,54,44,83,132
117,54,92,130,55,37,88,140
97,56,93,143,58,34,85,107
87,55,93,145,60,34,85,108
93,56,85,134,57,35,86,104
116,48,88,134,59,32,75,108
126,48,88,134,60,35,68,85
143,48,108,129,58,41,68,99
143,49,111,127,56,43,66,101
142,48,109,126,55,41,75,111
126,51,104,97,47,41,74,103
113,49,102,110,50,40,80,99
94,42,87,96,49,34,79,93
103,45,95,101,46,29,83,100
106,47,93,110,50,30,80,99
102,47,95,109,51,30,86,108
101,47,92,95,46,29,79,116
100,51,91,98,43,29,77,111
121,48,89,113,47,35,78,101
124,49,95,115,47,35,72,97
140,51,92,118,48,35,66,92
135,53,89,119,44,36,66,86
147,49,84,113,43,35,62,83
129,55,86,99,38,31,57,77
129,55,79,93,35,32,75,98
118,52,84,91,38,33,86,110
117,50,88,96,42,33,84,110
97,52,88,95,44,33,84,109
93,44,79,93,44,34,84,110
82,45,75,91,42,31,66,93
84,45,76,116,39,31,53,74
88,49,79,114,38,32,55,73
91,53,85,113,37,31,62,102
99,54,83,125,41,30,59,105
106,55,87,133,45,44,82,107
102,58,93,144,53,43,79,118
107,57,93,142,56,44,80,118
122,58,99,146,55,43,78,116
120,58,103,136,53,45,79,113
119,57,101,128,51,33,59,110
128,52,96,99,45,36,60,102
127,52,93,99,44,35,60,99
113,47,84,98,45,37,71,82
116,46,90,99,44,36,71,101
118,45,92,99,43,36,71,111
121,58,100,116,44,35,76,111
115,57,103,128,42,33,75,114
130,58,104,135,46,35,72,120
129,60,95,134,51,38,72,104
128,60,98,139,54,43,81,100
125,51,86,125,51,41,78,101
138,51,81,115,53,41,93,108
130,57,83,112,53,40,92,98
129,58,87,105,49,41,100,105
134,65,84,98,49,35,105,112
132,65,90,93,52,36,102,110
117,66,98,93,51,42,90,100
106,61,88,82,51,40,86,100
99,59,85,84,52,40,88,95
98,50,78,89,48,40,74,80
98,50,82,83,46,40,75,85
99,53,74,85,44,34,76,92
107,56,83,91,44,36,75,96
141,53,88,112,47,34,84,145
127,54,89,121,47,33,87,142
121,52,85,126,45,32,92,141
118,54,82,128,43,33,96,141
118,50,79,137,41,33,99,138
80,55,77,127,38,34,88,86
87,64,86,116,38,38,87,91
87,70,80,115,39,37,83,79
91,64,89,109,42,36,81,75
83,64,86,93,43,33,78,68
90,65,86,86,38,27,68,66
104,73,77,90,42,26,67,71
116,68,76,91,40,28,83,82
116,71,87,95,38,27,77,85
134,77,87,92,37,27,75,89
136,83,83,91,41,28,76,91
122,73,81,85,38,28,79,82
117,73,85,78,38,30,68,86
125,74,66,79,36,30,65,85
118,68,69,82,38,37,76,92
105,63,85,103,36,38,77,88
109,59,84,100,37,38,73,87
100,64,83,98,37,36,71,76
106,63,89,95,39,40,79,78
104,64,90,103,37,33,78,91
121,62,85,82,41,32,77,105
125,66,86,88,38,32,93,111
125,69,88,102,40,31,91,114
126,68,79,103,40,26,92,119
128,88,79,97,41,30,87,115
118,96,66,94,37,30,85,100
109,91,77,89,35,27,73,93
118,92,77,79,33,28,79,88
120,95,77,78,30,29,70,81
112,79,77,71,28,28,72,70
107,65,77,68,25,29,73,72
121,75,78,85,28,30,66,74
130,76,104,113,33,28,71,89
123,73,114,118,33,27,80,90
127,73,114,126,34,26,81,85
128,79,117,136,41,26,87,106
117,76,110,127,44,30,97,113
137,80,82,102,44,32,91,106
128,81,68,99,45,33,91,114
133,97,70,91,46,34,87,115
140,96,75,80,42,32,84,97
147,106,78,87,42,28,70,88
119,104,97,96,43,31,76,97
126,116,100,93,43,30,72,82
115,103,95,93,41,29,77,76
114,103,91,96,41,30,77,78
104,96,93,94,36,31,78,78
102,98,87,83,37,29,100,85
93,81,84,81,35,27,99,90
123,85,104,132,40,29,102,95
128,93,121,137,43,31,103,95
132,93,124,135,44,33,108,105
129,86,116,136,43,32,80,94
139,99,124,150,44,32,87,100
130,101,107,111,42,35,82,94
122,97,93,106,42,33,76,93
122,117,91,105,40,30,69,85
127,118,97,112,37,28,62,77
121,114,93,101,37,29,60,69
104,116,93,98,37,25,61,73
117,119,95,93,37,26,61,71
119,119,92,98,36,27,66,100
108,118,88,87,35,29,73,103
120,123,86,78,34,28,69,103
129,134,99,80,32,25,63,102
115,132,110,101,31,24,68,111
108,122,119,103,32,23,78,103
121,130,115,102,33,22,84,106
134,131,113,104,34,23,79,106
130,128,105,109,33,27,81,106
135,130,94,89,32,28,88,104
147,146,87,85,36,30,83,105
137,144,89,84,36,29,90,103
128,144,92,93,44,29,94,103
126,139,93,93,46,28,96,109
123,136,91,92,44,25,87,101
124,130,104,105,44,26,86,95
127,127,113,117,46,26,78,92
108,126,120,115,39,26,78,88
112,123,129,110,38,25,73,80
116,124,126,109,39,26,78,88
105,106,114,91,35,26,68,72
106,114,110,94,34,25,55,70
108,127,116,92,35,25,55,72
108,125,102,101,33,26,59,80
103,141,109,111,38,30,69,74
93,145,108,116,38,28,71,74
86,143,103,102,38,29,71,73
90,128,93,99,37,30,68,70
99,154,113,101,39,31,72,104
118,156,116,99,41,28,57,107
117,155,115,93,41,29,61,112
127,157,114,91,43,34,72,114
137,158,112,87,41,34,77,122
132,152,96,71,41,33,79,90
117,142,80,58,38,32,81,97
128,139,81,60,36,31,79,94
130,141,85,64,37,25,68,92
121,138,82,71,36,25,88,89
120,155,78,76,40,31,106,114
117,149,78,74,37,30,108,109
118,166,91,82,39,31,104,111
112,166,102,91,35,29,105,111
108,174,102,85,41,28,86,105
105,143,100,79,36,29,102,86
116,148,111,85,41,33,104,84
110,129,107,84,41,32,104,77
107,123,98,75,42,34,105,75
110,114,98,72,36,32,107,78
117,111,102,74,39,27,79,89
110,114,90,65,39,31,89,86
106,124,81,58,37,30,89,86
102,117,76,51,35,29,87,83
99,121,91,58,38,29,85,83
94,123,95,57,39,31,68,52
87,116,101,64,40,27,64,80
87,104,101,61,41,28,93,93
116,115,102,64,42,28,108,112
121,112,96,62,41,28,109,113
112,105,94,72,39,29,109,115
115,105,90,70,33,25,105,95
122,114,91,71,34,26,80,87
105,113,91,70,33,28,66,63
105,121,81,67,34,28,73,67
117,130,86,60,39,25,81,76
117,130,87,56,40,25,75,81
120,135,83,56,40,29,84,81
128,136,86,63,43,31,104,148
126,128,87,67,43,31,101,148
118,127,79,65,39,33,93,143
119,126,80,76,39,32,93,145
109,115,87,80,38,29,86,144
104,118,95,81,32,26,53,80
97,115,107,80,33,26,45,75
95,114,113,84,31,24,54,75
91,120,114,81,39,29,58,76
91,121,111,78,40,28,74,92
114,111,104,77,43,29,77,86
119,122,98,77,43,30,84,91
118,122,92,75,46,31,76,91
116,125,94,72,41,31,76,97
130,141,93,72,44,37,81,85
98,137,85,67,41,36,91,99
93,128,79,65,39,35,89,94
98,125,79,63,40,35,98,99
133,139,83,62,42,35,96,86
133,133,87,68,42,28,77,80
140,141,105,82,42,27,74,82
142,141,104,81,44,31,92,106
141,143,104,85,43,31,86,102
113,119,92,83,39,28,86,107
93,121,101,84,37,32,91,109
84,108,86,71,37,33,83,99
101,116,97,75,36,30,64,77
103,117,95,70,37,31,69,98
112,138,110,89,39,31,79,104
114,123,101,87,39,28,94,111
118,124,104,86,39,28,97,110
125,125,102,82,39,29,95,118
126,127,102,82,39,31,97,114
120,106,95,65,37,32,98,110
127,107,96,65,37,31,81,103
127,121,106,71,38,31,91,113
118,128,99,75,37,29,88,101
125,122,98,77,34,27,89,91
133,125,97,79,38,26,95,110
136,132,102,75,39,27,92,119
152,126,92,75,40,27,79,113
149,110,101,76,43,29,80,115
144,104,98,73,44,27,72,118
143,96,99,75,40,31,83,112
132,84,92,75,40,33,84,106
108,87,93,73,37,36,86,102
104,89,92,70,37,36,86,102
99,100,98,73,35,36,82,93
107,100,94,66,37,35,63,80
125,101,90,62,36,31,85,110
133,86,84,59,35,27,86,122
131,112,74,61,31,28,96,122
142,107,71,61,32,29,98,123
126,107,72,58,31,29,95,124
109,107,73,58,32,30,76,91
103,115,70,57,33,29,71,73
135,112,83,69,38,28,67,70
126,109,82,69,38,26,67,67
142,109,77,68,37,26,78,87
154,120,81,70,38,25,78,90
161,129,90,69,37,26,77,92
133,118,78,57,33,26,72,92
131,131,81,60,33,27,69,95
119,134,82,60,33,29,54,72
107,121,75,58,31,28,54,73
96,125,72,65,34,27,66,79
101,133,79,61,34,30,72,83
107,122,76,60,34,34,73,94
110,144,79,62,33,44,78,93
108,153,93,62,37,48,81,91
117,166,95,59,37,63,89,99
112,157,97,70,34,70,82,95
127,164,96,72,36,71,80,82
123,148,97,74,36,68,72,78
127,143,94,72,32,65,68,80
113,108,91,82,32,52,55,59
137,110,83,75,32,42,66,72
122,105,85,71,30,41,68,79
121,96,88,70,29,40,72,79
115,98,77,69,31,40,70,77
122,103,79,62,35,42,90,110
96,95,78,62,34,42,86,102
100,104,92,73,34,37,95,102
97,104,97,84,33,36,99,108
108,108,101,86,35,35,106,123
119,105,101,85,33,32,94,107
118,106,96,82,32,35,91,105
111,98,82,75,32,37,84,106
115,99,83,73,34,36,80,103
113,103,81,72,33,36,107,122
95,98,71,64,30,36,106,115
102,102,75,69,32,34,104,118
99,97,83,78,34,33,103,115
104,101,76,74,35,33,100,112
102,89,74,76,36,31,65,74
111,100,80,80,39,32,69,111
107,108,84,87,39,35,87,116
107,104,77,79,38,31,87,128
104,128,85,83,38,35,87,128
99,130,86,80,37,38,88,128
103,155,95,80,35,37,77,104
137,212,99,78,41,38,72,103
151,231,97,74,41,43,95,96
158,225,87,65,39,53,98,96
159,230,86,67,37,61,94,91
164,235,94,72,37,75,96,87
141,226,94,62,31,79,111,100
156,261,114,73,35,80,93,97
173,266,116,74,35,75,92,93
176,267,119,75,38,72,99,100
171,248,103,67,37,69,98,95
175,218,94,66,38,144,78,75
156,162,85,64,40,177,80,68
136,150,82,64,40,178,78,70
147,158,79,76,40,188,83,66
160,167,80,80,42,185,92,70
162,156,82,81,40,134,92,73
164,148,66,77,39,87,88,74
157,134,62,74,37,82,91,77
156,117,73,68,37,54,90,82
140,98,72,65,36,52,81,96
131,87,78,64,36,45,78,92
126,93,80,65,33,42,97,105
124,99,81,64,33,45,106,103
119,106,70,58,32,45,97,108
120,104,82,67,33,41,95,94
111,104,76,72,36,40,104,108
106,91,78,76,35,41,96,99
105,92,93,85,39,39,84,116
98,81,92,81,37,38,86,104
100,127,89,75,40,40,91,118
133,155,94,72,36,38,80,114
140,167,93,65,36,34,74,112
141,169,81,53,33,49,82,100
156,176,84,55,34,50,77,100
166,161,77,55,35,48,91,98
140,138,68,53,35,51,88,89
138,138,69,57,35,52,82,89
144,140,104,84,35,37,74,99
132,132,105,91,34,36,77,104
117,120,108,90,31,37,62,104
124,129,116,93,32,41,86,122
129,120,114,93,31,39,86,122
129,128,88,79,30,38,86,113
123,137,92,72,33,37,84,108
126,143,90,76,38,38,84,97
123,138,95,72,36,31,74,80
131,133,95,69,38,31,74,83
138,126,90,64,41,37,84,80
142,127,84,60,39,37,111,91
141,127,86,60,37,34,110,95
153,130,81,66,39,38,105,94
139,141,78,64,38,37,107,93
124,136,80,61,34,32,103,91
127,147,79,60,35,32,72,81
132,156,81,56,30,36,71,86
120,152,79,57,28,35,77,101
118,150,88,68,32,37,75,99
118,147,89,70,35,37,90,109
106,129,91,75,38,37,91,110
129,129,90,75,39,35,89,106
125,126,82,68,41,34,79,85
128,123,78,61,38,34,82,86
131,138,78,57,35,33,79,85
135,133,79,53,34,34,87,87
105,115,74,50,31,33,88,79
105,120,76,52,30,32,89,83
100,116,76,57,34,30,88,86
95,117,83,57,36,29,79,78
104,119,78,60,33,28,77,72
95,119,82,68,38,30,89,83
98,121,81,68,37,26,88,76
107,135,89,65,35,30,92,98
121,123,82,65,36,30,88,95
108,126,87,63,36,31,88,96
113,123,84,62,35,29,87,97
106,124,83,66,36,33,94,98
108,117,73,62,33,31,91,81
97,115,66,59,29,31,91,100
103,106,59,60,31,30,86,101
105,113,57,54,32,30,80,97
115,97,60,52,31,29,88,118
105,115,90,55,32,27,86,113
98,122,93,58,35,28,85,95
90,126,95,53,34,26,85,90
97,128,102,60,31,27,79,88
95,133,100,59,34,30,115,97
116,116,78,56,34,35,118,106
118,122,84,69,32,37,117,110
118,118,86,69,32,38,119,112
136,113,85,65,30,37,125,115
141,113,84,62,27,33,83,90
130,104,82,70,30,30,79,88
130,85,76,59,32,30,84,93
139,85,72,62,32,31,85,90
117,85,70,64,35,30,75,81
105,91,72,69,36,31,67,75
99,95,72,64,38,30,64,68
100,126,67,63,37,30,67,65
83,131,66,60,36,28,60,87
72,138,71,58,35,29,57,89
79,131,73,53,35,27,62,95
77,127,79,59,30,26,82,103
69,103,83,63,32,25,77,101
77,106,85,65,34,24,81,93
87,96,95,63,32,26,84,110
86,103,99,74,32,26,80,111
90,110,98,73,32,27,74,102
96,125,102,71,28,26,73,102
97,118,105,72,27,26,72,99
92,122,95,76,30,25,73,105
98,137,86,66,28,26,72,101
95,136,95,74,30,27,58,102
113,141,105,78,38,29,75,109
121,195,102,76,41,31,86,143
185,252,101,76,39,30,87,135
185,251,100,73,41,30,91,132
194,260,98,63,41,31,105,134
194,250,85,65,37,29,98,129
194,215,87,67,36,27,86,85
145,148,93,67,38,27,89,70
139,139,98,75,36,28,87,95
136,137,92,74,37,24,71,100
125,144,112,71,35,26,75,106
125,144,114,95,34,26,81,134
114,145,109,97,34,25,77,135
130,145,113,97,34,24,74,121
123,146,114,109,32,27,92,118
120,139,96,108,31,27,90,130
131,182,101,96,36,27,93,112
144,194,105,109,39,27,94,114
139,196,109,114,39,28,94,115
136,190,108,107,40,28,78,110
168,195,113,115,47,33,92,99
157,163,111,114,44,34,88,99
149,155,110,102,40,34,98,104
147,177,103,93,41,35,108,110
165,184,108,92,42,34,107,111
137,184,100,83,33,28,92,99
136,179,97,85,34,29,91,88
132,171,92,81,35,29,75,78
137,155,93,83,36,28,66,78
118,140,79,81,36,30,85,100
126,146,82,84,36,29,84,108
125,146,79,91,35,30,83,106
141,188,91,90,36,30,83,111
136,189,108,100,41,30,80,101
133,195,118,107,54,29,60,78
142,216,123,112,63,30,57,69
146,226,121,98,66,30,61,69
136,200,116,116,71,33,100,124
144,217,108,110,68,33,105,131
143,215,104,103,59,33,110,134
124,196,132,119,55,32,111,141
136,195,134,122,52,30,110,141
145,207,136,106,45,27,77,95
151,189,130,115,48,30,102,112
172,194,127,121,47,29,98,107
171,189,99,104,40,29,94,108
163,182,97,100,39,29,96,109
158,156,92,105,39,32,114,114
147,169,102,93,37,32,103,109
141,162,109,91,38,32,102,117
140,156,100,82,40,33,100,110
152,177,102,93,43,35,112,124
147,181,99,86,41,32,93,116
141,163,93,84,41,28,72,99
126,164,87,80,41,31,76,120
129,159,89,81,43,32,127,126
107,130,91,88,40,29,124,119
99,128,101,90,40,30,127,138
109,199,93,90,40,30,126,140
133,240,106,95,43,29,124,118
158,254,120,113,40,28,79,131
184,266,120,105,39,32,67,136
192,265,116,108,39,32,75,128
198,211,120,119,38,34,76,127
184,172,112,113,33,33,75,141
176,154,98,97,33,33,87,148
164,143,101,94,34,32,82,140
165,151,111,96,36,33,98,159
171,173,114,82,36,34,124,181
172,162,123,85,42,33,126,179
165,167,124,83,43,35,120,170
165,177,131,93,42,35,140,180
168,165,125,91,44,37,149,201
173,142,123,91,44,35,145,238
186,142,118,100,43,39,179,301
179,136,131,108,42,40,228,370
173,149,135,113,44,40,231,413
163,156,129,112,45,37,224,408
136,158,127,112,43,38,218,399
143,175,122,107,44,36,204,372
156,177,123,116,49,33,144,302
154,163,113,104,46,30,125,241
169,169,115,110,47,33,116,228
173,167,112,108,46,31,123,207
162,142,120,102,42,31,105,169
159,147,124,109,43,32,125,230
162,142,117,109,42,32,128,237
170,137,124,107,40,30,140,249
176,137,127,111,40,31,146,262
176,143,120,120,40,30,163,276
193,141,118,97,38,34,169,307
192,129,126,97,40,37,187,331
177,121,140,115,41,37,176,340
169,120,165,119,49,35,174,347
154,126,169,110,50,34,153,336
114,120,161,107,47,29,129,279
115,125,173,123,53,32,104,240
111,143,174,137,53,34,126,290
116,145,166,140,49,38,122,263
128,154,166,143,49,39,128,279
140,164,172,147,51,42,135,284
158,160,166,133,45,40,147,319
160,151,159,99,45,38,132,256
191,156,148,103,48,39,151,274
203,146,155,120,46,38,188,359
211,158,159,125,50,38,195,371
210,161,153,129,50,38,184,345
208,167,148,126,49,37,195,388
225,183,145,119,49,34,190,384
216,200,143,103,57,37,161,304
216,193,138,100,50,37,166,297
211,189,131,106,52,40,178,304
212,195,146,119,56,39,162,249
162,177,148,127,51,37,140,237
170,179,139,139,49,38,136,249
161,208,140,145,52,35,124,252
145,210,141,144,50,29,104,239
154,215,124,140,47,32,106,222
167,238,130,131,51,35,108,235
168,238,126,114,46,31,95,202
167,225,123,109,45,33,86,160
178,237,116,114,46,33,98,168
178,254,135,129,48,31,100,181
164,247,121,126,46,31,107,153
144,236,121,129,47,31,106,170
147,218,125,123,48,30,117,174
167,214,129,108,48,33,106,157
154,175,104,80,45,36,103,157
151,201,110,81,44,35,96,173
168,201,121,78,42,36,103,161
164,214,108,77,40,35,89,156
181,226,113,89,40,33,100,194
183,229,114,93,43,31,108,196
215,221,150,104,43,29,117,186
212,222,148,113,44,26,108,178
207,210,161,112,47,26,106,181
196,208,161,109,46,29,120,166
205,214,163,108,41,29,139,180
174,183,130,101,44,30,142,192
161,213,138,101,44,31,146,206
168,219,125,108,43,31,156,194
127,216,131,114,43,26,141,176
115,236,148,126,47,24,116,150
128,233,147,142,47,24,109,168
129,201,132,133,48,26,113,156
126,188,127,126,45,26,108,161
134,168,122,121,45,30,115,186
174,124,101,107,41,29,120,198
160,124,101,82,39,27,116,174
167,120,105,86,39,27,112,172
178,150,122,94,43,28,151,248
173,147,118,85,41,27,150,237
132,140,126,88,42,27,139,223
137,141,122,97,38,29,137,215
131,129,121,98,36,30,135,220
123,108,124,99,33,29,88,143
118,104,119,104,35,33,102,146
132,133,106,98,35,33,116,150
137,150,139,84,37,35,126,152
144,156,150,86,40,36,157,205
147,148,136,80,40,38,159,209
148,149,145,84,37,36,167,223
149,125,158,92,36,35,163,227
150,125,130,90,38,37,166,236
146,126,129,89,34,34,145,195
131,135,130,99,31,31,164,225
138,141,121,102,37,30,145,208
137,140,147,104,42,30,146,214
143,124,146,107,41,26,144,226
150,129,146,123,42,29,150,238
190,115,151,131,47,40,174,264
210,160,152,126,44,41,177,275
206,178,113,129,42,41,174,295
214,173,112,133,45,43,169,283
228,190,99,118,47,47,188,300
215,244,117,120,55,51,201,344
221,237,120,121,64,60,214,339
227,233,133,135,66,62,228,341
214,233,157,147,65,60,231,344
192,226,157,146,64,58,221,336
192,185,148,139,65,58,182,263
160,156,148,139,56,47,159,249
140,144,139,118,52,44,137,212
139,154,159,125,54,46,127,198
157,155,163,124,51,43,127,181
133,142,161,115,40,32,108,162
163,150,166,109,43,36,115,164
171,157,169,119,45,38,115,164
171,147,129,91,43,38,111,163
165,145,149,102,48,38,85,154
165,152,143,106,48,35,92,148
136,143,136,114,45,32,81,150
129,139,133,109,42,30,79,151
134,160,133,115,45,30,80,158
122,146,112,105,39,28,90,159
124,133,107,100,37,28,95,145
129,129,132,100,39,31,108,157
147,160,126,103,38,32,120,158
143,145,126,97,39,29,127,151
140,149,128,102,41,31,117,158
149,155,125,111,41,31,117,149
144,157,100,111,41,30,110,141
133,134,110,111,43,30,107,141
146,149,117,116,39,31,113,161
152,151,114,124,38,31,115,147
142,149,115,123,41,31,101,139
145,146,121,131,42,34,119,155
137,155,114,125,43,35,114,154
142,150,111,119,44,37,110,157
142,160,109,109,46,36,118,163
141,157,112,120,43,36,124,162
137,178,116,112,42,31,102,136
134,163,115,113,39,29,116,135
126,151,123,122,41,27,119,105
139,128,127,122,41,30,124,125
141,136,131,105,41,31,122,135
141,117,118,111,41,31,126,132
143,123,116,109,39,33,121,136
135,137,102,103,40,35,115,158
113,148,96,106,37,33,96,132
109,148,86,109,41,31,93,120
102,139,92,108,43,32,104,132
112,130,115,130,43,30,98,130
107,116,130,135,43,28,94,130
116,118,128,128,44,32,104,130
112,107,127,126,44,35,139,145
111,111,125,119,39,34,127,137
97,110,112,94,39,34,125,134
89,104,99,100,38,32,122,108
89,94,101,111,38,30,119,110
140,92,108,113,39,29,86,96
145,99,111,122,39,31,91,107
149,114,107,124,38,30,92,110
156,121,105,115,39,34,103,118
151,120,116,118,40,32,99,122
113,159,119,122,42,32,102,135
119,156,114,112,45,29,98,126
125,157,114,112,45,33,101,130
131,170,108,110,43,30,93,121
132,166,100,101,44,33,101,113
132,139,100,97,43,31,83,94
123,140,95,90,44,34,79,93
120,126,91,85,44,31,84,90
111,101,109,91,46,31,82,96
114,103,99,82,43,27,80,93
111,95,88,82,41,27,82,93
112,83,92,89,38,25,85,99
113,108,108,91,38,24,69,95
107,106,93,88,35,23,72,84
102,107,99,100,33,24,65,78
96,113,99,95,37,30,90,84
104,112,98,100,38,34,114,107
93,95,82,105,38,36,119,100
97,118,84,107,39,36,123,101
96,128,80,97,39,37,143,109
107,118,83,100,37,33,146,113
98,131,82,97,37,29,126,87
108,143,91,124,39,29,126,104
105,127,92,122,40,30,121,110
115,134,92,128,40,28,109,111
119,142,87,138,40,29,99,118
120,132,84,133,41,30,106,115
126,115,78,107,39,30,116,131
130,118,87,105,39,31,125,153
128,105,87,109,44,32,113,149
128,94,100,96,43,31,124,146
124,98,106,104,41,30,121,150
110,123,112,111,40,28,106,126
106,130,99,105,36,26,91,91
105,121,109,99,33,26,88,85
96,117,101,108,39,29,54,64
102,109,99,104,43,32,79,60
99,75,91,95,53,36,96,82
101,69,93,106,54,37,99,84
105,89,94,110,54,41,120,90
119,115,113,109,55,40,124,107
116,119,117,107,57,38,108,109
118,119,119,110,53,35,99,96
117,111,121,125,57,41,106,93
98,99,119,127,56,37,81,88
89,84,110,125,52,36,74,69
90,80,138,133,46,36,94,111
100,79,134,129,41,36,91,108
108,79,135,110,38,33,98,109
107,70,129,100,38,34,103,111
94,55,127,131,50,33,105,112
92,63,99,143,53,33,107,72
107,66,121,162,52,35,116,81
94,68,118,164,52,33,112,81
102,70,126,165,52,31,113,83
117,72,120,145,40,35,117,109
123,65,116,134,38,34,104,110
108,66,106,113,44,34,112,110
116,68,110,118,47,33,116,127
125,71,129,134,51,44,124,137
114,64,147,129,51,43,120,117
108,68,155,131,52,44,117,122
109,66,144,130,51,43,103,119
111,60,149,125,49,44,113,120
108,53,124,103,47,35,108,112
117,54,108,103,50,36,130,163
124,48,100,102,53,37,133,167
116,46,116,104,51,35,130,169
109,45,123,108,50,32,110,157
118,51,128,131,54,32,102,162
118,47,145,136,49,27,75,121
123,49,145,131,42,25,92,127
128,47,138,138,41,28,102,125
134,52,129,136,39,27,121,138
117,46,131,117,33,26,128,141
110,52,127,125,35,29,128,133
98,48,124,128,39,30,116,111
93,53,123,127,38,28,120,119
88,50,131,127,41,29,114,133
103,53,143,143,41,34,130,150
101,51,131,136,42,33,134,168
97,53,128,130,37,31,130,169
116,50,136,135,39,34,140,194
114,54,143,146,39,37,130,175
107,53,133,135,42,34,117,160
127,58,136,125,42,36,157,177
126,57,137,124,42,37,166,190
112,54,133,111,40,33,150,161
124,58,109,101,37,32,147,164
124,56,99,95,38,32,145,162
105,47,90,93,35,29,119,130
107,51,95,98,36,30,111,108
104,55,96,94,36,32,113,113
95,47,99,103,42,32,126,118
99,51,102,103,41,31,124,110
92,51,110,114,44,31,99,97
152,49,117,116,44,33,104,110
160,48,120,123,47,31,106,125
172,49,127,108,43,33,106,130
170,41,123,107,43,30,105,138
173,44,124,104,39,32,112,147
125,45,117,102,42,32,152,180
122,43,118,101,43,34,161,170
110,45,130,122,46,28,154,162
108,46,132,121,47,34,173,181
138,50,132,119,50,34,176,179
142,50,155,128,47,31,142,153
144,48,154,120,44,35,136,158
135,47,151,104,41,37,136,157
139,50,154,105,39,31,108,131
107,46,145,109,38,29,97,127
127,47,123,97,42,32,124,155
127,49,120,100,45,28,132,147
158,53,135,108,47,29,167,209
156,51,143,113,51,34,184,226
161,51,153,104,49,33,185,226
137,46,157,109,45,32,175,209
146,54,173,118,44,32,178,222
123,53,158,120,43,30,161,173
127,65,148,121,48,31,194,171
133,69,166,156,55,35,213,172
145,77,158,163,57,35,206,161
134,74,151,160,54,33,198,163
125,73,146,158,53,32,186,162
160,65,158,158,48,37,152,162
157,62,141,142,48,38,144,196
150,60,149,133,49,39,177,226
147,71,136,134,53,38,168,208
146,69,136,139,55,38,172,205
90,76,122,132,52,29,162,195
97,75,127,114,46,25,157,160
105,70,120,107,45,25,113,117
115,60,135,103,42,27,132,159
151,62,136,86,42,29,146,169
158,53,140,87,44,30,136,164
160,56,133,87,48,33,136,171
164,74,133,93,46,32,147,183
166,72,167,94,45,32,149,171
146,79,175,97,43,33,134,153
149,81,173,106,42,36,146,160
169,87,170,104,40,39,170,177
170,77,188,106,41,41,188,182
167,83,169,111,43,45,207,204
162,79,160,129,49,48,220,220
196,86,172,131,54,52,235,226
179,84,170,133,52,46,214,212
172,84,180,166,52,47,205,205
187,80,169,171,53,43,191,192
190,78,176,154,47,37,176,195
155,68,171,151,42,30,180,241
139,67,183,187,44,33,186,255
153,98,158,157,45,32,174,249
138,100,158,160,52,36,178,256
133,102,157,171,52,38,178,246
121,101,161,175,48,39,143,185
127,101,155,147,46,37,126,158
112,92,172,156,54,43,141,154
104,93,163,167,54,38,111,104
107,94,217,176,54,39,144,186
127,98,231,190,57,42,172,216
128,99,246,188,56,44,182,228
139,86,232,178,51,38,173,243
141,79,236,167,45,39,185,247
151,78,191,144,48,40,169,206
148,77,163,125,50,36,148,198
145,89,135,118,51,35,157,184
146,86,143,122,50,36,185,222
145,90,151,136,52,35,182,222
134,98,150,139,51,31,181,219
118,95,145,133,47,31,185,216
114,85,154,142,44,29,184,247
104,81,149,151,47,27,152,197
118,87,158,128,43,32,174,270
150,76,152,134,44,33,166,279
156,89,166,138,47,35,173,284
163,101,148,125,50,36,178,269
166,101,138,106,45,37,180,283
156,93,116,139,46,34,153,216
116,94,112,145,49,36,170,200
115,88,98,142,54,40,154,177
114,98,110,146,54,39,143,162
95,101,123,157,57,39,146,135
106,107,125,146,59,38,149,144
112,105,117,134,55,37,157,144
114,99,119,145,49,35,157,142
109,74,118,149,49,36,145,158
117,72,114,145,44,35,142,167
112,76,102,126,42,37,141,160
103,83,101,119,41,37,155,198
102,88,98,134,48,37,158,205
105,87,104,132,48,37,158,188
125,83,95,124,46,35,152,182
125,101,106,130,47,34,161,188
138,95,112,133,49,34,130,151
134,95,122,127,41,29,144,147
133,94,113,135,42,35,180,179
109,96,113,144,49,40,178,179
120,81,112,137,44,39,168,165
110,87,123,139,46,39,166,157
121,82,114,115,44,39,158,164
121,82,116,120,51,33,114,130
118,80,133,111,47,29,121,127
109,86,123,111,48,28,141,154
112,84,109,115,50,30,132,147
102,88,117,138,58,35,128,133
113,88,121,124,55,37,127,131
120,93,110,125,59,41,137,140
112,82,134,127,59,44,134,126
115,77,152,137,60,52,172,174
116,77,146,126,53,50,171,177
127,91,156,136,52,50,205,226
124,87,155,139,47,49,206,246
126,87,142,135,47,46,198,263
116,86,143,160,53,43,181,251
113,84,142,158,55,43,181,252
122,111,135,164,54,43,156,220
137,114,135,177,60,51,191,250
144,112,134,184,68,65,245,298
147,122,131,150,62,62,270,302
147,122,127,140,61,63,278,316
115,86,119,124,57,62,272,312
102,86,131,101,52,54,240,272
102,85,134,97,42,40,196,200
122,95,119,98,39,36,163,185
146,96,133,110,41,39,186,211
179,93,147,117,42,39,189,223
181,111,161,133,48,42,220,248
199,116,156,129,47,41,210,249
201,106,159,136,45,43,222,303
192,102,153,132,42,42,199,297
173,107,144,132,41,40,195,289
179,89,131,130,35,38,169,272
159,84,140,133,35,41,169,281
154,81,142,131,37,39,147,237
181,89,142,132,41,36,143,227
174,88,137,129,45,38,138,228
164,86,136,123,45,37,132,215
177,94,147,130,46,39,133,224
173,93,154,139,49,39,141,239
167,91,162,147,52,44,166,249
206,87,171,155,52,45,206,285
216,98,176,160,56,49,238,333
204,90,172,169,55,46,268,359
204,87,170,167,58,49,271,388
179,77,160,170,55,48,260,370
137,89,154,163,53,45,230,345
120,79,135,154,49,42,193,301
122,96,123,167,49,46,183,291
120,111,122,184,47,49,191,264
141,126,156,177,47,48,199,283
142,121,169,179,48,51,206,283
139,122,182,187,50,50,212,292
149,116,201,193,54,54,216,287
173,109,212,210,62,51,212,252
173,99,207,216,63,54,221,292
170,98,195,214,62,53,221,313
178,103,200,216,61,54,217,307
170,96,196,195,58,46,194,282
179,105,182,167,50,51,220,300
175,109,162,191,53,57,233,271
183,109,172,191,53,58,252,294
202,104,154,179,53,60,255,296
206,115,132,181,54,60,283,317
197,101,123,170,51,56,254,309
191,103,123,137,44,47,260,306
211,118,133,176,53,46,279,307
189,117,147,190,52,42,286,312
183,108,164,184,49,43,254,302
167,109,170,186,52,40,265,302
166,99,170,184,52,38,232,280
153,78,159,148,42,35,187,237
166,75,142,139,42,38,178,236
161,69,136,148,44,35,171,223
166,64,130,137,42,33,153,231
167,68,123,122,42,34,140,228
143,66,120,147,51,37,154,221
143,70,129,135,53,36,153,228
189,73,131,130,49,34,167,234
182,71,129,141,52,36,163,211
202,68,130,149,52,35,162,201
217,65,133,131,49,33,140,205
207,67,124,141,52,38,148,197
179,63,119,147,56,41,137,181
175,65,122,136,48,41,131,177
154,62,134,142,54,53,154,181
159,74,127,139,54,57,161,178
165,75,144,153,51,55,164,175
191,80,149,151,51,53,171,203
201,78,159,170,55,52,178,221
195,79,164,174,53,41,165,237
182,75,182,181,55,37,163,267
175,78,179,174,56,39,168,267
148,77,173,168,54,40,179,252
149,84,196,152,58,48,191,239
165,87,197,160,55,47,195,227
158,82,178,148,50,46,198,198
176,83,181,148,48,46,186,191
191,83,186,144,48,45,162,183
175,77,153,140,38,35,135,171
174,79,141,120,40,35,123,161
192,84,162,174,58,38,128,177
180,80,168,161,57,34,129,167
154,75,162,160,57,33,134,146
173,80,157,161,58,32,136,153
168,77,153,154,57,36,144,173
163,78,134,132,42,32,128,141
198,80,115,156,48,39,165,218
233,85,110,164,47,39,162,234
229,82,119,165,46,41,177,286
223,86,126,175,49,37,166,286
227,81,118,152,49,41,163,292
209,78,110,130,45,39,128,276
166,70,135,145,49,39,129,278
181,71,134,149,56,44,139,235
184,72,134,139,54,45,178,254
168,69,144,136,51,42,183,251
195,74,148,131,48,42,184,231
195,77,124,106,43,45,199,218
181,82,166,114,39,41,195,244
203,75,168,144,39,43,170,242
232,80,172,141,40,43,173,263
242,84,190,164,44,47,172,270
241,88,192,183,46,44,152,280
237,82,165,186,45,44,133,250
236,82,181,205,56,45,163,301
227,82,189,211,57,47,231,397
184,68,167,198,55,44,243,402
217,74,162,186,55,45,254,413
221,81,160,176,54,44,260,426
211,92,137,122,45,42,242,383
231,94,124,123,42,39,181,275
256,102,128,129,47,38,173,271
242,102,129,125,47,36,159,252
256,97,125,141,53,35,165,232
247,87,133,143,48,35,154,219
210,86,126,140,54,41,158,225
192,79,123,138,53,43,164,244
185,72,124,137,52,46,168,255
185,73,123,127,47,45,158,252
194,79,108,125,49,42,156,257
195,79,111,118,47,36,140,233
202,91,137,126,53,43,172,272
213,98,139,119,53,40,172,248
196,98,140,128,52,41,167,254
190,96,142,127,52,43,174,257
204,98,153,136,54,50,184,271
224,98,131,118,46,44,148,243
238,97,134,128,50,46,170,265
237,95,123,116,54,45,172,271
240,95,121,118,54,44,177,265
242,103,125,127,58,37,176,258
209,88,121,127,56,32,164,197
192,90,118,144,70,47,165,263
184,90,117,139,70,49,162,254
171,86,114,137,71,48,149,257
145,75,80,123,65,46,155,259
159,87,137,134,72,60,203,341
123,72,131,109,55,49,175,280
120,72,139,126,53,47,171,272
196,78,171,135,54,53,190,340
199,76,169,135,54,54,180,348
191,67,135,130,44,39,127,273
191,66,133,124,42,39,130,269
202,66,154,114,46,43,138,274
147,59,121,101,40,41,135,186
140,56,128,99,41,41,150,198
132,51,139,104,43,42,149,195
151,63,142,106,43,42,148,206
149,74,111,96,43,47,151,218
169,77,133,107,47,44,130,206
226,79,126,95,47,46,110,159
232,82,103,84,45,45,173,224
240,83,106,97,44,46,172,230
236,73,116,108,42,39,179,220
232,73,105,119,42,46,196,266
241,81,116,128,41,42,205,281
246,87,123,136,46,48,182,261
238,82,131,145,50,48,183,252
255,89,148,158,47,46,184,263
247,85,139,147,45,39,166,237
192,84,127,141,47,41,155,234
176,79,132,136,43,34,131,201
163,85,131,122,40,34,141,206
136,83,102,97,39,35,123,196
126,83,108,92,42,35,123,181
161,80,133,107,51,33,126,164
165,78,124,107,53,37,130,190
178,70,117,112,53,40,116,180
182,70,131,124,54,42,123,178
201,75,130,127,52,42,123,169
192,89,108,121,41,45,123,171
191,90,115,121,40,43,124,162
177,87,113,108,38,38,118,155
180,92,116,109,36,41,156,238
158,90,115,106,34,38,161,258
181,87,133,107,40,38,177,286
175,82,127,105,38,38,167,273
235,88,138,117,47,43,195,306
230,79,133,105,48,37,160,241
241,81,142,120,54,46,183,262
215,71,124,109,49,43,164,231
224,78,156,105,53,51,172,230
162,78,160,100,48,52,153,202
165,83,156,108,50,52,161,225
154,78,150,106,47,47,135,181
193,77,165,121,51,48,135,201
190,75,149,132,49,40,155,237
216,75,139,144,53,38,146,228
221,76,145,146,53,40,145,213
217,79,138,136,50,38,137,218
181,76,159,156,51,37,146,226
211,75,178,158,52,39,132,249
199,78,178,148,47,35,146,263
193,78,170,136,44,32,144,259
199,82,173,141,46,35,149,258
194,80,138,118,40,35,150,238
159,78,96,106,42,33,139,183
158,72,116,104,45,36,148,164
152,67,120,111,49,37,163,188
174,73,127,135,49,35,165,199
184,83,128,136,51,34,154,189
192,88,131,140,48,32,167,206
200,88,113,141,44,30,144,212
211,91,133,153,41,29,141,191
204,90,130,128,41,32,146,183
201,84,148,128,39,32,142,202
208,84,149,134,40,32,116,192
208,86,157,135,39,33,120,182
206,83,149,125,38,32,98,189
199,87,146,133,39,32,89,182
207,83,139,133,45,31,119,195
263,93,141,128,50,37,151,232
258,97,136,135,52,39,151,243
255,101,140,135,56,42,155,253
245,96,143,132,54,42,155,253
227,99,130,124,49,40,143,231
142,90,153,136,44,39,158,225
174,89,161,129,41,37,170,223
227,101,151,127,40,38,199,294
234,99,149,126,41,37,200,298
236,94,152,129,42,37,205,302
235,91,143,114,44,37,204,307
207,92,126,123,46,40,211,319
169,77,122,123,44,48,210,268
202,80,125,127,43,48,216,262
212,89,125,120,42,51,224,297
228,96,104,116,41,51,193,265
235,95,115,105,42,51,185,251
218,93,128,108,41,43,150,213
203,95,121,100,40,42,143,226
205,96,119,97,42,37,112,179
209,90,122,100,39,36,122,172
197,91,129,109,44,34,121,193
206,89,129,101,43,30,122,206
201,88,132,100,45,34,124,231
199,81,138,98,46,37,130,236
168,85,136,106,47,40,130,247
178,80,133,135,54,40,111,223
168,81,120,134,55,41,112,216
162,78,162,135,55,41,120,213
172,77,157,138,54,39,119,206
187,78,159,133,53,36,114,213
174,70,143,87,39,35,117,209
208,78,150,98,47,46,152,253
201,73,94,94,46,45,138,219
188,77,110,99,46,48,140,218
182,69,105,96,43,48,144,212
179,74,102,104,42,46,147,223
199,73,99,100,33,36,117,192
207,87,98,102,32,37,114,191
223,88,75,96,29,37,119,194
227,93,71,96,33,36,112,181
229,91,74,88,34,36,105,165
188,88,100,102,36,37,115,162
187,76,136,129,40,38,120,176
183,75,137,129,41,32,110,171
181,73,146,131,40,33,113,177
195,87,159,141,41,36,122,187
196,81,136,122,37,32,110,167
198,93,110,94,34,30,107,153
184,93,111,92,39,35,139,170
