89,51,144,55,46,84,399,193
99,52,149,56,45,83,429,201
99,49,151,63,49,80,441,221
99,40,103,61,51,80,402,240
97,37,109,64,43,72,428,240
99,34,107,64,45,79,404,264
96,33,102,60,42,67,413,295
94,34,109,53,37,67,417,271
105,36,119,54,35,68,415,267
127,35,108,51,41,73,421,270
126,36,109,50,36,67,464,248
125,38,124,61,37,70,410,214
130,40,109,61,39,67,384,211
120,46,112,61,41,73,397,194
100,43,114,57,35,67,345,185
109,47,154,63,36,75,316,185
113,46,143,59,38,75,282,176
130,48,146,58,38,85,344,178
131,40,145,61,41,92,332,175
131,40,159,59,40,98,333,175
132,35,117,54,42,101,340,161
124,33,134,54,39,103,348,159
95,35,155,62,39,99,288,160
100,38,153,60,39,88,314,158
103,39,135,60,42,98,310,153
95,41,134,57,39,88,258,172
116,46,133,74,42,85,267,175
119,41,111,75,44,79,307,194
131,39,99,76,42,84,280,203
130,52,114,104,44,66,290,236
132,53,116,104,46,78,326,243
122,49,115,93,42,84,345,240
118,48,112,90,39,84,319,227
105,55,122,94,38,82,338,232
100,41,106,66,32,79,352,207
111,40,119,64,31,70,372,250
110,43,120,61,34,65,375,256
113,45,128,56,39,79,350,261
103,40,124,53,39,81,372,270
98,42,129,50,37,88,351,257
86,47,121,51,38,90,295,206
78,47,104,50,39,89,256,217
80,46,106,54,44,88,387,221
92,42,115,54,44,85,348,231
97,43,141,52,46,79,361,230
94,39,139,53,44,75,402,257
125,46,162,50,43,73,405,257
133,50,162,46,34,62,355,261
125,50,157,48,34,62,347,227
127,47,129,50,32,65,349,227
135,53,150,57,35,68,424,198
113,46,121,59,35,76,429,202
120,42,114,57,34,75,374,203
118,45,128,60,33,87,416,230
120,47,128,60,33,93,416,244
106,39,106,60,29,91,415,245
104,36,117,64,30,86,404,244
76,33,130,65,29,86,411,227
91,35,117,58,31,79,466,224
101,33,123,61,35,75,461,217
102,36,124,60,42,84,354,215
98,40,125,67,48,86,386,198
116,42,106,72,52,96,378,215
103,37,109,71,52,92,268,195
92,46,121,72,50,85,307,207
87,44,118,68,47,79,318,196
89,42,106,59,41,99,349,208
65,43,138,63,37,93,418,201
77,46,130,62,36,101,414,202
84,39,112,57,36,108,375,218
89,42,124,62,33,103,384,229
94,45,140,62,32,76,363,229
102,44,104,53,40,86,335,220
95,40,104,54,39,71,334,237
83,40,127,54,37,63,345,204
90,39,124,46,40,67,345,198
84,33,112,42,38,70,328,195
88,31,117,45,37,61,280,189
88,36,136,43,39,69,307,176
105,38,121,50,44,77,308,226
114,39,110,48,42,79,299,246
123,46,123,50,42,83,283,249
128,50,119,49,38,79,275,259
135,49,108,51,42,88,257,278
132,47,117,54,42,87,315,257
120,43,116,53,41,87,302,234
108,37,98,59,40,85,293,213
90,34,98,58,39,94,330,209
84,35,90,56,32,83,337,193
72,35,91,49,25,78,283,169
71,37,104,52,29,77,292,169
84,37,107,45,33,109,306,211
90,38,111,46,34,100,288,217
91,40,116,45,34,102,291,201
89,37,103,49,38,106,299,206
128,39,96,51,36,112,300,251
128,40,107,54,32,84,301,234
125,43,106,52,32,81,286,232
122,46,109,57,34,87,278,235
125,45,106,66,34,81,262,234
79,44,119,73,34,74,252,180
84,42,112,75,34,70,252,178
116,42,121,79,36,72,249,168
117,35,113,79,37,65,241,169
112,36,137,74,43,85,299,168
124,37,125,64,43,85,302,189
126,38,121,63,47,88,426,191
109,34,120,59,45,88,424,197
109,37,128,56,43,85,424,224
116,36,106,52,37,69,394,243
113,33,101,57,45,89,401,249
103,35,120,52,41,96,253,250
96,36,115,57,45,97,252,251
93,30,109,68,44,100,268,216
88,37,132,71,42,100,423,211
83,37,145,71,37,105,434,199
79,35,129,72,43,105,434,217
80,37,151,73,41,104,439,210
85,38,147,66,46,108,463,236
86,36,128,64,48,108,352,226
81,33,120,63,48,85,332,221
88,35,133,62,42,72,344,191
91,33,104,56,41,77,364,207
99,36,125,56,38,66,318,179
98,38,142,53,35,61,380,183
102,40,138,49,39,84,422,177
100,38,125,49,39,85,440,187
92,37,135,52,40,83,439,164
78,33,118,47,39,94,448,163
84,34,95,50,45,105,398,160
82,34,95,52,40,91,340,165
76,37,120,52,40,91,305,158
97,41,116,52,40,94,286,217
116,44,115,54,40,87,284,231
113,41,152,55,33,72,237,222
127,41,163,51,33,69,259,237
129,42,153,57,35,65,281,229
125,40,153,57,34,67,322,211
110,44,178,56,34,63,314,199
114,43,144,51,35,73,348,215
108,40,132,51,35,71,339,217
113,41,129,46,35,71,308,246
111,43,133,50,36,68,321,225
125,40,101,55,38,67,347,230
120,39,100,54,39,67,314,216
115,43,117,54,40,66,325,191
109,43,111,54,41,66,356,167
105,40,106,46,39,59,376,163
88,38,104,38,37,62,349,157
99,48,122,40,33,46,353,173
97,43,114,52,34,58,358,184
95,39,117,53,34,68,342,191
89,46,130,56,38,78,257,181
101,46,128,58,40,73,270,202
95,36,111,62,41,79,257,212
101,39,108,57,40,75,240,207
100,42,122,54,38,74,249,192
112,39,109,64,35,69,253,211
101,38,109,66,35,75,237,187
98,43,112,61,36,77,261,175
87,46,123,59,34,72,318,220
109,42,104,58,38,73,304,226
102,37,95,56,43,71,306,225
123,39,106,62,44,70,317,229
120,37,101,66,47,86,305,223
117,30,76,67,46,88,377,174
97,33,99,67,42,89,405,157
95,36,109,61,34,96,401,151
67,35,98,51,32,93,427,155
71,32,98,47,28,75,447,152
83,38,112,44,29,85,338,159
102,39,105,54,31,85,344,192
97,40,99,54,33,79,371,184
95,44,134,54,34,84,382,178
96,43,134,58,35,86,351,209
96,40,130,67,38,74,375,211
83,36,129,61,36,72,352,191
89,35,137,69,37,69,327,194
104,30,102,69,39,85,273,245
101,29,111,74,39,87,306,228
91,31,110,70,36,88,309,218
97,34,108,68,38,85,339,219
103,34,97,61,39,99,328,226
92,34,106,69,37,82,320,169
95,33,102,65,37,82,338,168
108,33,96,66,37,82,337,188
107,35,94,71,44,82,314,201
106,39,102,68,42,78,367,225
110,38,91,60,42,75,369,244
107,39,87,59,42,75,337,241
98,41,112,57,41,75,338,229
102,38,109,51,30,77,307,216
97,37,103,56,31,68,258,179
86,35,113,60,35,71,265,162
84,37,121,63,36,66,249,160
123,40,112,60,40,71,262,151
122,41,130,64,41,69,336,188
128,36,127,63,40,64,335,203
143,40,121,61,38,65,326,193
143,38,118,54,34,71,351,191
111,36,103,57,34,74,329,213
102,34,77,68,36,95,298,181
100,35,72,67,38,100,287,158
86,36,82,66,38,106,314,178
95,37,88,65,41,104,345,186
103,34,106,62,39,103,343,171
105,39,120,45,41,96,315,174
99,37,125,44,43,95,359,176
99,34,122,44,41,92,360,171
106,36,129,52,41,96,318,183
98,37,117,53,44,104,350,192
94,33,111,57,43,100,352,191
91,32,110,56,39,96,299,193
85,33,125,55,40,101,280,198
68,30,130,49,39,98,316,179
73,33,131,51,41,90,325,185
81,41,135,54,39,77,359,195
87,46,144,58,41,83,389,208
93,47,137,56,41,75,384,207
98,47,123,57,40,71,427,225
118,53,144,55,35,63,409,205
113,46,143,48,35,69,399,185
126,43,138,57,32,74,392,183
132,46,139,67,31,71,387,197
130,49,135,67,32,74,323,186
115,44,120,67,34,84,341,194
140,46,123,68,32,89,312,205
129,46,129,59,36,79,302,216
121,42,125,50,34,86,327,202
122,40,133,53,35,85,318,212
126,36,127,51,35,76,365,211
96,39,118,52,36,75,366,225
90,42,122,54,35,89,407,213
90,43,117,59,39,89,410,202
103,49,104,51,37,92,389,213
95,49,103,54,36,97,300,213
96,52,111,56,39,95,304,198
105,47,93,51,36,82,267,205
115,48,84,45,35,76,258,208
97,40,117,56,39,80,306,180
93,39,116,57,42,77,330,186
107,31,108,53,39,73,338,224
116,32,128,54,41,79,391,210
105,33,138,60,40,74,378,218
117,36,118,51,34,65,343,230
134,44,125,50,34,75,347,251
135,49,125,64,34,74,339,213
121,51,143,67,34,72,269,216
127,53,133,64,35,77,281,224
140,54,151,77,36,86,359,225
126,50,151,80,35,77,371,187
115,51,178,73,37,82,362,190
116,48,152,68,37,80,347,186
118,50,157,68,35,84,345,168
88,47,135,54,35,77,289,138
90,46,132,46,33,74,248,182
87,39,97,47,30,67,294,207
93,40,110,52,30,64,312,211
84,33,109,59,33,76,326,225
87,35,137,73,32,79,301,237
88,34,139,81,37,81,317,215
86,34,137,81,39,89,281,196
86,29,125,78,42,98,272,205
108,39,147,80,42,82,249,203
111,39,122,69,43,81,276,194
107,41,127,68,44,98,302,218
119,42,132,74,42,87,291,261
116,45,149,73,38,76,276,264
110,40,120,69,40,74,265,259
112,41,120,67,38,87,270,264
114,39,109,59,33,80,315,263
103,40,122,49,35,100,338,223
102,39,101,50,34,101,338,220
107,35,106,41,30,106,358,226
105,31,107,46,33,107,334,223
106,39,136,47,34,96,238,199
113,38,119,51,35,80,204,198
115,42,120,56,39,96,262,192
99,45,126,60,42,101,281,206
107,47,126,67,41,92,324,222
120,42,103,71,41,98,344,247
119,46,106,72,40,95,346,263
128,43,123,73,43,85,439,255
129,46,161,73,39,73,422,240
122,49,164,65,37,71,408,218
124,51,169,63,37,71,400,236
134,47,175,60,37,77,421,223
135,47,162,55,30,74,330,254
134,40,129,59,30,78,319,241
138,37,129,59,33,79,331,277
127,32,118,56,36,83,341,240
127,33,102,55,34,83,360,251
112,35,117,56,36,91,328,222
118,39,107,52,35,87,332,242
123,39,115,52,38,95,314,235
116,42,135,54,34,90,293,237
103,43,138,58,36,86,238,220
115,43,147,62,33,72,228,267
106,44,148,64,42,86,244,257
98,41,143,64,38,71,300,238
106,42,126,64,36,63,299,261
111,47,153,65,37,78,294,257
108,49,135,62,40,82,293,210
110,47,133,55,34,79,300,209
106,52,154,64,35,92,231,195
99,49,153,63,37,95,251,167
101,49,118,60,39,89,261,184
93,46,113,56,40,92,265,179
87,48,121,66,39,88,259,166
104,45,82,60,41,85,241,165
111,45,80,58,41,88,236,162
106,36,90,55,40,91,253,172
105,39,122,56,36,85,258,200
115,35,121,44,35,80,227,223
107,36,125,45,39,84,245,236
117,51,150,58,39,77,262,247
111,52,146,60,39,68,260,234
112,52,129,76,41,69,293,209
112,53,129,78,42,79,324,253
121,55,125,75,37,70,328,294
108,42,100,66,38,79,302,311
112,45,110,68,37,79,292,313
117,41,105,51,35,82,304,343
112,37,92,52,36,76,304,308
97,33,118,56,41,74,289,275
105,36,117,56,44,78,312,251
120,36,113,60,47,86,328,263
120,36,132,58,46,80,289,227
147,38,137,61,47,83,304,228
146,39,120,60,48,94,311,214
156,43,125,66,48,93,298,217
149,39,118,60,44,86,297,183
144,38,92,60,44,89,306,174
122,41,107,55,44,103,268,226
141,46,105,54,42,92,271,253
118,42,98,51,40,85,262,244
114,43,124,57,41,89,258,276
117,45,127,63,46,104,243,318
116,45,110,64,44,91,258,276
86,37,130,68,40,87,247,257
89,36,133,65,38,91,247,271
91,38,146,61,39,86,221,251
91,36,145,58,34,68,233,207
76,31,147,64,33,60,284,210
80,36,129,65,36,74,350,213
100,38,136,69,36,68,359,188
95,39,99,67,35,69,395,185
99,40,113,69,39,75,428,216
121,45,114,65,39,76,396,207
120,41,116,60,36,63,352,189
109,41,105,62,37,68,349,196
123,39,106,65,41,77,350,190
116,44,94,63,35,66,291,159
94,40,88,62,35,64,275,168
96,42,102,60,36,71,279,179
115,51,97,60,35,69,303,184
103,50,94,56,31,57,295,181
104,45,109,56,31,63,296,178
116,55,133,60,35,73,382,191
119,55,119,62,34,68,467,186
99,46,144,56,32,70,458,165
100,55,151,62,33,86,436,179
104,55,135,62,34,90,515,174
111,47,130,61,31,87,462,193
105,45,135,57,29,87,363,191
108,46,125,57,29,87,380,201
105,41,122,54,31,75,415,210
106,41,140,59,34,71,360,243
86,38,139,57,35,76,346,212
94,37,136,59,36,75,348,226
86,36,122,60,39,77,308,220
97,45,153,58,36,82,307,263
96,45,138,55,34,79,259,229
95,46,121,51,31,68,256,230
90,52,146,50,35,74,264,242
90,53,150,51,30,67,282,245
86,44,116,53,38,65,235,187
78,41,119,49,36,62,219,181
90,45,149,53,40,76,282,186
93,38,135,52,36,73,274,156
88,40,129,47,38,74,285,167
81,42,129,47,29,71,272,148
108,60,150,54,32,84,283,186
108,59,119,57,33,76,272,179
106,58,112,59,36,74,267,173
113,59,127,64,36,77,295,164
131,58,132,61,40,73,386,203
113,43,107,60,38,59,389,183
103,38,120,55,35,66,358,185
113,39,123,55,36,65,362,210
112,38,117,50,36,58,351,208
87,36,110,50,33,63,324,167
85,33,105,53,32,61,316,174
101,34,101,57,33,53,336,178
89,37,90,58,34,72,362,189
81,34,75,58,33,73,342,188
76,35,79,60,34,71,263,190
76,34,93,60,33,75,277,171
67,36,93,54,32,85,343,186
75,34,91,53,27,72,336,174
84,33,91,57,29,70,322,176
89,37,127,58,27,77,328,183
93,37,127,52,29,81,408,188
86,36,129,54,30,71,334,169
77,35,137,57,30,66,319,145
71,37,149,54,29,72,352,140
86,34,133,53,31,66,352,141
98,35,124,52,30,58,256,144
97,36,115,49,29,55,268,151
102,36,129,42,29,58,262,157
103,37,115,49,30,65,227,164
120,36,92,47,28,74,267,205
114,34,92,48,28,86,283,197
114,34,133,54,30,87,300,210
108,31,119,63,30,86,310,205
111,30,127,57,29,86,330,193
81,30,128,58,30,77,301,150
94,40,145,59,30,64,269,225
97,41,112,56,34,69,238,210
128,43,105,49,34,70,244,249
123,42,98,49,33,61,251,253
123,43,104,49,34,61,298,259
107,34,120,50,33,59,310,243
115,35,118,54,36,62,312,259
97,33,122,51,35,60,322,223
104,35,124,52,36,72,306,225
115,39,138,51,38,78,290,216
117,38,113,51,37,83,298,169
119,35,128,62,34,79,298,159
108,36,129,65,33,82,271,190
117,35,133,66,34,72,257,192
110,29,115,67,35,71,242,192
105,33,117,70,35,66,228,195
93,38,112,60,35,61,269,195
100,37,107,58,40,60,325,213
86,36,106,59,39,58,321,225
84,38,108,56,40,47,300,227
97,36,128,55,40,49,296,221
110,31,117,51,42,80,294,210
106,30,123,49,40,84,231,167
108,32,140,48,39,85,244,163
115,30,148,59,36,96,263,191
108,29,127,60,37,99,316,211
142,71,140,62,37,88,305,217
146,75,155,62,35,89,307,208
147,77,135,63,36,89,319,187
145,79,127,61,34,81,325,166
145,80,143,57,34,79,356,148
99,49,130,54,28,73,348,145
99,44,107,57,27,69,343,192
100,39,105,53,28,69,325,198
98,39,151,43,29,72,324,185
101,37,130,44,31,71,258,182
101,38,134,44,30,71,284,180
92,38,137,42,32,73,307,131
82,38,137,44,32,81,341,122
78,34,78,44,31,75,334,167
76,39,107,46,29,74,321,162
71,36,107,46,31,77,311,155
86,35,105,43,29,73,310,190
99,36,112,40,28,61,275,191
97,33,127,43,31,68,292,171
95,28,107,42,29,75,309,215
109,28,104,42,26,70,288,244
95,37,110,44,26,73,270,240
83,36,113,46,28,75,304,241
85,39,93,45,28,75,325,243
95,41,102,43,29,68,315,214
82,41,110,43,31,65,325,186
81,34,105,37,30,71,341,151
78,36,112,47,29,68,310,168
72,35,121,47,27,70,327,173
62,36,117,54,28,70,323,176
66,34,110,57,25,70,321,188
86,35,113,60,29,67,313,205
99,35,99,56,32,80,332,201
106,38,95,54,33,75,277,197
110,38,118,57,33,77,274,194
107,40,130,76,36,86,260,178
97,39,126,78,36,85,278,173
89,38,126,82,36,78,286,162
82,36,137,82,32,75,284,138
78,34,116,85,37,83,314,176
82,33,101,70,35,69,339,181
81,35,105,68,35,70,392,185
81,38,121,63,35,75,404,190
78,38,107,65,35,78,404,198
83,37,106,58,32,76,407,185
78,39,103,54,32,88,399,182
81,39,105,52,31,86,336,169
77,35,103,49,30,85,303,168
81,38,99,50,34,84,391,177
108,39,101,51,32,73,400,148
114,39,129,58,30,66,400,160
109,37,128,58,30,62,395,168
125,36,113,73,30,69,396,163
144,38,119,73,33,82,423,161
123,39,146,69,69,82,388,175
119,38,128,66,77,85,373,159
122,36,127,69,79,86,402,174
128,40,125,51,84,94,400,201
108,36,128,51,86,85,286,213
103,35,105,56,60,84,292,202
151,40,97,59,50,89,400,242
152,41,94,59,50,91,370,232
131,37,105,62,40,74,377,209
132,37,96,65,41,73,365,186
140,36,91,62,47,80,371,184
101,35,94,57,47,66,248,135
101,36,102,53,47,62,263,137
103,37,106,57,49,81,257,136
109,37,107,54,42,80,250,144
120,36,102,55,37,76,276,158
109,34,104,58,39,80,348,168
106,35,101,60,40,87,325,156
111,36,95,57,38,69,330,163
101,38,92,54,39,74,370,163
96,38,88,49,40,83,363,150
92,36,83,47,37,91,319,134
101,42,92,51,33,85,328,136
94,41,81,51,33,86,330,127
110,39,78,51,30,89,311,129
87,38,78,53,28,81,305,128
102,47,114,55,28,73,287,143
92,39,99,50,27,74,294,175
94,37,107,47,27,70,287,187
74,42,124,54,28,73,406,174
106,44,135,59,29,76,413,201
102,38,109,62,28,73,434,208
104,41,136,61,29,75,434,182
111,44,140,62,29,73,431,188
127,45,132,62,31,64,309,222
104,43,124,56,30,60,266,215
102,44,135,59,33,62,224,210
103,42,113,57,35,65,215,211
104,43,124,62,39,71,245,213
107,37,116,57,37,71,238,175
124,39,113,60,38,82,290,199
122,38,105,56,35,81,303,216
120,37,100,55,34,80,304,226
120,31,75,50,29,76,299,225
108,37,83,52,29,71,334,244
88,38,93,58,31,62,291,224
86,38,99,55,33,55,287,198
91,40,104,58,34,53,309,203
105,45,116,57,36,66,275,232
99,41,114,55,40,80,324,227
101,38,110,47,37,88,365,220
102,40,119,49,39,95,405,242
118,41,113,48,37,100,402,245
98,39,100,48,38,99,421,218
99,40,130,65,33,89,369,227
101,41,137,71,35,78,332,225
112,39,121,68,31,72,285,238
89,37,126,70,33,76,276,227
87,35,136,74,39,74,285,230
91,37,110,58,42,82,356,224
93,34,111,50,41,83,355,222
76,34,117,57,41,90,338,174
81,34,117,56,40,81,338,170
79,34,105,48,35,93,313,166
74,31,100,48,31,94,237,147
80,37,92,49,31,93,276,146
88,41,90,50,32,88,327,165
94,42,88,49,35,92,306,156
109,49,111,53,32,74,330,154
112,49,124,52,33,67,317,165
107,46,122,51,34,73,303,178
104,44,125,49,34,73,306,173
96,45,147,48,31,67,317,183
85,38,130,44,31,69,283,168
88,39,123,47,31,74,333,169
87,38,120,56,29,69,329,161
89,39,145,56,28,74,288,167
88,34,122,56,29,72,280,188
87,34,126,59,35,87,302,203
86,38,132,58,36,81,225,199
81,38,144,52,36,80,277,205
83,34,109,52,36,78,287,203
86,35,106,54,42,88,287,183
85,37,111,57,38,71,294,175
94,34,110,62,41,79,361,183
119,33,93,60,41,80,311,191
125,35,95,57,41,77,316,190
126,39,117,54,38,77,332,199
134,38,113,54,37,75,340,200
125,35,105,49,32,78,318,214
108,35,139,53,33,85,354,197
103,34,139,50,32,82,346,199
104,33,131,51,27,83,420,215
92,33,147,55,32,92,417,214
100,37,150,53,34,90,392,191
96,36,124,60,38,94,450,208
96,38,142,66,39,100,442,203
92,35,138,64,41,89,384,179
96,37,122,57,40,93,373,175
87,33,117,60,40,85,379,184
118,41,127,53,35,77,262,189
110,44,114,45,34,76,281,192
113,45,111,53,33,75,240,195
123,44,104,55,30,64,213,227
132,48,119,55,29,71,240,243
107,42,104,59,33,71,264,223
109,39,96,60,33,65,239,221
119,40,103,56,33,66,258,220
107,41,117,55,32,79,288,227
95,37,99,52,31,74,266,195
113,38,102,53,33,74,242,209
118,37,107,71,34,84,283,207
111,38,126,73,34,84,281,204
112,37,112,73,38,81,267,173
120,40,125,73,40,85,264,194
109,38,126,71,36,88,268,189
130,40,121,51,35,77,248,197
132,41,104,51,38,91,301,210
132,48,116,51,35,84,294,211
137,45,99,53,36,80,303,192
137,45,93,47,35,77,328,190
121,43,93,50,35,78,324,187
117,41,98,48,38,76,280,164
112,34,99,47,38,77,303,150
100,33,100,45,36,85,307,194
105,36,108,48,38,101,276,203
104,42,106,57,39,110,276,208
104,42,134,56,33,102,272,224
122,42,127,57,33,103,270,235
135,48,130,57,35,99,246,234
142,50,126,69,36,79,247,232
140,44,127,64,35,69,231,218
139,42,86,63,35,68,258,198
127,40,78,62,34,68,272,207
129,35,77,65,32,64,267,189
112,32,90,57,31,63,281,171
118,32,113,56,32,65,352,201
120,37,124,61,39,69,375,203
118,37,127,60,38,64,362,177
94,34,125,58,38,60,351,146
91,40,119,62,38,89,389,166
77,39,107,60,38,94,340,166
73,39,121,56,30,89,286,190
68,44,142,67,31,87,305,194
71,43,150,72,34,100,336,225
75,38,147,66,37,76,341,212
75,44,153,68,35,69,356,192
79,48,147,68,38,75,358,255
78,44,131,58,37,80,334,256
80,49,124,50,34,73,314,234
100,49,143,54,30,84,260,259
102,48,135,66,32,86,232,299
107,41,113,66,29,90,311,229
109,45,107,67,30,85,331,225
117,46,136,67,28,76,330,239
103,48,127,67,27,74,323,220
106,45,120,56,26,70,337,166
95,46,121,53,30,73,282,163
92,40,130,53,29,83,279,166
84,37,121,52,30,86,287,138
81,32,108,47,31,86,310,137
69,33,106,42,31,91,298,125
67,32,104,55,31,89,314,146
76,38,108,57,31,87,288,134
70,37,81,57,31,98,305,136
63,35,88,55,34,100,295,160
96,38,91,58,35,95,308,183
106,39,91,50,37,96,305,177
103,35,100,55,38,92,313,186
112,36,105,58,41,88,294,247
109,39,102,57,38,84,278,235
83,36,115,58,36,81,246,226
70,34,118,58,32,75,197,220
72,35,100,54,35,80,272,224
73,35,96,51,35,69,299,176
73,33,102,55,36,72,307,162
76,36,116,55,35,75,326,157
93,38,115,54,38,73,349,202
97,37,111,51,36,69,296,199
85,34,111,53,34,74,264,179
92,37,123,55,34,64,249,190
99,36,95,63,39,63,243,195
100,36,96,61,35,62,254,155
111,41,109,62,35,57,246,158
113,45,123,65,34,52,260,171
115,42,111,68,36,55,268,164
117,41,109,61,33,63,277,241
107,42,106,62,32,59,288,238
93,37,99,64,32,61,303,234
92,34,91,55,34,59,312,228
83,33,82,47,32,78,325,226
92,34,85,43,33,72,346,172
88,32,88,40,34,75,323,169
91,37,130,39,35,76,332,171
112,40,130,49,36,95,359,227
121,45,130,55,45,99,399,232
111,45,136,58,44,99,372,249
117,48,154,65,44,99,357,253
111,46,126,64,45,105,335,263
99,44,115,59,45,94,344,276
90,44,132,91,46,76,298,278
96,44,132,111,54,81,291,242
106,42,117,125,69,99,330,254
108,39,112,129,68,94,359,281
105,38,116,130,67,87,312,223
113,34,116,108,61,86,293,216
116,41,130,86,54,90,300,221
109,39,131,58,35,75,352,240
109,40,138,51,33,79,318,198
110,41,153,52,33,89,372,263
109,41,138,50,32,92,375,290
105,37,115,51,30,91,374,289
100,39,115,51,28,89,330,260
113,41,107,45,30,87,352,265
110,41,93,43,33,87,289,233
107,39,100,44,33,84,293,205
101,36,111,47,36,73,280,197
111,35,103,47,39,76,285,219
130,35,96,48,40,81,311,308
129,37,129,44,36,72,310,295
129,39,130,50,34,68,296,290
125,39,125,49,37,80,371,302
123,42,127,51,33,70,361,305
95,40,162,54,32,59,320,204
94,40,145,66,32,56,313,205
94,42,144,65,35,61,400,231
115,43,143,63,30,48,382,220
112,39,146,62,32,49,354,207
109,36,118,59,32,66,351,227
111,36,107,53,36,96,365,221
111,36,116,55,35,97,346,209
91,34,116,58,34,103,312,195
97,39,110,63,35,103,310,198
91,45,119,70,39,102,352,175
102,45,110,67,34,89,369,164
104,42,97,63,33,92,331,169
113,46,109,61,34,88,318,215
119,47,112,62,39,94,335,198
123,44,107,62,36,93,307,203
120,44,147,59,38,83,286,228
128,44,149,66,42,82,277,227
124,45,156,72,42,81,277,198
108,41,165,69,41,78,291,212
107,42,164,73,43,69,353,221
114,43,138,77,44,77,352,256
121,50,162,77,41,75,337,264
118,47,156,80,40,71,367,270
126,48,158,86,39,72,367,273
133,50,157,91,39,79,317,266
124,50,154,104,36,75,319,210
122,63,164,107,39,84,329,211
155,67,165,110,41,94,311,230
175,73,165,108,44,95,305,247
170,74,159,99,43,91,319,262
174,74,173,95,46,94,308,272
171,60,142,89,46,93,322,303
155,55,143,86,48,87,380,290
129,48,140,84,44,91,398,343
142,45,144,85,42,90,377,333
134,46,128,69,39,87,397,329
125,46,143,79,37,91,416,322
112,48,147,79,34,93,360,336
119,46,138,80,35,84,329,304
115,47,156,79,35,88,329,335
134,46,181,83,36,87,361,346
136,52,189,74,43,79,327,337
136,58,181,81,47,83,332,336
138,61,194,78,45,83,333,323
137,63,196,84,48,97,389,301
157,63,221,109,55,101,353,347
172,69,237,122,56,98,475,323
212,87,271,125,61,107,552,328
340,213,277,139,64,111,568,371
482,367,358,159,68,110,590,435
562,391,344,151,72,119,651,535
638,398,334,153,71,139,677,578
668,406,347,169,67,132,681,620
658,392,354,183,72,149,751,683
708,337,272,190,71,148,738,724
751,415,277,213,70,146,703,708
775,425,348,221,73,135,643,824
815,435,347,237,83,144,638,864
808,417,377,244,89,151,605,880
719,380,398,256,89,149,637,851
691,291,399,250,100,154,658,857
708,336,407,278,110,161,700,836
673,354,410,268,107,156,730,833
664,361,419,260,103,142,704,783
687,364,496,239,112,155,760,858
711,409,527,240,112,156,822,894
701,432,480,228,110,158,799,853
854,424,488,265,112,153,755,915
876,450,509,293,126,158,798,918
868,525,503,293,119,145,760,836
834,512,485,303,118,141,800,845
794,508,514,286,129,142,793,859
608,544,545,275,130,155,846,784
628,595,530,252,118,142,828,854
663,621,514,261,142,148,794,880
708,646,563,275,141,142,711,871
763,689,589,270,132,152,753,876
801,675,627,274,149,204,721,911
817,675,653,302,160,216,755,927
854,620,623,324,145,249,807,993
813,684,589,308,150,276,856,958
910,649,564,316,161,272,863,1002
955,795,552,323,148,257,907,976
1092,806,527,362,149,260,902,1004
1139,870,564,339,154,252,890,1015
1174,815,554,346,152,253,889,1081
1091,911,650,363,142,260,858,1046
1022,882,649,347,133,244,799,992
879,888,721,340,144,246,816,885
726,819,708,363,145,240,863,816
741,869,807,400,172,250,821,795
828,868,813,413,174,244,820,803
950,815,784,417,186,274,829,929
994,758,705,372,193,283,808,927
1025,840,717,392,191,301,905,909
1047,841,727,370,165,278,893,948
953,753,667,369,173,274,920,913
1001,766,689,358,181,260,966,887
934,931,712,354,164,257,998,892
951,996,780,358,165,252,860,904
931,1015,764,349,167,242,859,845
911,1034,803,324,163,266,861,842
843,1062,803,314,161,266,791,776
849,926,843,342,157,270,774,767
840,974,800,322,158,269,761,818
753,995,731,332,163,297,833,772
822,976,664,340,155,296,804,751
768,934,800,486,204,355,904,765
766,1106,922,484,213,363,845,772
820,1133,967,483,230,422,858,698
866,1108,962,477,240,436,818,714
807,1199,1028,534,266,467,814,750
781,1220,951,502,242,413,788,813
755,1128,781,534,235,410,862,806
688,929,675,515,218,413,925,826
698,934,804,629,229,432,944,847
694,897,743,599,206,382,920,805
688,834,727,556,187,393,862,697
700,799,709,549,230,443,880,741
688,891,757,562,242,392,801,685
725,1020,780,440,237,373,709,628
753,1030,745,405,227,383,756,643
796,1061,737,379,269,405,828,775
780,1058,791,359,234,366,796,769
780,1010,793,354,233,345,776,791
679,941,705,321,223,381,781,841
661,894,709,324,230,385,758,838
634,890,810,304,181,420,686,789
653,910,850,272,186,393,575,733
647,885,879,314,166,415,582,760
674,908,837,340,182,376,598,669
736,917,872,397,196,373,645,709
716,939,814,486,200,328,680,688
783,956,756,555,214,339,794,684
803,982,690,521,219,333,901,755
863,882,667,541,209,366,927,818
863,895,611,535,205,383,939,856
861,1025,603,461,195,351,881,820
814,960,546,380,186,373,871,866
763,948,563,381,196,373,746,810
720,982,634,380,200,334,718,750
641,929,665,382,188,303,630,655
625,738,617,382,198,315,708,697
597,758,647,371,179,307,756,702
606,923,803,463,176,288,754,653
659,909,787,439,178,320,758,713
652,966,785,408,205,416,770,795
665,1001,746,430,224,446,766,801
676,1099,795,542,270,473,703,756
676,999,692,529,285,488,691,753
613,985,642,563,302,502,761,688
634,900,608,614,312,477,945,660
627,903,654,701,297,468,995,676
703,772,642,764,310,416,995,814
789,725,670,758,294,423,1022,854
824,657,663,793,320,504,1031,891
820,647,684,866,338,491,894,867
858,752,756,832,376,477,793,812
795,793,709,734,408,486,910,680
797,890,653,731,416,538,931,671
758,929,705,755,401,420,921,646
782,1064,839,709,392,395,910,651
748,980,795,704,392,399,945,718
761,958,814,699,333,403,781,741
682,867,846,739,356,337,799,744
636,855,850,691,344,331,730,760
592,759,734,663,333,332,723,783
560,719,667,669,313,362,790,746
494,691,643,690,315,396,887,713
551,822,601,777,351,369,840,680
572,776,611,814,342,416,841,643
629,689,563,770,332,438,892,660
750,713,624,735,339,457,796,777
821,842,715,729,336,445,699,801
878,753,841,545,287,462,700,806
929,893,812,421,284,469,738,862
972,982,891,525,328,481,640,799
887,1000,878,510,302,423,644,702
845,931,806,511,308,481,675,709
806,888,646,573,288,514,709,709
791,759,672,647,293,466,722,698
729,762,559,592,243,426,711,767
712,732,594,617,236,501,722,770
813,886,583,570,247,447,660,746
738,986,625,608,249,429,664,731
733,1130,616,534,275,555,614,690
748,1103,671,507,553,751,758,615
774,1124,615,493,681,807,779,620
724,1055,599,515,800,945,853,743
745,1044,610,426,863,1006,844,773
697,959,595,435,866,972,901,770
770,929,588,430,774,887,903,886
752,1003,607,440,711,834,918,854
699,978,601,418,574,680,848,741
677,935,552,426,510,673,889,766
759,919,483,406,511,726,906,901
655,1017,468,403,479,700,844,843
684,1054,532,457,455,686,776,925
646,1121,540,500,458,733,793,920
681,1143,586,494,524,798,853,882
600,1157,709,524,526,747,791,791
557,1177,736,538,484,721,742,700
504,1091,735,605,461,743,740,537
527,987,737,587,508,790,780,661
481,962,691,565,417,656,667,678
518,934,588,576,402,658,606,625
557,823,622,570,410,655,622,668
600,796,598,452,383,680,634,717
673,816,694,493,338,615,752,701
728,866,701,576,338,577,716,694
726,943,753,558,327,532,716,673
745,911,708,552,347,585,739,649
761,861,671,527,369,582,775,680
818,861,612,571,365,552,670,629
764,876,645,617,350,559,651,598
727,843,584,609,350,622,694,576
725,859,545,632,311,584,719,618
698,887,613,654,295,511,760,572
587,913,654,568,235,449,687,517
716,810,609,438,212,457,837,576
747,705,593,416,241,465,815,601
741,723,609,376,247,510,822,557
784,801,529,362,255,492,725,584
790,704,434,388,266,514,735,616
694,665,377,377,276,515,782,652
708,753,412,424,249,443,767,668
689,764,390,422,235,371,686,715
598,792,476,385,241,367,694,665
622,795,473,350,236,384,811,703
644,852,470,376,230,393,895,614
642,869,498,392,226,400,962,666
631,894,515,401,242,394,971,606
671,796,420,427,296,465,965,620
606,818,433,420,328,470,925,574
593,858,551,399,336,450,667,584
592,897,654,387,334,436,573,511
606,905,639,361,324,424,598,512
612,892,668,336,281,370,647,523
612,921,716,389,241,331,709,528
612,898,720,510,275,313,675,545
568,809,603,483,280,315,658,524
553,750,592,491,283,350,693,563
530,762,580,487,283,359,710,567
541,723,540,461,274,350,544,509
513,733,560,323,212,340,555,442
498,649,548,299,226,371,686,420
531,636,569,358,224,363,817,397
526,654,661,414,206,326,853,366
525,808,665,466,215,320,854,375
499,793,580,478,231,348,914,404
523,808,577,492,283,410,1015,518
658,839,676,490,293,443,908,654
670,908,628,443,289,430,862,635
649,791,594,393,292,440,851,634
715,775,564,368,325,453,892,716
751,779,600,439,275,363,806,688
605,811,483,449,267,285,791,539
549,727,432,479,254,280,742,536
565,770,432,459,283,329,825,557
554,723,445,464,245,297,866,605
513,834,447,428,244,301,810,580
498,790,459,362,231,292,774,561
505,752,481,325,253,350,796,598
504,670,482,334,233,376,858,603
477,688,486,347,238,458,838,627
444,566,462,299,210,448,774,598
455,562,470,342,246,494,779,614
536,631,445,329,236,499,848,622
584,666,462,325,261,500,924,685
575,720,581,366,256,422,825,578
560,723,560,360,276,449,813,585
538,750,565,320,254,435,855,585
484,683,542,311,246,403,781,616
432,653,554,330,203,358,556,567
404,583,428,241,182,343,523,490
499,586,484,326,199,320,549,578
500,529,438,334,194,300,516,564
529,540,476,373,196,282,517,533
530,539,472,385,189,243,639,531
556,620,488,399,189,246,641,571
449,593,428,345,133,259,670,471
464,665,480,351,118,230,797,483
420,676,462,322,119,247,833,455
397,680,454,283,133,245,714,394
361,616,498,315,140,258,793,361
424,585,502,350,156,285,768,390
419,492,443,326,158,289,728,423
413,507,463,315,164,280,689,425
497,541,520,326,145,294,699,516
491,502,431,287,145,303,646,533
435,542,425,207,141,253,632,516
432,523,436,213,133,248,468,487
422,484,393,237,116,231,463,444
301,429,265,208,114,233,467,338
276,428,261,201,121,259,543,317
265,386,238,208,108,273,548,319
237,378,224,204,109,268,549,297
207,353,216,172,113,267,520,284
182,298,205,159,106,241,532,256
184,298,217,140,88,191,393,226
208,274,227,133,88,153,382,277
200,246,212,136,84,138,372,270
187,255,226,123,79,143,365,274
193,400,225,121,73,141,286,273
165,397,204,112,77,145,275,250
124,397,188,94,68,137,249,129
106,359,160,59,64,135,240,121
100,349,112,77,57,122,228,107
82,156,72,77,60,110,209,115
81,148,119,101,62,82,167,131
96,130,121,117,64,69,157,156
90,107,125,118,60,67,130,180
91,93,119,106,58,63,125,188
94,89,119,105,52,65,151,183
91,68,68,84,36,46,129,187
78,57,93,68,27,45,122,177
64,51,84,62,26,43,124,153
68,49,84,71,29,43,123,142
61,47,90,78,35,40,82,132
59,45,90,87,43,36,64,117
61,45,64,100,51,32,71,117
69,49,70,104,54,32,65,127
66,46,71,110,53,32,62,132
66,48,65,106,49,31,60,130
67,48,69,99,40,26,51,135
81,44,65,85,31,26,73,137
85,43,61,79,24,28,76,120
81,47,58,57,23,28,77,115
86,48,67,59,25,31,80,121
85,48,72,80,38,32,83,106
69,49,74,100,45,37,82,86
55,48,74,100,47,36,108,85
58,51,73,102,47,34,108,82
58,50,61,102,46,33,107,82
64,50,64,93,36,32,116,111
60,45,76,68,27,25,98,108
59,43,79,65,25,25,68,107
63,50,79,63,25,28,68,107
56,48,81,61,25,27,77,104
55,47,69,50,27,28,67,69
57,54,55,45,26,26,65,68
59,55,54,47,27,25,63,73
56,44,67,54,29,23,78,107
56,44,64,53,29,22,68,100
48,43,64,50,28,22,60,98
44,34,59,48,26,23,62,98
45,39,54,46,26,25,63,105
39,34,34,30,25,23,43,69
36,34,38,24,26,23,38,66
35,34,38,32,25,20,33,62
39,32,44,39,26,20,30,91
31,20,41,41,26,18,24,78
29,22,43,43,25,18,24,77
28,23,47,46,22,18,23,76
28,24,46,43,23,20,25,76
25,42,44,43,21,18,23,36
26,44,42,43,20,18,25,32
26,44,40,41,20,19,23,29
30,43,31,38,21,20,23,29
34,45,32,38,20,19,22,28
32,29,41,45,20,19,27,30
31,27,61,51,22,21,24,28
33,28,63,53,25,20,28,79
29,27,66,55,25,19,28,93
27,25,66,57,23,23,33,96
33,36,67,61,25,24,70,96
34,39,50,55,24,23,76,110
38,41,63,59,21,22,77,97
40,41,65,58,23,22,78,90
47,40,67,58,26,24,92,137
44,30,61,48,27,27,70,139
43,31,63,49,30,27,64,131
38,30,51,46,31,28,64,128
43,45,47,45,30,32,71,127
40,46,50,45,30,28,53,95
43,45,56,41,27,25,57,92
42,42,64,43,26,26,67,92
45,41,65,43,24,26,67,93
38,24,64,43,26,21,59,89
31,25,67,40,23,23,58,65
33,29,81,44,25,25,55,79
35,28,78,41,23,25,42,83
46,31,77,47,24,25,77,76
51,32,78,49,21,25,80,77
54,35,72,51,22,28,84,86
52,31,57,46,22,30,84,80
52,30,54,44,22,29,85,73
44,29,55,37,21,30,64,77
60,30,62,38,25,37,79,124
65,27,63,39,25,34,75,124
101,44,58,41,26,32,72,140
109,45,53,40,25,32,70,142
109,46,53,43,26,31,63,154
112,47,45,43,26,32,54,152
118,49,48,45,26,32,54,156
90,38,66,48,25,31,57,139
81,52,70,55,29,32,58,137
80,55,69,61,32,42,73,125
68,54,75,60,32,39,70,89
54,54,83,62,32,38,72,75
53,56,73,62,32,39,70,76
62,42,73,56,29,39,83,142
80,39,75,48,28,37,82,169
77,37,70,51,25,44,173,185
75,34,71,54,23,50,246,190
81,28,71,55,24,54,279,194
83,96,73,59,25,61,279,162
83,176,75,57,23,57,281,150
85,184,77,55,22,50,245,137
90,191,80,49,26,45,208,135
96,195,79,45,27,50,211,143
97,173,78,39,28,42,218,140
82,96,77,41,26,45,216,132
82,78,77,38,28,49,218,140
95,63,63,45,30,54,187,143
84,51,57,47,29,48,130,138
79,45,56,47,30,48,113,151
83,32,50,45,30,45,105,141
90,34,46,44,31,44,125,147
73,27,55,33,27,41,227,163
78,32,86,36,28,42,307,175
87,37,91,45,28,47,324,173
91,199,110,52,30,48,334,173
87,213,132,56,30,44,322,152
102,218,130,59,29,42,285,181
105,221,116,55,30,57,227,207
95,221,120,53,30,60,292,204
95,108,109,47,29,61,297,220
96,78,98,52,27,61,295,234
84,65,102,53,27,67,287,213
77,53,100,55,29,59,305,180
80,48,94,54,28,78,237,181
71,40,93,54,28,81,223,170
64,36,75,56,31,82,226,159
63,34,65,54,34,80,240,153
68,33,64,54,33,90,230,153
79,32,58,53,31,74,216,189
76,32,66,52,33,69,208,185
79,31,69,42,30,68,204,179
83,31,67,39,30,77,195,166
90,31,66,38,26,61,180,167
77,30,64,34,26,56,184,126
83,32,47,35,25,56,195,116
84,33,62,38,28,71,219,115
82,36,93,39,24,60,222,109
71,33,96,42,26,58,215,94
73,34,100,51,25,56,214,76
85,38,101,54,26,60,276,149
88,36,94,52,23,67,353,149
82,32,67,51,24,69,338,148
81,34,77,55,25,69,328,147
81,34,78,61,27,73,356,145
74,33,78,62,25,74,317,93
65,33,71,59,26,53,207,100
66,33,68,59,26,47,200,97
66,33,52,54,25,45,194,123
76,35,47,40,24,58,178,124
69,31,47,35,23,63,182,116
69,30,52,46,23,69,199,154
67,31,74,50,22,69,214,162
67,31,74,50,24,75,221,144
84,27,74,49,22,70,206,146
89,28,72,50,25,71,265,171
89,29,71,47,26,66,264,132
91,28,51,50,29,67,258,126
95,31,59,61,31,67,261,133
74,33,57,77,43,61,253,151
68,36,82,84,46,49,227,121
69,35,82,83,47,48,209,126
66,39,88,81,45,48,209,145
76,38,87,74,44,42,211,144
70,42,97,62,33,47,228,126
65,37,82,53,27,46,198,126
63,38,85,55,25,45,206,118
70,38,83,52,24,56,216,111
57,37,84,50,25,57,221,115
68,32,74,46,23,55,213,109
67,32,66,42,22,60,194,108
86,38,64,39,23,60,239,114
85,34,59,38,24,58,230,106
86,32,51,37,21,59,224,117
76,30,46,36,23,52,208,115
83,33,47,36,25,57,272,118
70,27,49,41,25,59,243,122
115,32,50,53,29,65,259,139
118,32,50,54,30,61,257,122
119,32,51,58,30,64,256,133
119,32,52,73,43,60,190,137
135,37,45,99,45,63,206,154
98,31,45,110,45,59,186,135
92,32,53,124,50,61,190,137
97,40,78,141,57,58,228,139
100,41,88,163,63,57,250,153
76,36,89,167,80,51,242,138
74,36,92,177,86,42,247,132
73,34,90,179,90,40,239,125
75,29,73,170,93,55,212,118
96,33,63,151,91,57,185,101
93,31,60,142,80,59,183,85
94,34,57,137,72,61,188,105
104,38,58,127,64,59,187,126
102,37,67,122,53,53,221,141
71,30,63,110,39,47,248,137
82,33,68,101,34,45,229,149
82,33,75,69,35,42,211,146
81,28,77,60,33,85,218,160
96,27,79,59,33,86,227,163
99,30,86,59,32,87,203,160
92,31,92,51,30,89,219,149
93,30,94,51,28,90,235,153
93,31,93,49,28,62,245,131
79,31,82,53,27,56,197,106
78,30,88,54,27,54,180,117
103,27,89,63,26,56,242,122
103,28,105,64,28,57,253,132
96,27,106,71,27,54,251,133
102,32,111,72,28,54,304,151
108,33,120,77,30,55,323,164
86,80,142,96,29,70,292,169
88,80,128,99,33,64,275,160
88,82,127,93,32,58,261,165
84,81,126,90,32,68,243,173
82,82,110,95,39,76,240,170
86,44,77,67,39,62,213,165
94,43,81,63,36,65,216,184
91,41,81,67,35,69,261,171
85,46,81,72,35,65,284,147
76,48,78,62,24,55,287,128
71,44,71,60,26,51,285,122
53,43,70,57,26,50,290,88
53,44,71,54,27,57,262,96
63,37,75,48,26,53,219,97
63,31,76,55,29,53,188,91
67,33,90,56,28,54,208,96
82,40,81,59,31,62,209,111
92,42,89,61,30,54,204,108
102,62,114,77,37,57,261,107
119,66,117,80,36,59,271,136
141,70,124,82,40,59,301,233
135,68,161,87,39,63,312,246
144,66,161,90,40,61,322,256
142,52,149,75,38,76,273,282
147,48,158,65,37,81,346,301
131,41,150,66,33,83,336,240
129,38,127,60,32,73,315,229
114,44,140,64,30,79,320,265
103,53,160,83,33,85,385,278
131,79,271,137,36,94,433,281
130,119,296,171,42,95,440,304
177,202,337,189,47,96,446,321
192,251,339,193,57,117,466,297
236,259,331,188,54,108,488,280
257,259,259,159,58,105,586,338
271,281,235,127,57,107,596,333
252,332,202,105,57,111,603,365
334,318,240,125,62,91,602,404
328,376,283,136,74,97,587,415
323,389,286,159,72,117,536,372
333,390,319,159,74,118,525,397
372,343,328,163,71,113,519,395
327,355,305,140,60,115,559,393
309,302,275,132,52,121,572,412
326,293,264,105,55,92,519,449
338,303,275,122,56,86,524,435
312,282,255,114,55,106,527,411
294,244,251,115,59,107,476,385
300,254,263,112,55,110,415,419
259,257,300,106,47,108,307,374
222,279,265,93,43,108,310,365
209,272,248,91,51,98,369,358
200,296,243,100,52,104,385,354
199,303,225,100,47,81,413,253
199,314,187,102,50,82,417,230
193,256,167,86,50,115,466,250
182,256,169,87,46,118,492,231
167,263,180,126,47,107,504,224
167,234,168,128,49,107,477,269
181,246,140,126,48,117,478,322
180,250,147,127,48,97,441,299
177,259,143,125,47,88,442,303
169,226,117,71,42,89,388,300
150,241,119,69,38,88,372,294
133,218,150,70,38,75,422,241
152,216,142,109,43,66,398,290
148,192,219,127,45,65,297,296
148,266,228,131,44,58,301,296
159,250,234,134,48,67,321,289
143,228,224,134,49,77,271,283
126,224,274,108,43,69,240,235
132,271,217,103,45,74,231,239
163,213,226,112,49,81,299,235
156,222,218,103,53,99,412,209
152,233,229,104,50,95,428,207
145,232,162,108,53,96,432,200
149,223,187,95,46,92,450,206
126,220,177,79,50,98,459,245
129,203,191,86,42,74,351,242
139,227,180,86,44,70,307,235
155,258,184,80,45,75,299,242
150,220,166,76,48,103,333,256
148,221,161,80,49,105,273,251
150,226,232,90,54,104,292,277
170,290,236,86,55,105,344,309
159,293,257,85,55,120,402,366
160,306,281,90,55,99,498,368
173,359,289,105,50,88,528,370
172,400,235,97,46,89,526,356
195,369,236,101,46,109,539,332
203,351,216,114,46,160,549,297
219,384,196,119,47,165,564,285
216,418,195,111,44,171,532,258
219,410,184,112,48,176,552,316
211,382,167,109,50,174,516,344
211,381,165,103,56,135,584,323
217,468,154,94,56,143,471,313
212,409,167,86,55,147,501,311
220,376,200,103,55,142,523,309
211,395,198,108,51,132,533,284
210,404,201,107,45,108,430,407
204,331,263,114,45,103,429,406
219,346,253,116,47,98,395,466
222,371,277,103,49,105,372,477
218,348,289,100,51,106,372,476
219,349,349,116,48,107,365,384
204,268,302,119,47,98,346,387
182,213,297,116,46,88,352,328
181,173,271,111,42,87,375,299
174,178,259,121,45,97,448,336
164,227,177,132,48,97,427,325
162,264,185,124,48,91,415,341
174,289,184,123,48,92,448,333
177,301,179,120,50,96,432,308
163,311,188,111,47,84,354,269
166,293,214,72,45,82,360,250
180,254,221,69,43,80,371,210
183,247,219,71,48,90,366,249
162,225,212,79,42,77,400,246
178,227,217,81,43,75,386,266
175,251,248,116,57,83,428,301
147,257,245,119,63,88,458,306
155,273,254,119,59,80,492,315
153,294,246,129,60,78,431,312
164,285,238,125,60,84,467,364
168,224,163,93,47,85,448,360
170,213,185,88,41,96,448,366
165,181,186,91,40,94,440,333
180,191,179,74,38,93,427,338
162,213,253,88,39,99,435,310
179,211,276,95,39,93,432,330
186,216,256,95,35,82,432,344
182,217,278,93,36,87,376,359
178,192,288,88,38,100,419,352
175,169,222,70,45,109,465,358
160,199,232,72,50,129,505,327
175,212,242,76,57,144,512,316
172,222,208,76,58,142,510,313
183,226,206,83,56,137,492,316
195,234,216,89,50,122,429,279
210,219,179,91,49,100,351,278
201,215,152,102,42,75,336,265
207,186,161,103,47,89,330,231
183,183,156,100,49,90,331,232
173,228,166,102,47,90,359,208
164,253,210,99,42,92,367,211
206,248,210,85,42,98,356,226
210,259,203,80,35,90,363,216
216,267,207,109,42,86,344,207
214,245,193,112,47,86,270,199
217,216,152,110,47,84,333,200
179,256,186,109,46,85,360,196
157,248,188,111,44,77,347,198
155,261,197,93,39,74,362,200
203,240,191,82,39,109,442,207
188,238,198,83,38,107,422,184
182,197,175,93,39,99,376,178
187,199,189,92,41,96,398,201
197,159,234,93,44,103,420,241
155,193,255,97,47,100,505,240
168,236,294,93,46,103,479,260
190,237,301,106,50,101,489,279
196,243,291,113,51,101,482,274
180,281,259,109,53,101,489,260
177,262,249,102,47,83,337,263
181,246,189,126,55,80,346,248
162,269,185,110,52,80,321,222
174,276,184,100,49,89,333,226
198,232,153,98,47,82,282,185
189,216,128,107,48,68,275,169
171,195,154,78,40,62,273,179
164,155,151,77,38,59,295,194
140,145,156,81,41,49,306,171
114,157,167,85,42,51,329,205
127,189,186,113,48,59,310,253
133,186,161,116,50,70,317,297
155,217,155,115,52,71,314,292
176,221,156,112,47,68,295,306
177,234,193,116,46,65,249,317
181,220,177,88,37,57,255,289
184,217,204,80,36,56,308,259
175,230,205,79,36,57,294,250
151,263,233,90,37,53,275,241
144,400,219,88,34,55,276,210
131,404,219,82,33,59,285,204
137,459,203,84,31,50,240,197
119,442,193,82,29,55,247,200
120,419,152,71,31,59,243,190
139,284,113,58,30,63,239,222
139,295,120,54,33,65,244,240
145,324,125,49,32,61,241,212
159,332,153,76,35,56,233,245
157,333,150,82,40,68,217,242
145,336,150,83,40,65,224,199
155,329,142,84,36,60,194,195
137,216,115,81,37,69,171,213
119,206,70,58,35,69,183,196
125,194,72,51,27,53,190,207
115,191,86,52,30,50,179,219
101,187,88,51,28,49,172,207
94,183,96,56,33,58,152,201
100,181,101,55,34,64,207,187
88,197,127,60,37,65,207,181
85,217,124,61,36,66,220,179
75,228,125,61,36,68,215,192
89,239,117,58,32,61,233,221
114,252,123,60,32,65,195,221
133,268,135,53,30,67,191,217
140,245,131,54,32,65,172,231
142,243,128,52,38,68,181,229
167,275,136,51,38,61,163,204
150,258,127,50,38,49,138,193
140,231,92,53,38,46,139,201
163,223,86,52,40,49,150,235
164,281,99,54,35,38,145,232
140,246,95,58,37,40,173,222
145,307,120,69,35,39,169,234
144,336,135,68,35,44,183,268
122,358,135,63,32,43,177,235
118,298,134,64,30,45,198,223
112,282,132,60,33,52,175,222
119,219,109,44,38,53,180,228
120,165,84,42,39,49,166,194
129,140,170,61,40,54,174,250
142,188,172,63,44,69,165,263
144,216,174,65,41,69,155,279
129,223,177,64,38,67,141,268
128,227,177,71,39,75,137,266
113,214,114,59,38,72,147,198
109,213,129,59,37,63,147,190
119,242,144,61,41,59,142,164
122,268,159,66,39,63,153,150
136,277,184,61,38,54,151,145
139,283,176,59,37,55,138,144
150,273,165,58,35,51,131,130
138,249,152,94,47,51,138,120
159,202,196,106,60,48,127,190
159,227,169,106,61,50,135,197
173,257,167,106,62,50,165,201
247,267,167,110,64,48,169,207
278,263,183,83,52,47,169,238
279,277,135,66,41,48,190,251
273,245,145,64,35,49,199,241
272,253,148,64,33,49,178,263
230,234,144,57,32,65,171,280
208,215,136,52,31,65,193,257
221,199,117,56,29,68,178,214
229,213,112,59,31,63,169,210
230,178,131,59,30,65,163,178
201,162,129,57,31,58,231,180
199,179,113,56,31,57,229,185
174,192,117,57,31,51,224,167
185,196,129,74,33,56,225,220
193,192,108,77,34,66,229,241
190,215,101,77,31,69,172,235
205,227,123,79,31,69,145,242
218,218,117,80,32,71,144,250
233,247,103,64,33,67,140,228
286,255,98,59,34,65,141,204
326,252,102,59,33,53,140,183
342,245,96,63,36,56,186,179
382,301,106,67,41,67,194,172
394,294,130,79,43,70,193,164
354,276,135,80,42,59,189,163
384,269,135,82,43,64,186,178
371,328,176,78,44,61,160,166
352,295,178,69,40,58,168,226
321,274,159,57,35,54,166,229
319,274,157,56,36,65,174,228
238,281,159,52,37,63,224,227
233,231,129,60,39,75,258,261
254,233,129,58,38,70,255,216
252,240,132,54,38,73,267,195
250,261,137,55,37,65,260,202
265,276,138,57,38,67,212,185
255,264,111,48,32,53,147,146
197,257,117,53,33,51,133,146
203,301,128,58,33,46,95,161
206,293,130,58,34,47,94,183
199,297,158,64,32,44,77,213
205,296,173,74,37,55,87,209
219,317,176,71,36,52,87,201
213,269,167,67,37,54,98,224
211,267,163,68,36,56,115,223
206,246,140,64,36,52,114,203
200,235,140,53,37,52,121,206
172,214,119,51,41,55,135,216
171,200,123,52,38,60,142,207
198,206,128,53,42,62,126,218
232,214,124,50,41,63,132,227
235,226,106,52,33,56,132,224
231,222,113,54,29,55,119,224
228,277,131,56,32,54,108,198
219,280,133,59,29,58,133,175
186,264,134,64,32,65,157,169
172,245,133,63,33,68,166,167
170,227,130,61,34,67,169,150
173,213,115,66,33,66,193,189
194,195,102,62,32,62,186,174
191,188,91,58,30,61,173,174
195,187,99,56,31,61,158,172
195,209,104,54,32,60,162,189
207,254,108,44,34,62,143,151
169,254,115,44,33,66,164,153
169,257,137,46,34,68,217,162
163,280,149,52,33,64,229,163
169,282,157,53,32,66,227,140
161,220,159,57,31,70,242,153
164,240,160,54,31,66,245,200
152,263,140,49,29,57,219,176
147,240,131,46,30,56,199,176
138,249,129,56,35,61,204,213
143,250,117,54,35,48,180,228
140,229,108,53,37,54,152,224
139,214,114,55,37,63,131,229
142,284,129,62,36,69,141,234
149,261,117,52,32,69,158,221
130,251,115,51,31,70,165,203
127,283,120,52,34,74,165,170
129,304,118,51,33,67,148,161
125,263,89,44,35,63,138,152
125,265,95,44,36,60,101,121
123,289,94,48,37,59,80,101
106,305,92,46,32,40,56,72
96,289,83,44,31,38,55,64
90,289,77,40,30,33,49,55
75,289,65,40,28,27,43,53
82,301,78,42,26,26,38,57
84,264,75,45,27,31,36,52
83,264,78,46,26,34,37,52
105,249,77,46,28,35,36,48
130,243,75,44,30,38,39,71
131,183,61,40,32,37,37,67
169,177,60,39,32,33,35,73
174,140,58,37,32,31,34,74
169,138,121,41,33,31,34,79
152,134,127,41,31,29,28,59
184,133,139,39,30,28,30,78
159,113,145,40,29,29,40,97
168,137,148,49,30,30,42,99
171,149,108,56,29,28,41,113
183,152,114,59,31,28,42,116
146,165,133,61,30,29,41,110
156,164,128,60,31,27,36,115
171,147,132,55,33,27,45,157
167,120,136,45,31,26,45,150
167,165,134,55,32,28,46,154
193,163,132,65,32,34,65,196
202,271,139,70,37,44,81,240
197,279,147,75,38,42,82,248
262,321,152,77,41,54,99,282
267,343,166,73,43,65,110,293
251,401,187,72,46,94,183,294
253,357,196,69,47,105,205,274
258,353,190,65,48,111,232,306
231,421,185,63,46,108,236,313
269,399,206,66,45,105,240,345
308,362,175,60,45,94,212,352
329,396,172,63,44,95,246,364
349,397,210,77,42,91,253,353
336,299,215,81,43,89,250,361
300,294,191,81,41,93,281,337
306,359,188,79,36,81,324,354
349,327,180,80,42,74,314,413
356,417,172,74,43,82,294,409
399,503,206,81,48,87,299,388
409,509,203,78,48,82,282,387
384,470,204,77,52,101,241,355
325,464,201,72,46,106,230,290
300,399,169,63,44,101,239,272
273,331,151,61,38,99,230,280
361,359,148,61,49,115,241,308
399,338,139,66,51,106,291,312
394,340,142,71,49,96,282,286
384,355,173,80,51,93,276,271
354,309,144,73,51,92,276,247
250,262,145,73,41,77,285,214
182,249,146,68,34,78,323,193
190,252,171,65,34,77,371,192
197,246,135,61,32,77,378,201
205,240,140,61,38,91,389,242
209,229,139,58,44,94,429,260
193,238,141,62,45,82,371,264
190,254,144,73,48,78,315,299
177,219,147,66,50,92,314,312
217,211,153,62,53,105,311,316
211,210,150,60,47,98,232,289
215,197,157,61,46,96,208,296
224,130,127,54,43,97,209,276
221,246,132,54,42,98,216,309
182,261,132,57,35,84,247,307
225,273,146,65,35,83,237,343
231,306,150,64,34,83,223,359
278,358,192,58,35,87,249,399
298,296,187,60,39,78,339,377
313,284,175,64,38,64,316,370
286,275,187,59,39,64,330,342
292,251,189,64,41,64,333,330
242,173,140,59,40,76,357,280
230,173,212,67,36,78,299,287
222,170,209,63,36,80,302,273
228,164,193,64,36,80,290,281
265,205,182,59,31,79,290,281
254,206,200,62,38,96,266,267
244,186,137,50,43,90,259,233
233,182,135,48,47,93,260,257
222,187,134,47,47,95,264,240
157,111,134,45,47,98,298,243
178,103,107,45,42,71,279,236
177,105,83,45,35,69,278,229
167,104,81,43,29,57,272,177
186,94,58,48,32,52,262,172
192,91,58,49,32,58,279,176
168,86,136,54,43,66,277,184
189,82,142,57,42,66,235,214
191,80,156,61,42,71,241,233
172,78,162,61,43,75,279,239
169,75,165,60,44,72,235,253
176,75,117,57,34,62,226,279
182,77,155,65,35,61,240,277
192,78,144,63,36,59,248,272
190,76,157,60,35,59,222,281
182,73,161,61,35,52,228,260
171,68,182,60,35,50,227,218
135,59,151,50,33,47,210,185
101,49,154,52,32,44,182,178
103,52,136,45,31,63,220,163
129,60,126,45,29,62,215,156
146,63,81,43,32,61,210,202
151,69,141,48,32,63,212,243
155,68,140,46,35,68,210,255
150,64,162,52,32,47,140,252
128,62,191,78,38,73,172,251
108,64,203,77,36,79,176,226
101,57,168,80,36,78,184,184
98,55,167,84,35,86,196,182
116,58,162,82,38,98,199,189
180,56,133,59,36,86,155,230
195,52,121,65,39,89,164,251
197,56,131,59,39,93,163,255
224,63,139,61,41,102,204,284
230,63,125,62,40,93,205,293
190,62,164,71,39,90,217,252
181,61,161,66,35,85,252,261
191,60,147,64,35,84,265,273
156,55,140,58,29,65,245,222
135,52,133,55,30,64,248,200
116,44,63,39,27,63,231,195
123,57,124,42,28,66,260,188
109,62,127,49,30,63,249,178
112,62,136,53,32,60,238,184
128,64,146,54,29,56,230,196
140,65,150,55,31,63,239,210
127,52,108,53,32,84,175,205
134,56,140,53,30,89,215,209
135,59,144,52,32,108,216,228
136,56,137,51,34,109,246,226
135,66,171,52,34,108,270,271
137,69,168,54,34,98,305,253
137,62,149,57,36,96,278,245
128,69,260,69,35,79,283,227
117,68,262,80,34,78,266,225
113,65,246,81,32,72,238,157
122,68,261,85,32,85,273,161
108,72,276,80,31,93,272,171
115,61,169,72,31,87,258,193
109,62,166,63,32,88,248,224
144,65,177,66,34,93,244,269
138,62,169,60,44,91,218,277
152,76,224,63,43,91,230,298
159,86,239,123,50,96,271,330
176,90,256,139,49,101,330,317
180,126,263,141,51,100,350,357
196,166,260,140,43,82,328,375
204,163,210,140,42,77,344,394
204,223,246,94,37,74,364,375
228,227,233,68,40,86,343,378
210,235,273,65,39,82,336,322
195,302,278,69,36,86,314,315
199,326,272,71,44,96,438,286
218,308,230,85,49,100,457,359
210,306,314,83,47,86,470,374
217,473,310,82,46,88,476,419
221,436,314,79,52,86,501,423
213,435,312,80,51,92,421,473
195,445,310,75,45,101,374,445
179,502,243,81,43,101,331,436
207,377,205,79,45,103,329,432
229,367,184,89,47,120,303,511
274,380,196,87,45,112,348,487
271,359,215,78,45,106,365,467
261,312,197,72,46,104,374,458
229,294,184,71,45,102,360,431
204,283,192,55,36,82,429,367
197,289,170,54,39,83,368,359
203,288,191,49,41,83,364,376
202,258,192,73,44,85,384,399
236,323,211,89,46,97,455,404
238,338,203,100,52,99,440,362
186,304,206,100,46,88,437,326
182,305,198,101,44,84,421,280
186,339,205,93,45,93,454,256
179,246,184,80,55,112,424,274
170,241,200,66,56,140,442,257
162,265,207,71,60,152,444,274
165,274,191,71,59,154,435,279
163,228,297,59,58,148,368,355
129,238,304,56,50,148,382,370
147,237,299,58,48,121,295,390
159,216,327,55,44,108,277,370
162,294,340,51,44,103,286,371
176,296,249,56,42,105,307,317
192,292,247,61,40,83,279,307
176,298,254,64,33,78,392,315
175,305,226,71,34,77,397,326
182,221,197,101,41,75,390,330
171,228,188,105,51,97,507,322
154,232,175,103,49,97,512,295
159,244,225,108,48,101,453,290
154,296,229,108,48,99,448,285
144,291,238,82,47,102,482,295
139,280,239,78,50,120,371,300
134,273,235,75,51,118,450,280
145,313,189,70,54,123,444,248
139,268,195,72,57,125,445,252
152,269,186,81,54,140,437,249
163,319,191,78,45,117,492,292
167,315,187,78,45,124,424,283
153,244,171,71,41,114,401,277
152,217,142,61,39,114,392,265
123,208,141,45,37,95,394,240
162,108,159,64,40,94,346,289
159,119,162,71,41,79,360,326
157,202,159,73,41,80,353,332
168,216,216,74,42,76,353,340
184,226,232,78,44,79,334,342
143,230,217,60,40,64,383,254
192,231,215,55,42,69,342,248
196,241,277,75,41,70,345,251
206,252,247,77,39,72,345,261
193,245,232,79,38,73,345,262
201,248,237,84,54,91,331,248
150,244,264,92,51,92,319,212
163,211,316,81,54,98,322,218
145,183,303,81,57,100,319,200
188,180,301,83,56,101,416,241
179,225,295,81,48,103,380,229
181,236,304,77,47,96,395,219
170,211,191,82,44,91,393,204
166,239,194,81,41,91,421,228
151,245,189,75,45,113,380,204
137,196,222,75,38,102,382,209
130,187,182,82,39,102,365,204
132,275,173,71,39,101,366,236
145,267,179,69,41,106,383,246
110,271,179,71,40,104,346,256
117,271,132,72,37,98,307,265
124,365,180,68,36,97,307,272
125,309,198,67,35,104,309,261
137,294,190,66,40,122,318,253
148,327,189,64,37,103,300,233
147,360,207,69,41,113,305,228
167,271,171,59,41,114,298,250
176,265,140,58,42,116,343,259
168,273,132,58,34,92,287,239
168,238,127,59,35,86,284,238
173,215,91,47,30,79,299,241
184,210,73,49,39,84,323,230
227,217,69,46,40,70,277,240
304,258,95,47,43,76,279,320
329,283,143,61,45,85,274,355
369,275,160,77,49,80,260,395
419,298,186,85,47,76,229,475
428,322,194,92,50,88,240,489
413,294,188,99,61,116,260,508
522,287,167,103,64,114,303,584
565,289,197,98,64,117,304,577
532,273,174,89,61,117,357,548
516,238,166,85,62,112,357,558
506,249,165,78,52,76,364,533
390,270,165,62,44,70,331,435
307,263,148,54,43,66,328,443
296,254,148,56,47,86,291,401
285,266,157,53,45,94,281,355
291,242,159,64,42,94,254,333
263,190,152,73,44,106,258,318
247,191,116,73,46,126,248,275
263,206,124,78,49,119,214,270
296,181,110,77,46,111,223,248
334,212,112,69,49,113,242,283
341,200,105,58,47,101,231,307
333,194,122,59,44,72,236,299
332,170,119,53,37,70,282,303
301,169,120,53,37,67,278,337
229,152,116,63,31,59,250,268
223,181,124,64,30,61,238,236
226,183,100,62,31,66,211,264
222,184,83,61,31,65,179,266
210,185,82,61,30,65,161,225
182,159,79,53,34,66,150,214
203,223,75,58,37,65,150,218
207,227,80,57,37,62,160,196
179,227,84,58,36,54,121,171
180,227,81,57,35,51,112,177
206,230,77,54,33,48,111,194
192,143,99,50,32,51,109,218
178,170,98,49,28,42,97,199
189,164,99,51,32,52,140,203
228,162,100,52,33,51,142,197
213,159,101,52,32,51,156,236
201,160,69,47,28,47,156,224
208,117,68,46,33,50,161,249
200,113,77,46,30,53,150,281
173,115,119,46,30,53,148,274
192,119,121,57,35,55,135,236
198,111,121,57,36,56,132,243
194,100,120,58,36,67,133,217
219,108,115,58,37,63,136,215
210,101,73,58,38,62,136,224
202,90,76,43,33,60,133,244
217,104,96,44,37,81,190,237
210,108,101,44,33,71,190,236
183,131,104,45,33,69,170,227
196,134,103,44,33,73,195,221
181,134,98,44,36,75,265,212
164,128,93,45,32,50,230,198
179,124,92,46,33,50,226,207
174,97,86,41,32,51,230,192
149,97,83,39,31,52,240,202
157,109,84,40,28,72,183,184
167,112,79,42,29,82,250,179
152,122,77,45,31,89,275,174
161,153,95,48,31,86,288,170
168,166,95,53,29,83,288,157
170,158,98,53,29,67,285,194
181,149,88,51,30,60,261,230
185,140,88,49,31,49,297,242
177,105,73,50,31,49,288,233
181,96,81,49,36,54,276,240
175,117,79,52,35,60,298,209
162,131,94,49,35,60,316,212
168,136,88,46,32,60,266,206
180,136,89,49,33,63,265,208
186,131,86,47,29,58,254,205
214,120,83,48,29,62,239,234
210,114,62,50,27,58,216,224
227,120,86,55,30,71,217,214
225,191,94,55,34,70,211,206
213,197,93,63,36,72,224,203
177,194,90,61,36,87,239,199
207,192,91,62,39,95,280,176
193,191,74,58,39,104,327,172
222,135,83,63,38,108,328,174
242,125,120,58,38,111,329,189
250,121,125,59,36,98,326,205
246,128,130,61,37,94,337,206
233,122,141,60,34,73,317,214
225,165,127,59,33,64,327,222
232,170,92,53,31,59,338,237
233,187,89,52,31,55,336,194
211,181,82,48,28,45,264,184
222,197,62,51,28,50,238,180
212,150,77,56,31,58,266,205
189,148,94,61,35,65,265,206
184,142,94,62,38,69,328,237
191,144,98,62,38,73,339,257
179,116,102,60,38,72,335,279
149,111,94,55,35,72,336,252
144,112,78,53,34,74,327,226
149,116,83,54,35,73,257,221
136,107,86,54,35,69,242,203
138,114,97,54,34,75,270,175
159,112,93,46,34,70,240,188
177,122,93,45,32,64,240,200
168,111,85,38,26,58,224,177
182,120,81,39,26,68,290,181
196,121,62,53,27,67,263,177
201,131,77,59,26,71,255,174
177,116,77,57,24,65,238,159
189,146,86,60,27,74,268,171
180,145,103,63,27,69,204,166
161,146,114,55,26,63,200,159
141,140,104,48,28,69,203,141
197,145,115,53,32,78,229,224
197,123,112,51,29,74,227,224
203,118,94,45,33,77,222,222
206,117,92,45,35,80,225,230
204,116,96,47,32,68,212,238
177,109,80,42,31,73,196,172
160,107,75,43,32,77,143,150
142,109,72,43,29,72,138,144
150,112,100,50,28,67,126,178
154,154,102,60,33,74,133,222
145,161,105,62,33,63,122,213
154,164,120,75,33,53,139,214
174,168,145,75,33,53,176,244
179,166,120,70,32,61,203,223
183,139,120,64,30,61,223,189
189,145,129,67,29,57,221,191
198,138,127,55,29,58,231,208
201,134,109,55,31,72,266,194
189,133,107,52,31,69,266,188
192,126,105,48,31,68,258,181
176,107,95,51,30,77,259,184
155,96,114,55,30,88,252,188
144,96,104,56,30,75,191,210
160,103,111,54,30,71,158,212
153,100,110,58,28,72,173,206
158,116,109,54,29,64,171,209
172,117,73,51,29,53,178,202
160,117,72,52,26,56,172,174
151,128,100,57,28,62,180,180
145,129,110,55,26,60,151,179
145,117,110,50,26,66,201,221
134,118,113,47,26,61,196,208
129,117,112,44,26,57,193,204
118,92,79,40,26,51,190,190
130,91,91,41,27,47,205,190
124,94,90,41,29,50,162,157
127,110,87,39,30,59,209,182
146,103,92,42,30,57,215,182
149,117,122,47,32,59,209,193
142,121,107,43,36,81,210,195
142,116,109,47,34,75,240,182
137,95,112,48,33,69,196,177
120,100,116,45,33,70,186,163
123,82,92,44,32,95,200,155
122,75,92,47,29,86,241,152
146,84,128,56,31,86,213,152
148,85,132,59,29,88,211,143
156,96,132,65,33,92,249,213
156,114,127,64,32,73,277,224
158,123,123,61,34,82,252,224
136,131,84,50,35,98,312,232
144,134,70,47,35,99,333,248
160,122,75,39,32,98,321,198
178,111,101,41,32,93,302,246
226,102,106,44,35,79,300,306
240,96,102,47,33,57,234,306
235,94,112,52,36,49,202,297
219,102,107,53,38,71,211,311
213,112,98,51,39,70,223,265
168,114,94,49,34,71,198,290
155,105,98,47,33,74,194,285
151,105,91,46,30,79,197,286
155,96,84,46,26,61,229,264
140,77,66,47,28,75,217,291
136,71,81,47,27,66,222,198
123,78,79,52,28,63,228,188
135,82,79,50,30,67,246,178
135,93,78,52,31,62,200,258
140,106,100,55,27,44,186,233
136,107,88,58,30,48,177,270
173,108,94,57,37,56,170,314
180,107,98,59,41,56,161,322
181,132,120,64,41,57,141,267
180,139,107,60,40,63,148,312
191,140,106,63,39,68,155,311
166,136,109,64,35,83,200,279
169,136,113,64,30,76,181,282
172,120,139,59,30,75,188,297
173,105,140,60,30,70,179,263
167,104,140,53,30,67,233,227
173,102,136,55,31,47,217,232
151,101,138,51,32,50,242,232
146,91,114,48,33,55,265,208
137,89,109,46,33,57,268,186
119,85,110,48,33,58,227,217
106,84,115,39,30,55,244,224
125,87,105,53,32,57,222,245
119,81,91,57,37,55,215,268
163,93,111,63,41,64,211,313
170,97,111,63,41,60,201,288
162,96,108,62,41,69,168,279
152,97,119,51,39,71,169,254
152,102,130,50,35,71,176,243
109,88,112,45,31,64,180,192
91,89,111,44,30,65,185,209
111,98,104,45,31,61,173,201
112,94,96,50,28,58,190,197
144,90,73,57,30,55,163,201
148,116,70,59,29,57,161,188
156,126,65,58,29,58,152,166
144,122,63,61,32,52,151,182
142,124,53,56,33,61,158,197
120,126,77,47,31,61,148,191
121,104,79,45,31,57,140,197
123,86,82,50,34,56,139,197
135,86,84,45,28,56,147,170
143,82,86,46,28,48,127,140
130,81,56,43,28,54,129,127
122,77,49,42,27,54,133,114
114,77,47,36,24,52,137,127
107,83,63,42,25,57,130,185
103,82,61,42,28,59,118,192
106,83,61,40,25,52,130,185
105,81,65,37,26,54,135,182
109,86,82,43,27,57,159,200
106,86,76,42,27,47,153,157
100,85,76,42,27,36,151,150
100,87,75,42,28,38,139,149
128,123,76,48,30,46,165,194
138,149,64,56,31,49,153,181
173,190,108,72,39,66,166,313
176,200,113,85,41,72,173,321
184,196,117,119,57,72,179,327
171,177,145,130,57,71,147,309
192,173,141,139,62,79,168,354
161,126,123,145,59,71,190,255
195,153,133,141,59,65,194,277
193,162,134,117,49,71,190,286
193,163,103,108,49,67,192,287
163,145,105,98,46,57,171,216
162,146,98,105,52,62,165,238
128,107,73,105,60,71,166,260
125,107,77,101,59,64,162,252
127,128,84,99,61,64,161,248
127,133,84,105,59,57,151,249
124,130,71,81,56,54,133,220
138,138,73,81,51,45,112,175
134,125,62,88,51,45,116,169
129,115,48,89,52,46,116,168
129,107,50,85,50,49,128,192
125,106,49,83,46,42,114,192
93,90,48,78,40,47,119,169
102,91,51,70,35,49,124,165
102,76,56,69,39,48,131,170
95,86,51,59,44,46,115,150
94,85,52,61,42,42,108,152
88,86,59,61,46,36,104,144
72,84,67,64,48,37,91,140
66,86,79,96,45,39,83,145
66,82,81,97,46,38,90,146
68,92,86,93,52,37,95,134
73,90,84,93,48,41,98,129
93,115,87,115,53,41,97,154
91,128,100,107,56,41,105,153
108,246,132,134,57,41,100,156
111,301,194,160,53,41,97,161
113,362,225,167,63,38,100,207
104,385,232,170,74,58,142,207
123,389,224,171,75,60,168,204
106,326,206,156,71,63,169,192
104,278,155,164,81,80,221,218
118,204,110,163,80,79,228,243
132,152,103,155,69,71,217,250
127,130,101,157,78,69,209,253
141,140,103,158,92,77,226,255
148,136,89,123,83,70,198,283
139,136,82,124,84,70,189,246
121,133,56,121,93,66,178,222
121,139,50,118,97,72,159,226
104,127,42,121,92,60,149,240
128,156,55,139,101,51,156,201
142,154,60,134,99,48,157,197
180,202,64,131,92,48,154,205
189,205,62,123,74,39,154,220
203,205,64,108,70,42,140,244
185,180,53,84,55,42,107,230
174,171,44,81,53,44,103,235
136,119,49,73,50,42,109,234
112,108,49,88,61,46,124,209
106,126,51,96,58,46,119,169
102,127,55,98,60,43,104,162
147,137,57,94,58,41,100,164
155,126,50,90,57,39,87,161
157,133,52,70,45,33,82,167
148,117,51,62,43,29,81,167
157,129,49,57,36,26,82,179
116,124,59,70,34,28,79,176
108,120,61,81,32,30,81,190
104,117,62,82,34,33,62,200
97,117,61,80,34,33,59,192
100,116,60,77,36,33,54,177
121,107,49,65,34,33,53,184
118,103,45,49,41,57,55,194
118,92,37,35,55,101,53,173
146,119,35,30,67,107,54,179
150,104,35,25,72,111,59,243
137,102,29,25,74,113,57,219
135,104,31,25,70,110,56,199
135,105,31,26,60,75,49,203
104,78,30,28,51,84,86,209
74,82,34,29,49,89,102,149
73,89,36,28,45,87,110,157
68,85,36,27,47,82,121,154
84,86,39,28,51,87,131,176
86,78,39,26,43,71,120,214
89,67,34,27,44,97,122,222
94,53,31,27,46,115,179,260
99,57,31,29,48,122,179,265
87,46,28,26,45,118,264,260
93,45,29,27,47,127,274,242
113,43,29,23,44,114,320,239
127,41,31,26,49,121,307,234
136,37,33,27,50,129,316,265
139,37,33,29,51,139,247,295
134,35,33,29,51,133,307,285
129,36,32,30,52,138,269,286
126,35,31,30,50,119,294,289
123,36,28,31,52,108,319,266
119,36,29,30,50,97,324,219
119,35,28,29,50,107,258,205
111,33,29,28,53,123,244,217
95,39,29,29,59,136,247,173
103,37,27,27,54,130,287,186
104,37,28,25,52,128,299,203
114,40,30,27,53,124,306,240
110,40,29,27,46,95,327,219
110,38,30,25,43,93,312,227
87,39,31,24,43,92,251,208
91,40,31,25,41,96,243,201
96,37,31,25,39,88,249,178
103,36,30,25,43,88,227,181
99,38,29,22,39,79,278,214
102,38,29,26,40,85,285,212
116,40,33,26,44,88,283,216
107,42,32,27,45,90,325,202
113,42,33,30,44,90,335,199
124,38,32,35,41,103,273,158
133,38,37,38,41,101,310,170
119,36,35,41,40,97,307,158
118,32,37,43,45,100,253,190
121,36,38,45,43,97,234,219
114,35,38,43,46,85,288,219
102,34,34,39,47,85,226,206
107,37,36,36,44,82,287,225
112,46,39,34,39,74,318,211
94,44,36,30,42,79,330,185
106,45,36,28,38,64,291,196
110,49,35,29,35,64,294,196
111,45,35,28,34,71,274,199
104,36,34,27,34,75,297,207
113,41,41,32,34,80,346,240
106,38,41,34,36,82,342,228
129,38,41,32,38,81,351,234
127,41,40,35,38,78,438,215
138,42,36,33,35,79,476,208
162,51,34,32,41,66,464,192
168,50,34,31,38,59,475,193
153,54,32,32,37,58,468,185
168,59,34,31,39,60,406,200
171,62,36,33,46,92,336,198
163,53,34,29,42,96,316,201
162,54,34,29,43,102,306,199
171,52,37,30,43,103,341,242
177,51,37,29,44,105,309,244
176,48,37,30,38,80,306,242
160,47,36,30,34,74,295,227
159,55,40,31,33,81,293,256
156,53,41,33,34,94,385,234
135,55,40,33,32,94,391,242
133,57,40,34,35,95,385,240
129,62,41,33,34,95,385,240
117,58,39,33,38,99,443,210
109,57,35,31,38,88,371,206
112,54,33,30,36,84,362,207
94,58,36,29,34,84,390,216
106,56,37,30,34,85,394,199
110,54,35,29,32,64,342,200
119,58,36,30,30,58,310,191
107,58,38,28,30,52,294,153
107,58,53,30,31,47,243,131
101,63,59,33,34,46,260,160
102,73,61,32,33,52,340,155
98,70,63,35,33,60,341,176
114,68,62,36,34,64,349,189
126,67,47,33,32,71,391,223
142,63,40,30,28,72,418,221
135,55,44,36,30,72,333,239
132,54,40,33,31,68,335,235
177,65,46,37,30,71,344,293
214,68,48,41,35,65,339,342
208,74,50,43,39,66,317,331
208,76,45,38,36,63,313,319
204,76,45,38,36,67,298,311
171,79,42,35,43,87,299,276
139,74,40,32,41,91,252,184
133,69,41,29,37,87,188,185
155,74,45,30,41,96,195,241
176,81,70,34,44,102,279,281
163,71,69,33,36,84,273,270
143,72,69,32,36,81,258,267
140,71,66,34,37,85,292,276
124,71,66,33,34,80,293,223
96,65,39,29,32,67,332,198
110,68,40,30,33,74,326,201
105,65,39,30,33,72,331,197
112,69,39,29,34,71,343,197
117,59,36,27,35,68,354,218
114,60,36,28,34,77,297,188
116,60,38,29,34,79,293,162
121,61,37,28,36,87,322,180
125,56,36,28,37,90,346,205
124,55,36,29,34,90,336,194
132,56,36,27,35,84,292,191
129,50,32,25,39,75,282,198
126,50,33,26,36,96,268,191
125,50,33,26,38,106,192,147
116,50,34,27,39,105,189,166
124,52,38,29,39,111,202,190
115,52,37,28,35,126,214,196
116,53,39,29,39,106,199,197
106,56,40,30,37,97,192,203
116,55,40,29,36,103,251,213
117,48,35,28,40,116,267,210
120,48,35,30,43,102,256,211
119,44,31,30,39,99,257,211
140,45,36,30,37,101,275,212
130,45,34,30,39,98,217,169
115,46,37,29,37,79,232,145
135,51,37,29,33,74,259,140
137,54,40,31,36,79,265,141
115,55,36,28,37,73,235,138
116,56,38,30,41,82,315,145
130,59,36,30,40,90,292,154
121,59,35,28,41,99,334,163
167,70,38,28,41,95,340,172
175,68,36,27,42,99,342,170
176,69,37,26,38,101,295,173
198,79,40,28,38,97,306,190
222,81,41,29,38,89,254,183
188,75,36,28,36,90,228,178
196,73,37,31,38,84,228,196
203,72,35,30,35,81,239,201
172,62,31,30,34,76,247,189
139,59,34,30,35,82,253,218
142,54,33,29,36,97,254,221
123,54,32,28,33,99,256,213
105,55,34,32,36,88,235,206
99,51,34,31,34,89,231,193
90,57,32,30,32,87,224,147
85,54,33,32,33,78,222,169
104,55,33,30,41,99,289,233
108,58,33,28,40,100,282,238
123,60,33,30,40,97,295,245
120,51,30,29,42,100,292,256
133,57,30,27,40,94,296,279
124,57,30,29,34,82,234,221
121,55,29,28,35,81,247,223
108,52,28,26,34,83,209,235
107,49,29,28,33,79,198,227
103,43,29,26,33,89,254,189
104,44,30,26,31,86,273,196
104,45,31,26,30,94,260,186
113,46,31,26,31,95,277,180
109,44,31,24,30,99,267,170
122,50,31,28,29,86,205,157
114,45,32,27,31,81,187,145
116,42,30,29,34,75,200,155
155,48,30,29,36,77,205,147
182,59,32,32,41,68,241,176
166,52,30,28,43,76,280,181
175,58,32,31,43,87,288,189
199,60,32,30,45,100,288,178
170,54,32,30,43,98,267,180
156,44,29,28,39,105,240,157
171,47,30,28,37,100,216,160
176,42,26,27,35,96,257,153
153,40,24,24,28,76,301,152
155,38,25,26,32,87,340,169
151,36,25,25,33,88,339,188
141,37,25,25,32,91,334,179
124,37,27,25,30,86,307,187
120,38,28,24,31,87,308,194
120,42,28,26,30,89,294,198
110,42,29,25,30,94,298,185
108,42,29,26,32,88,295,185
108,43,28,25,38,91,293,178
109,42,30,29,42,93,275,180
105,44,31,29,42,82,250,154
119,46,34,32,41,66,242,155
109,44,33,34,40,77,301,142
111,42,33,34,44,84,381,135
114,42,34,32,45,99,359,142
107,37,32,31,43,100,350,141
91,36,28,29,44,109,363,141
93,34,28,28,45,109,354,178
105,51,30,28,36,98,258,189
97,50,31,27,31,96,260,194
109,54,33,28,33,96,302,195
125,53,34,28,32,88,296,216
124,54,33,26,32,90,253,186
117,39,31,28,33,92,297,185
112,37,28,29,34,81,309,163
107,36,29,30,34,79,268,157
83,33,28,31,36,78,262,116
81,37,30,31,40,71,287,119
69,37,29,30,40,68,267,108
74,42,30,30,39,57,247,120
66,40,27,28,36,54,248,118
86,43,29,27,37,69,257,145
89,39,29,25,31,69,241,144
95,39,32,23,32,78,212,157
99,35,30,22,29,83,194,160
104,31,29,22,33,93,206,162
122,32,28,21,30,84,194,151
130,32,25,23,30,87,165,163
127,33,24,25,29,88,180,149
122,41,30,29,37,89,228,136
118,41,30,28,35,82,238,145
87,39,30,31,37,82,279,142
75,42,32,32,42,79,284,130
95,42,34,32,43,68,284,129
100,34,31,31,38,65,359,141
107,34,31,31,38,58,349,134
115,33,32,27,34,54,332,156
113,42,31,48,31,58,354,153
116,58,39,65,29,56,348,207
123,70,96,158,53,58,262,215
117,77,105,200,114,57,268,231
127,104,123,237,146,73,296,222
134,114,136,285,153,68,278,232
123,113,149,305,163,75,289,192
122,112,135,291,167,69,277,218
135,116,146,289,170,79,322,239
119,107,159,274,184,66,309,236
115,97,162,242,215,68,309,236
117,97,189,530,430,70,295,231
117,95,215,696,510,99,318,198
107,90,223,755,526,94,298,153
104,77,228,784,518,99,379,150
103,74,227,799,514,101,404,140
123,70,96,158,53,58,262,215
117,77,105,200,114,57,268,231
116,66,199,640,368,119,423,193
110,58,173,484,243,111,416,189
102,58,162,411,210,115,427,200
105,55,129,351,225,114,337,191
111,56,129,429,248,128,327,210
85,56,126,438,232,117,318,175
81,58,170,409,255,109,366,206
83,55,172,434,281,114,347,202
87,52,177,441,272,117,353,207
94,45,174,335,245,123,341,184
115,51,174,327,249,172,417,187
126,62,139,332,270,213,358,150
126,68,140,289,327,296,355,134
127,76,147,388,372,359,355,148
119,79,154,381,390,385,348,153
121,76,170,413,407,376,320,162
116,66,193,405,385,365,331,172
126,64,185,385,305,304,314,189
123,56,187,343,264,227,307,176
122,65,209,367,239,177,330,178
121,76,222,326,209,167,313,201
131,82,199,310,225,148,308,200
123,85,205,339,237,173,305,186
117,89,200,282,223,177,301,182
118,85,182,252,206,168,290,197
100,76,164,242,197,156,212,157
91,70,168,242,171,179,194,162
97,63,161,196,153,192,184,166
105,63,161,176,158,197,196,167
126,67,201,211,182,230,230,170
126,71,214,231,184,237,239,173
127,73,225,245,187,241,244,164
119,71,230,248,222,223,249,157
112,73,229,249,235,250,264,162
95,75,191,209,248,281,237,133
99,76,171,199,249,280,228,114
87,73,179,175,242,270,221,101
95,82,195,158,199,271,229,109
116,101,287,157,175,250,209,163
107,92,286,167,157,192,164,176
104,95,295,197,159,180,154,176
114,100,279,199,166,165,154,178
117,105,285,218,202,144,146,173
111,98,232,239,203,138,143,134
109,101,230,236,181,133,144,105
115,97,215,207,171,137,147,103
102,95,209,210,179,142,161,100
92,85,182,198,146,141,161,98
79,67,128,181,136,124,193,87
75,64,131,185,147,109,199,91
100,63,123,182,184,105,233,123
102,61,157,230,204,97,229,121
103,62,164,264,228,126,268,122
105,61,159,250,228,131,236,117
110,64,149,241,229,137,250,124
93,72,166,241,200,144,217,108
116,70,131,223,174,157,219,127
117,67,115,203,138,135,157,131
112,74,123,210,163,127,149,140
124,81,133,222,173,147,121,137
120,77,139,261,188,140,128,131
110,81,151,256,230,145,118,129
105,82,148,234,232,157,132,129
106,76,145,224,237,155,141,118
88,71,145,234,238,140,143,112
82,66,123,214,265,154,130,113
70,63,134,206,237,154,225,104
77,62,139,206,241,148,246,107
91,64,151,219,228,151,244,123
93,58,153,198,209,155,243,128
92,65,178,225,218,176,278,123
88,64,167,237,213,167,220,120
108,66,181,255,222,163,205,152
105,67,183,293,238,170,202,146
105,72,181,313,258,164,200,151
108,70,178,313,241,133,149,161
116,74,174,299,233,130,136,160
98,71,168,282,224,124,123,141
109,80,165,283,210,108,134,152
108,79,174,275,191,102,137,148
100,79,161,237,148,88,158,136
94,76,163,245,166,104,161,148
101,83,171,285,191,135,189,154
91,73,188,276,219,150,196,137
98,87,200,283,252,149,198,132
99,85,200,284,250,150,186,150
101,90,206,275,251,150,191,166
100,87,187,263,268,151,231,184
105,92,163,231,272,144,229,196
106,77,134,212,256,144,227,205
117,75,127,226,261,152,244,204
128,73,142,232,274,142,251,199
129,69,142,200,232,117,187,178
120,57,152,202,186,109,191,172
135,69,185,246,170,106,192,199
130,76,189,268,197,88,172,191
126,78,183,313,271,103,165,188
127,90,211,352,274,94,166,186
132,100,212,363,294,92,152,192
124,91,182,331,305,113,140,156
130,87,186,331,322,120,131,177
117,87,190,283,240,109,115,178
110,76,188,268,243,121,108,168
100,63,198,255,264,121,103,173
94,69,209,326,262,106,151,170
98,72,228,345,248,112,189,183
107,75,221,355,276,128,196,178
103,80,218,351,277,128,190,177
100,91,228,369,247,132,191,165
88,98,237,392,327,152,159,168
67,100,221,365,315,141,113,141
65,98,242,401,301,129,91,132
109,95,249,407,304,121,114,181
114,85,230,400,304,120,113,184
115,83,215,365,228,95,108,183
131,82,220,352,223,101,109,169
137,79,201,348,241,110,115,165
107,78,197,350,247,110,92,117
103,87,193,351,263,106,81,103
123,83,249,438,300,118,92,107
137,86,250,522,328,142,100,147
127,89,253,511,320,132,101,160
136,89,241,502,311,134,105,150
141,85,239,496,295,136,107,147
132,80,177,390,242,120,97,149
100,67,165,266,190,84,83,129
101,62,147,242,184,86,72,108
89,62,148,249,185,88,66,117
82,57,169,230,178,82,64,144
78,66,163,219,168,82,70,158
81,69,153,220,165,81,64,151
89,72,159,213,152,85,61,154
86,71,177,238,204,96,62,158
84,69,153,256,209,103,64,132
78,68,164,274,248,113,57,108
84,72,182,322,254,112,57,102
77,66,197,339,253,107,61,113
78,64,209,391,258,108,64,98
88,68,215,409,283,114,65,122
111,70,221,405,261,102,69,186
112,65,225,413,291,110,74,191
109,68,227,417,306,115,70,190
107,73,205,352,267,106,65,191
105,69,198,315,230,91,65,183
77,69,200,344,244,108,62,119
65,72,187,291,210,104,60,106
73,70,160,264,199,100,59,99
79,65,158,259,196,94,56,123
75,74,185,295,221,106,54,118
79,76,189,298,211,87,52,117
95,76,199,315,221,88,55,148
105,79,204,314,234,88,62,156
105,79,216,349,261,98,66,143
118,71,194,331,246,88,63,145
125,69,187,288,227,91,63,158
120,69,177,297,233,93,64,131
114,69,180,314,205,86,54,115
120,71,164,263,206,79,47,111
109,69,184,302,219,92,53,106
106,64,169,298,221,91,56,147
103,66,165,279,222,87,60,164
99,66,180,259,223,94,63,168
92,69,215,361,217,95,66,174
88,68,200,330,204,80,63,187
78,69,217,338,207,80,57,162
83,65,230,345,196,75,47,158
89,61,222,369,228,85,51,165
95,60,186,293,213,81,45,166
103,60,195,324,217,90,51,155
102,63,194,353,215,92,52,145
98,64,202,362,225,95,52,140
94,65,190,339,228,84,44,140
95,63,184,335,237,86,48,134
99,73,181,376,254,91,51,144
100,73,168,354,249,88,51,144
104,70,129,324,237,83,52,140
111,73,128,323,203,80,54,140
102,71,141,320,184,90,59,144
102,67,152,242,165,75,49,132
110,62,156,234,178,77,51,119
121,63,182,250,175,75,48,136
111,60,186,271,193,77,52,125
114,61,182,304,191,61,50,119
106,60,175,309,202,67,51,118
98,60,174,315,200,73,53,126
74,64,156,338,210,84,57,121
78,60,151,338,191,86,53,127
73,58,135,294,177,79,47,119
72,53,133,295,159,78,47,126
90,53,137,332,189,85,47,140
97,44,132,323,192,81,44,159
94,47,130,304,200,78,44,153
96,45,140,353,234,84,46,162
96,49,142,355,227,86,48,158
85,63,182,372,248,78,46,149
84,72,204,434,269,80,45,110
86,83,255,498,475,92,50,106
96,93,278,510,488,98,54,100
111,97,294,568,505,103,55,136
112,94,282,607,516,105,58,246
120,93,278,573,523,106,62,285
119,98,279,583,395,99,61,294
118,99,286,671,409,100,65,294
107,98,271,643,447,98,70,285
118,96,256,590,411,94,69,199
107,90,248,600,388,85,67,160
109,84,225,641,378,85,72,154
102,80,209,550,394,78,68,161
102,85,272,631,463,85,62,179
84,90,318,709,557,99,64,182
84,96,323,727,564,102,67,166
92,88,321,660,559,103,62,170
93,80,308,663,520,98,65,180
90,72,246,561,432,94,64,149
97,71,233,606,364,94,61,140
97,63,223,597,363,92,59,142
87,80,251,751,411,97,57,134
88,82,270,759,446,104,54,137
91,83,286,807,474,103,65,159
92,77,246,732,491,90,78,166
94,77,257,759,504,95,77,161
104,68,235,675,477,91,79,167
106,77,291,787,507,103,83,144
105,72,273,740,466,96,82,129
98,71,279,720,431,100,79,115
100,77,300,700,411,99,84,117
90,74,282,643,372,96,84,102
93,62,198,447,268,73,77,108
101,66,218,473,259,72,91,142
107,63,208,496,201,64,89,151
104,66,179,553,269,79,93,160
104,65,191,608,300,90,110,158
103,73,201,641,330,98,117,177
93,70,192,656,363,101,127,140
85,81,227,712,370,102,123,144
89,79,230,651,356,95,132,146
94,85,228,645,377,101,166,154
82,91,266,668,399,115,194,125
85,105,270,640,384,114,182,126
82,103,259,625,457,119,185,115
82,108,281,690,466,130,180,109
76,104,288,649,432,117,154,94
76,92,249,610,394,106,125,98
68,79,250,683,411,115,147,125
82,83,288,716,468,128,195,122
73,70,258,650,471,114,192,110
75,66,244,656,485,118,195,122
89,76,265,674,522,135,213,123
92,86,298,727,557,159,233,108
84,87,284,698,510,170,220,116
92,91,280,683,514,187,241,129
115,103,310,695,525,191,231,132
124,106,325,771,548,201,289,165
123,96,292,672,515,186,269,161
125,88,267,641,454,165,253,157
119,85,278,688,439,143,238,149
92,69,248,742,410,144,263,150
71,57,206,638,349,108,179,113
70,65,234,673,319,104,174,107
59,65,224,622,317,106,178,100
71,64,206,565,313,121,203,101
73,65,205,464,348,117,185,83
77,74,213,503,364,115,177,92
78,82,281,596,397,125,191,104
89,89,285,618,428,141,209,124
86,92,303,660,416,150,300,123
87,94,301,648,385,145,298,127
90,94,311,672,383,146,300,137
91,79,221,572,342,130,293,131
90,69,220,560,303,115,291,117
93,65,215,589,337,95,177,116
95,63,219,626,328,95,165,111
87,66,242,682,400,100,194,120
87,71,251,717,421,118,229,116
84,72,245,720,414,114,217,116
78,71,238,668,394,108,213,117
77,72,239,705,424,143,252,118
76,63,197,635,380,157,295,103
76,58,190,538,354,146,271,109
73,55,184,541,379,148,277,107
77,62,189,565,391,152,276,118
90,68,187,475,426,158,271,132
87,77,213,556,458,192,223,131
83,82,232,584,473,209,235,126
86,96,266,694,533,218,223,138
78,96,266,684,506,217,225,126
63,93,267,717,475,195,265,129
59,87,252,661,432,144,298,122
60,88,242,657,459,139,308,129
53,77,216,540,414,139,326,113
58,72,201,571,424,151,330,113
47,69,190,513,402,161,320,93
52,60,166,442,377,181,291,86
59,49,135,419,326,167,350,91
61,51,139,432,259,157,346,93
61,50,139,335,247,150,349,113
89,47,134,323,240,173,380,151
87,45,128,316,205,153,372,150
83,47,143,332,226,150,313,142
83,41,122,288,219,157,312,140
90,40,116,310,224,149,310,135
68,47,142,382,267,124,259,97
72,51,153,382,264,130,254,92
74,51,152,379,266,130,225,96
95,50,164,426,318,122,222,110
92,53,172,443,328,190,259,120
92,46,151,376,305,181,229,123
92,52,154,448,336,180,221,124
91,49,154,445,317,180,247,125
80,51,142,406,269,224,426,132
79,52,137,407,272,194,433,120
78,57,141,417,267,192,425,109
77,54,157,349,242,195,436,111
93,61,158,353,249,213,434,116
83,59,152,322,257,177,284,97
75,57,145,285,231,157,250,90
73,57,152,304,219,157,274,93
83,65,150,314,221,162,274,102
71,61,139,312,214,164,280,101
82,65,140,341,210,146,249,126
86,68,141,353,208,155,263,128
86,67,129,360,250,175,246,132
74,53,96,332,243,169,259,128
72,53,105,335,254,167,266,128
63,54,106,338,267,166,272,104
65,51,123,346,264,167,275,103
66,49,143,340,234,150,270,100
77,53,148,349,240,148,273,110
71,57,182,413,234,124,254,105
66,51,178,402,210,133,257,109
65,55,170,388,206,126,235,115
65,56,156,362,232,124,246,118
50,58,163,384,251,132,234,111
56,55,125,324,273,128,223,108
66,55,152,331,289,119,226,102
66,54,157,356,298,117,241,124
73,64,179,436,326,115,245,134
77,60,173,454,332,106,225,130
76,58,198,492,342,114,248,134
78,64,192,493,351,159,311,136
83,63,186,472,341,163,319,107
81,52,176,421,295,162,313,85
77,53,174,377,259,157,317,88
81,62,186,406,298,158,303,110
76,62,195,404,290,123,225,133
67,61,203,416,297,109,179,136
65,61,196,401,284,100,167,140
70,70,209,425,317,127,211,137
61,61,169,321,236,122,210,123
58,57,157,316,208,116,228,101
54,56,153,304,199,123,223,92
54,56,152,300,227,146,236,85
49,50,135,278,204,140,187,83
48,54,150,279,211,143,180,69
50,56,138,251,218,142,168,66
73,63,158,283,243,138,171,79
77,64,172,341,253,156,198,90
79,66,173,374,245,166,222,100
80,67,175,399,243,168,231,104
82,66,181,413,240,177,352,115
68,61,155,392,226,178,352,137
64,63,140,353,204,150,333,139
62,61,151,343,230,134,318,132
64,63,150,339,257,140,323,140
65,65,154,334,264,134,218,135
60,64,173,381,308,137,227,110
56,60,173,377,313,129,221,105
57,53,154,322,280,117,220,108
58,45,139,284,257,115,224,98
56,54,169,348,305,141,190,85
55,56,159,307,251,134,176,77
60,60,168,295,243,135,172,87
66,63,177,307,257,138,166,82
67,64,177,321,269,136,171,87
64,53,137,242,202,114,165,84
71,52,140,247,200,116,172,94
71,48,128,250,199,120,175,80
69,51,121,258,223,127,182,101
74,54,123,264,202,128,204,102
71,52,118,250,192,119,197,108
66,47,96,219,199,126,184,100
62,48,94,244,217,139,195,97
68,52,113,260,213,145,239,108
62,58,136,299,245,149,219,98
66,59,141,304,249,146,217,98
70,60,150,307,240,148,220,107
81,62,156,289,215,129,234,124
71,55,142,312,218,112,185,100
79,52,132,298,207,111,177,109
87,56,137,321,214,114,189,121
83,54,130,320,218,98,204,118
79,57,137,405,278,114,176,104
84,54,134,370,254,114,174,105
95,56,135,338,235,115,195,106
89,56,147,335,238,119,199,99
91,59,151,354,259,119,179,95
87,57,151,266,203,110,178,93
88,62,154,272,210,113,185,102
77,54,139,258,205,90,153,112
80,54,114,225,190,84,138,118
77,54,115,188,151,93,147,121
80,61,96,154,146,91,145,124
91,61,88,147,135,87,146,126
85,62,91,158,143,86,178,136
78,60,99,160,141,80,168,128
86,65,130,256,233,84,166,137
90,61,140,295,237,102,200,147
74,57,140,311,237,104,195,144
72,56,142,332,230,100,156,127
84,57,141,348,236,106,163,129
81,53,111,311,176,105,177,130
82,54,100,333,180,99,213,120
82,53,106,317,180,115,222,110
83,60,103,293,183,125,230,102
77,60,109,298,184,134,231,101
84,61,117,323,176,132,266,109
92,64,124,281,155,138,271,118
91,66,131,279,145,127,264,122
90,58,135,286,147,124,256,120
96,61,137,304,163,120,270,131
92,62,142,271,166,127,234,107
84,62,157,330,213,131,200,95
88,66,161,355,218,132,221,90
84,65,161,367,217,129,216,89
82,61,157,345,222,137,218,90
82,56,143,331,208,129,222,104
74,55,133,298,174,111,198,105
70,53,129,289,202,109,172,113
71,56,120,309,237,121,173,122
61,57,118,302,223,125,165,103
50,58,125,319,262,129,156,89
53,61,133,308,266,134,139,87
56,59,123,299,252,139,161,81
69,57,123,247,218,131,182,75
73,55,118,234,210,108,163,75
83,54,109,201,151,97,162,90
93,49,83,171,152,121,179,133
93,53,90,163,161,121,160,132
89,53,92,170,153,121,136,135
89,57,109,195,171,141,155,142
83,56,106,199,186,145,157,133
66,51,110,210,182,121,150,91
60,53,119,257,192,115,163,97
54,55,121,262,206,116,178,92
63,52,117,261,212,99,202,91
62,58,137,313,218,117,206,114
99,60,141,330,221,127,205,125
114,57,140,303,216,128,201,129
118,57,139,295,210,127,202,140
114,58,132,290,191,123,170,138
116,49,113,234,173,105,166,135
96,44,102,194,156,90,166,129
80,44,100,237,152,105,158,125
70,46,127,241,153,113,156,110
76,44,138,283,188,125,178,117
69,47,144,284,189,124,175,100
63,50,143,291,188,129,214,105
81,51,148,250,170,122,224,112
90,51,136,271,197,125,236,123
87,55,139,227,180,110,212,108
92,63,153,275,194,113,212,110
91,61,151,293,195,111,171,101
78,61,143,282,208,116,206,105
77,58,143,262,194,111,188,99
71,54,134,274,186,125,247,110
63,45,126,240,192,127,243,116
66,45,126,234,212,138,238,135
89,49,140,237,203,133,222,134
90,53,133,245,185,125,228,156
93,53,123,238,184,109,167,154
95,53,113,234,172,110,188,159
101,56,119,213,161,103,193,156
81,49,103,215,164,118,185,150
78,47,102,246,201,122,210,142
90,54,119,278,261,172,241,144
95,60,131,298,279,167,221,156
97,66,158,302,270,160,219,148
99,69,156,306,273,160,210,141
99,67,151,269,249,157,170,131
100,66,158,238,184,106,125,127
108,63,159,252,181,112,170,102
100,60,163,359,212,117,203,93
105,65,174,385,206,105,210,99
102,67,184,413,227,113,227,91
95,72,190,440,254,111,235,90
86,70,196,434,249,106,204,88
83,63,168,359,228,108,167,94
80,58,157,330,228,104,160,87
81,55,148,323,207,93,140,79
77,49,130,309,222,98,133,77
79,57,128,307,231,108,134,81
79,59,138,332,263,105,140,82
73,58,136,354,268,101,163,102
77,69,160,342,267,114,194,121
87,69,159,346,261,127,190,123
82,65,156,340,247,123,198,118
82,66,151,296,200,120,203,118
85,70,191,299,219,125,185,116
81,63,184,331,253,129,168,102
69,65,190,321,222,114,170,105
68,68,192,354,224,114,165,106
71,77,206,380,245,118,185,114
66,75,185,360,228,116,178,104
62,76,174,335,203,95,163,102
67,75,169,340,204,95,152,122
62,72,164,319,205,95,150,124
58,65,143,289,194,91,109,122
75,61,129,275,202,89,106,123
84,64,147,317,269,100,107,129
78,65,151,314,296,101,107,117
95,77,210,324,299,98,137,133
94,76,212,332,302,92,169,142
91,81,241,445,312,94,161,137
92,79,237,419,277,85,160,138
101,75,232,414,255,81,171,128
86,62,186,403,251,90,171,107
88,62,200,472,294,106,174,81
78,56,166,405,310,98,180,82
71,54,159,420,306,108,185,67
62,58,155,412,306,114,192,71
66,59,149,398,295,111,206,75
72,79,206,433,327,113,205,82
91,83,214,469,320,123,209,81
92,82,214,485,324,116,200,80
89,82,236,523,333,128,201,72
85,78,237,531,345,124,183,66
84,65,215,502,313,124,166,71
71,63,204,456,289,120,156,112
71,63,200,419,265,118,172,118
73,65,171,364,269,98,152,122
73,63,160,340,271,96,128,128
69,58,122,341,284,85,111,131
68,62,132,363,338,88,133,110
63,63,137,431,393,112,169,104
64,62,149,440,415,117,173,104
60,70,173,505,437,129,174,101
60,74,198,545,427,141,176,84
59,71,198,551,430,143,172,85
61,71,209,498,375,134,140,85
65,71,209,501,345,142,158,83
73,69,192,465,337,127,160,83
77,65,155,363,308,111,163,89
89,70,165,328,251,105,147,85
90,72,156,353,333,122,158,85
93,80,167,391,355,139,144,87
89,78,165,370,366,148,137,84
85,77,183,361,354,149,127,78
66,72,165,357,354,149,140,63
68,80,182,367,355,133,123,75
61,69,162,363,323,103,131,72
61,73,173,391,294,98,139,71
61,75,170,471,373,102,142,77
67,80,202,515,386,103,140,82
62,67,181,485,326,89,123,70
61,71,190,444,334,92,150,73
78,70,187,421,339,95,162,92
77,68,177,355,266,94,161,87
74,63,161,337,287,89,157,89
75,72,183,370,320,99,160,91
74,71,198,407,317,107,130,93
63,74,203,446,322,102,112,77
61,72,196,411,316,92,112,86
67,66,192,379,311,93,115,89
78,65,173,369,276,90,121,89
77,62,146,335,280,75,113,84
72,57,130,294,259,101,177,84
81,61,138,332,257,104,183,77
81,66,122,318,202,103,188,71
69,58,116,301,211,97,189,68
71,58,127,305,206,91,198,78
70,59,128,288,224,61,141,78
63,54,134,269,234,71,132,74
52,53,132,266,271,70,122,70
52,58,161,281,275,74,127,75
51,62,161,317,263,78,116,65
65,62,170,324,298,100,131,75
80,59,152,306,313,98,150,83
81,57,158,307,291,110,158,84
84,63,148,371,320,124,156,77
95,61,146,368,328,125,158,89
89,57,130,358,278,111,185,91
74,57,132,364,255,106,171,86
87,58,130,376,264,97,161,103
91,49,119,312,223,86,171,119
79,51,119,280,214,89,162,117
79,57,149,339,266,94,114,114
81,63,159,333,262,97,112,117
79,66,168,337,261,99,112,102
74,68,168,330,258,89,90,86
78,67,167,350,302,98,104,83
77,70,161,347,267,110,153,97
78,72,172,375,292,121,160,102
79,70,160,354,298,122,165,110
80,70,155,366,300,124,165,111
79,69,153,333,278,119,164,115
78,63,149,293,271,115,136,104
75,62,141,288,246,107,128,94
64,58,149,301,217,100,125,103
65,54,149,283,223,107,120,101
72,61,167,334,197,102,112,102
66,55,157,335,199,89,110,103
68,53,148,307,191,89,115,110
66,56,151,299,190,95,116,91
65,59,147,311,180,89,111,101
73,55,125,289,184,89,123,101
78,55,127,300,220,82,118,98
76,55,138,342,292,81,113,93
79,55,141,367,308,82,115,102
80,51,139,377,318,86,123,94
69,49,142,372,317,95,114,89
71,56,147,352,317,110,100,85
81,62,189,473,332,120,109,87
84,61,184,463,323,121,138,106
81,59,185,442,309,115,134,106
77,62,208,469,319,116,129,101
78,61,213,472,300,103,128,107
69,54,168,312,215,88,136,105
67,53,163,307,239,92,122,98
68,58,166,337,244,100,133,100
70,52,140,322,235,101,137,101
62,47,136,321,237,101,140,92
66,48,155,314,254,101,139,99
73,49,155,308,234,93,118,79
72,49,153,309,242,99,107,87
73,55,159,331,281,119,103,86
74,57,149,336,283,144,135,102
87,58,128,343,285,157,140,98
87,57,128,334,276,159,152,106
89,54,126,307,257,150,151,104
88,49,136,254,208,132,157,105
91,59,162,324,226,135,149,110
76,54,160,326,209,120,145,118
68,56,157,327,220,114,134,108
62,60,168,354,237,116,143,99
77,62,148,364,257,117,143,103
74,50,122,300,227,80,123,93
80,51,131,295,215,90,138,87
78,49,128,291,216,93,139,92
89,49,117,260,227,95,137,97
81,51,145,256,195,98,137,99
93,57,162,236,194,98,139,94
88,60,158,248,219,90,104,86
88,66,171,297,222,89,100,82
78,68,171,307,212,89,90,79
77,67,160,307,228,79,82,75
65,74,175,330,243,91,81,74
71,73,180,395,246,88,96,76
80,72,172,388,249,101,112,76
81,75,184,395,248,103,112,82
76,75,181,380,272,102,110,80
72,65,147,360,251,89,108,72
69,68,158,318,248,94,101,73
74,66,163,283,239,82,108,87
73,57,148,252,224,79,100,78
74,54,152,267,185,94,95,74
76,54,165,297,193,96,95,78
75,58,163,262,167,95,88,74
62,58,154,261,172,95,55,58
65,64,153,285,185,103,80,59
66,68,154,314,229,100,87,61
67,74,166,372,294,118,95,80
69,74,164,360,298,125,101,99
81,76,188,390,327,134,115,130
81,71,201,436,359,139,111,135
80,75,205,425,335,132,108,136
79,72,185,369,282,121,124,125
75,66,181,395,292,118,135,113
58,60,161,370,261,107,143,91
61,61,154,368,257,95,145,90
66,56,144,342,255,95,149,101
70,55,143,335,259,91,130,110
74,55,144,306,247,94,154,117
78,63,158,320,275,116,157,111
83,65,156,235,236,123,175,139
81,66,170,279,296,165,214,133
74,65,174,324,344,169,265,128
79,67,176,343,345,166,261,143
83,67,176,338,324,167,289,164
74,73,200,403,369,160,291,139
75,77,204,451,352,148,272,137
81,78,204,430,330,155,237,144
79,74,194,418,324,161,242,144
88,71,187,432,337,157,223,154
100,66,159,380,300,157,209,162
96,53,141,315,284,135,209,170
100,55,164,369,260,134,207,169
100,74,194,436,304,147,210,160
86,76,203,482,305,152,229,127
85,76,201,473,286,167,234,114
88,80,195,452,261,164,224,106
87,85,200,455,330,165,216,113
83,73,183,407,290,157,218,109
83,66,166,324,265,157,174,120
72,69,170,346,292,140,183,128
70,67,166,376,293,139,184,122
62,59,168,321,198,148,210,140
68,59,160,328,206,147,243,142
73,62,168,330,204,137,292,137
80,62,190,368,245,156,287,130
84,61,193,333,237,164,299,129
86,59,178,336,239,168,347,105
82,57,175,344,255,174,314,97
82,59,181,346,265,168,278,101
77,54,172,325,207,157,282,124
70,68,205,333,223,172,332,138
71,69,192,300,221,170,305,133
77,67,187,243,187,166,299,139
71,65,182,272,187,166,288,127
67,68,172,233,178,160,302,106
79,52,147,261,159,160,336,121
77,55,151,268,157,158,321,134
69,57,152,281,160,148,325,127
75,57,150,253,158,146,324,132
87,51,134,271,171,169,326,149
87,55,109,237,194,143,246,126
80,57,128,325,220,122,219,104
83,63,156,370,224,125,212,105
79,64,155,389,234,140,210,112
74,75,172,419,279,119,273,88
64,74,184,444,279,130,280,98
66,77,169,391,256,148,292,101
71,75,142,366,270,146,319,128
91,76,135,350,263,141,323,126
91,66,132,332,211,142,245,131
98,66,118,304,191,136,232,137
103,57,121,304,206,132,221,139
99,55,128,324,228,146,232,121
94,54,170,386,254,142,241,121
90,63,183,394,268,147,238,121
87,65,197,420,277,147,225,106
83,70,211,442,310,164,244,118
93,72,226,430,300,147,218,108
79,71,195,368,271,147,211,108
83,61,176,342,258,151,241,104
80,57,170,309,250,150,240,116
84,59,160,270,203,110,228,103
71,53,140,253,179,115,214,105
73,52,158,274,198,118,214,111
68,52,178,257,197,98,211,125
67,48,166,258,205,93,202,123
78,40,155,307,217,128,186,140
79,46,154,296,214,153,199,148
80,49,143,392,240,171,203,138
78,51,119,409,267,173,192,126
77,52,122,408,257,195,225,116
69,50,124,377,252,179,223,93
71,49,145,394,283,159,207,78
74,52,152,339,252,140,220,84
71,57,152,355,242,166,227,84
77,67,167,398,247,155,188,80
80,80,212,424,244,179,218,85
82,85,195,427,204,183,303,93
80,86,195,409,232,186,304,87
105,84,191,369,210,166,288,88
101,77,178,323,227,175,297,90
93,63,118,276,219,160,288,79
89,57,127,272,236,153,200,71
89,61,137,278,247,155,172,84
59,61,148,358,304,155,165,80
64,63,149,368,291,136,146,84
68,65,152,383,291,119,111,82
71,68,171,371,283,120,97,87
66,60,147,354,261,141,127,73
103,69,166,342,209,141,157,101
110,77,198,389,240,161,179,107
108,85,210,406,283,176,185,112
108,85,212,441,305,178,189,109
117,84,212,463,322,152,172,118
91,75,200,470,320,145,159,96
81,67,171,432,313,121,148,84
81,59,169,443,311,116,151,77
79,56,146,447,319,123,145,71
67,58,158,421,317,130,162,56
62,56,147,364,301,128,179,60
67,58,159,390,294,122,170,71
78,57,149,354,263,127,169,77
83,71,159,346,255,112,180,82
87,81,174,360,252,105,199,90
85,93,219,474,378,134,182,95
80,93,217,465,384,137,183,98
71,93,219,465,377,121,177,102
69,84,220,446,366,128,185,103
64,83,218,472,359,130,147,103
66,72,170,352,266,102,155,94
70,71,175,423,296,106,186,98
64,70,169,419,307,101,191,92
60,72,175,459,328,104,178,88
59,63,179,453,314,105,178,82
63,64,188,462,319,111,167,89
67,67,174,385,283,111,138,72
69,66,168,384,276,111,168,72
68,63,154,319,242,109,172,72
76,67,138,284,258,108,178,71
71,66,141,367,269,113,170,78
68,62,162,395,287,116,172,84
68,67,180,402,288,120,155,90
69,69,175,443,323,128,155,92
67,75,189,500,358,137,144,94
68,77,186,473,334,138,148,82
65,78,189,466,323,136,135,78
79,84,211,483,388,141,157,96
91,84,213,448,363,136,182,118
84,79,210,380,325,128,210,120
82,77,224,338,351,121,216,122
86,78,210,333,341,117,226,122
82,71,179,359,280,121,202,125
71,64,172,369,272,118,181,113
73,61,158,363,279,117,156,114
73,60,133,384,256,114,139,114
74,60,140,402,272,112,123,115
67,56,140,381,288,113,161,94
66,62,147,379,298,119,158,84
66,61,159,413,337,120,158,88
69,66,172,417,334,132,163,86
70,70,182,423,382,145,226,87
71,87,226,444,400,149,202,81
70,88,236,454,418,149,191,84
73,100,257,481,396,156,201,71
76,100,259,507,409,150,205,89
72,93,253,501,393,141,159,86
69,81,224,491,366,133,165,92
71,83,220,517,348,139,176,91
67,67,182,504,366,135,178,95
67,63,181,492,370,133,184,84
72,62,170,458,335,128,161,95
83,55,154,436,320,124,162,99
87,51,146,426,342,121,180,114
86,60,174,447,339,136,171,121
81,67,199,477,336,157,183,117
78,71,205,489,332,159,188,110
68,79,215,487,345,159,207,101
60,76,213,447,354,151,202,84
59,73,193,404,360,134,194,66
57,66,155,315,348,118,178,64
58,60,146,291,354,123,188,61
50,50,140,315,342,122,150,62
52,58,144,326,305,115,127,67
61,54,145,285,277,109,135,67
63,53,139,304,263,98,134,69
64,55,144,314,260,92,131,76
88,62,157,333,298,112,156,90
96,62,190,373,321,123,168,108
89,70,218,420,336,131,160,110
88,75,236,451,333,132,163,113
89,76,231,448,350,134,179,108
77,75,220,439,348,130,188,103
64,82,229,440,378,138,187,76
67,80,202,431,359,142,194,77
64,81,200,425,370,145,196,70
71,81,202,421,361,143,180,77
83,81,212,402,336,128,175,75
88,70,178,358,262,112,182,77
88,67,179,328,259,124,208,78
90,68,184,303,243,118,201,80
83,75,222,398,236,151,210,76
66,73,214,393,295,150,208,77
63,73,215,429,323,157,200,72
62,67,208,439,320,142,166,72
61,61,186,427,301,154,222,72
63,55,147,412,294,122,204,73
69,54,144,398,261,123,208,72
70,51,139,409,247,128,219,75
81,65,155,425,264,138,238,97
83,67,158,461,303,154,203,98
80,66,148,403,295,160,220,97
82,68,149,441,282,163,229,95
98,71,154,406,278,151,219,114
93,60,142,384,238,136,203,106
93,57,138,327,196,100,196,113
96,59,138,316,200,90,188,114
86,55,143,280,182,92,157,115
65,50,152,250,158,107,160,94
70,48,155,208,159,137,312,104
83,44,149,209,158,148,322,110
82,41,178,333,192,150,314,115
85,41,179,410,207,144,312,118
92,46,157,433,220,135,310,121
87,51,169,457,226,120,170,99
73,55,178,471,241,107,150,97
69,60,180,470,292,128,171,110
71,61,178,407,306,131,189,104
66,62,199,413,308,132,193,112
64,61,191,412,317,136,219,117
67,60,193,411,309,141,235,108
71,56,162,339,267,127,233,94
67,54,177,349,234,121,222,92
64,50,153,321,224,114,235,88
63,49,150,314,235,100,233,96
62,47,144,341,257,112,244,123
64,46,147,340,228,107,246,126
68,45,123,320,224,114,246,128
69,51,138,349,251,124,235,127
68,54,142,352,257,116,206,120
70,57,141,334,244,114,208,97
64,64,144,339,265,109,197,82
59,66,143,331,273,112,222,82
57,65,156,351,267,110,245,76
61,65,150,326,250,109,241,90
52,67,165,373,239,102,229,87
55,61,167,394,218,107,226,96
53,60,167,386,226,105,198,96
60,65,163,392,218,103,160,102
60,64,171,404,205,104,161,95
60,58,156,328,197,94,127,91
62,61,161,362,192,91,128,94
66,58,156,376,163,84,130,113
66,58,165,366,162,87,129,113
73,61,165,374,184,89,122,116
76,65,175,412,199,104,125,116
74,62,174,402,225,117,143,108
74,64,186,427,246,121,166,99
68,54,172,428,251,116,163,89
57,52,168,435,236,129,178,78
64,56,165,430,236,140,229,79
70,60,160,395,242,132,224,96
68,59,151,357,227,135,237,96
71,65,140,305,200,137,243,104
73,61,135,284,214,133,234,110
75,54,121,235,203,104,181,110
68,53,125,252,186,97,180,99
77,67,165,296,230,100,145,87
83,64,163,338,265,110,168,91
85,67,164,334,257,102,179,82
77,65,185,355,267,110,201,81
79,60,182,325,269,110,197,82
75,45,144,296,258,103,191,85
64,44,137,245,221,113,173,70
58,46,140,265,227,111,152,71
55,53,125,278,255,115,122,70
55,59,116,288,261,120,131,67
52,63,135,302,246,121,142,69
60,74,164,337,285,122,184,77
60,75,162,329,315,132,201,87
78,76,166,314,284,127,197,108
80,81,188,353,303,140,224,116
78,80,185,350,312,146,221,110
73,67,170,324,281,127,184,107
75,64,175,313,242,114,169,101
60,57,164,312,240,114,202,85
57,48,138,287,201,101,171,75
72,53,141,270,180,90,166,103
73,54,141,268,178,95,166,103
75,53,137,275,174,99,182,105
80,54,141,264,177,96,173,101
78,55,161,309,192,89,168,96
70,46,157,346,223,83,170,71
79,48,155,366,229,80,171,72
80,51,153,379,269,78,163,83
75,57,173,420,301,82,139,80
75,55,161,383,283,81,132,81
75,55,155,358,258,84,142,81
63,58,152,330,246,84,138,79
64,55,147,300,191,84,132,72
65,57,133,246,118,81,127,69
67,60,126,225,116,78,131,76
64,60,153,273,120,73,110,71
68,57,157,282,121,75,112,71
62,57,157,316,143,71,107,73
61,55,158,328,165,68,103,76
65,54,162,339,200,77,100,77
69,73,204,500,277,86,113,87
69,78,213,532,305,87,112,88
74,79,212,545,299,90,111,83
75,74,210,551,318,105,130,92
76,73,220,573,308,110,164,94
84,64,166,423,262,106,161,99
81,58,149,384,240,102,164,99
76,55,151,343,256,112,187,94
73,58,156,373,261,110,187,89
78,67,159,419,328,117,168,86
63,57,157,426,321,118,165,73
68,63,174,433,322,122,161,69
66,63,188,500,327,114,136,66
67,77,204,498,348,113,128,60
60,74,201,440,286,102,115,57
75,77,221,562,370,131,132,67
75,74,206,556,372,130,135,79
77,75,204,514,368,138,133,80
79,58,175,475,322,127,120,87
79,61,180,482,318,120,124,86
62,62,169,385,205,86,125,80
58,74,206,464,343,103,121,67
62,91,224,479,383,100,129,73
59,91,226,480,391,102,173,69
52,87,214,464,384,105,174,63
56,83,208,470,387,106,176,70
67,72,196,482,282,96,173,71
64,46,161,453,233,88,168,79
70,50,163,490,242,90,137,90
69,47,163,508,258,92,136,90
79,46,153,437,240,83,114,83
72,43,119,338,233,77,128,85
72,46,123,329,210,77,123,75
65,44,132,281,183,72,111,63
68,42,127,218,166,65,98,65
69,43,121,261,239,84,119,81
67,45,137,304,273,85,105,81
70,46,154,313,290,95,115,80
72,48,143,324,309,101,122,84
82,52,154,335,329,112,133,90
74,57,172,322,298,104,121,77
75,64,196,397,274,118,130,83
75,63,189,431,277,113,132,87
73,62,192,431,271,109,123,78
63,56,183,428,268,100,114,72
60,52,171,429,273,101,117,69
57,47,145,337,287,88,105,60
57,54,156,302,308,93,102,61
61,58,173,370,315,103,108,76
63,60,167,367,305,104,111,79
61,60,164,364,294,108,118,78
61,67,179,378,293,105,138,78
69,66,171,412,301,107,149,80
67,63,161,371,297,96,160,71
72,73,185,420,296,99,156,75
81,76,208,481,345,96,158,81
81,69,198,475,332,99,149,83
73,66,214,474,286,86,134,87
71,64,209,449,269,88,121,85
69,55,194,446,279,91,133,79
63,55,197,433,257,103,159,82
63,62,203,428,246,100,154,80
61,61,190,424,353,111,159,69
65,77,249,564,399,129,175,86
67,87,264,570,397,131,184,90
65,85,260,561,379,121,161,84
63,79,262,556,387,116,155,83
62,83,266,546,333,110,161,83
61,70,215,402,274,92,148,70
54,59,204,382,269,84,124,61
53,63,225,379,258,89,121,63
58,62,211,377,240,94,142,70
59,59,193,339,178,90,131,73
69,57,189,363,176,87,122,67
70,53,180,372,236,90,142,76
71,45,122,332,232,82,137,76
72,47,113,339,239,86,123,71
72,51,141,369,251,88,122,71
76,59,180,389,308,95,144,80
74,65,190,391,293,94,132,72
74,68,202,406,302,97,146,78
72,68,208,429,307,97,144,77
82,67,199,431,310,95,144,75
71,58,160,382,254,83,123,63
67,56,169,354,213,86,118,61
76,61,173,376,253,86,96,80
79,61,192,383,268,86,104,87
71,74,232,498,298,89,104,86
67,79,236,515,302,101,104,87
95,79,218,505,297,111,166,110
94,75,215,495,268,114,172,111
90,72,199,485,294,113,179,107
87,76,205,493,306,116,186,112
95,88,245,538,327,112,187,117
75,88,258,565,339,93,135,98
66,93,272,570,347,88,131,74
66,94,267,558,307,86,106,81
73,79,228,513,265,90,125,94
69,61,180,467,247,93,145,98
67,60,169,451,252,96,145,96
65,48,137,445,265,94,142,97
67,55,164,482,291,100,159,94
63,63,187,499,297,92,142,80
54,67,196,506,341,85,138,79
51,75,210,573,361,95,157,81
55,75,213,557,342,100,167,83
67,74,198,519,314,94,164,80
68,66,179,426,298,91,163,73
67,67,207,527,344,105,158,65
66,67,241,514,354,102,158,63
72,73,257,574,393,104,160,62
69,68,270,589,397,106,146,66
68,73,281,606,404,118,144,65
73,68,254,520,328,106,136,64
75,66,230,499,295,110,125,68
81,65,217,429,288,107,117,84
78,72,203,408,311,110,135,84
75,66,182,409,330,108,149,87
73,69,185,444,362,114,156,87
73,64,154,419,367,109,153,87
69,61,147,420,339,112,160,79
71,57,150,447,356,115,169,88
70,62,152,467,349,109,152,84
80,63,153,429,319,107,152,83
79,60,153,403,339,116,158,84
70,64,149,422,331,111,163,86
64,65,159,406,334,111,152,73
67,74,176,404,347,118,178,79
62,76,189,460,360,117,177,95
64,74,189,506,331,108,193,99
65,69,200,498,327,103,181,97
67,66,188,527,299,102,173,95
64,54,166,501,284,90,152,110
63,48,139,429,262,86,152,105
66,52,128,360,251,84,131,100
61,48,113,328,255,89,124,96
59,48,104,324,250,87,129,98
62,55,129,318,225,89,146,76
61,60,161,379,251,98,148,67
65,62,166,384,260,94,135,66
69,64,166,414,253,91,136,62
69,61,165,365,237,85,136,64
79,59,150,368,236,77,114,70
78,57,162,349,247,74,100,74
81,59,165,391,259,79,105,73
79,62,173,447,321,84,115,78
85,66,174,452,328,88,116,83
73,62,178,448,345,98,117,86
68,57,142,420,316,99,122,78
70,52,137,374,320,96,121,91
75,50,144,352,273,95,108,99
70,48,158,372,278,100,117,97
72,56,173,386,266,94,125,95
74,60,183,399,267,89,120,94
59,60,192,395,246,88,132,81
55,68,203,413,378,111,151,66
53,68,202,471,420,111,154,68
54,62,204,510,438,115,153,67
52,61,200,522,447,115,167,70
57,60,195,532,453,129,168,69
62,58,191,561,407,129,163,75
68,62,197,552,378,127,161,84
67,68,204,567,387,140,191,81
67,68,198,547,381,148,191,81
66,74,216,557,385,137,198,79
74,84,218,562,326,127,194,79
75,88,232,569,349,128,185,65
77,84,212,504,344,117,156,76
81,94,226,535,357,107,147,75
83,91,209,517,348,107,146,76
73,77,184,413,333,92,146,71
77,77,189,445,389,128,160,75
79,85,207,476,379,141,162,75
80,74,191,467,382,138,166,82
75,74,200,489,387,140,147,82
71,74,218,520,406,141,142,91
59,69,188,468,330,108,147,85
53,62,168,429,315,81,135,84
47,62,173,404,281,85,126,85
53,64,191,433,297,103,139,87
55,62,176,429,343,106,136,84
69,67,192,396,315,112,114,83
70,68,201,432,345,114,111,87
71,72,204,462,344,112,118,101
71,70,188,427,363,93,109,105
73,71,193,407,317,102,112,104
72,64,175,402,325,91,110,112
75,61,170,390,315,83,127,111
74,69,183,394,330,83,151,97
72,67,176,398,279,86,143,93
71,64,154,371,250,73,145,90
64,62,153,364,275,88,154,76
61,62,151,329,238,91,161,82
65,50,125,292,224,91,134,74
66,52,128,274,243,93,132,77
65,71,165,337,287,108,136,74
66,79,185,421,300,107,150,75
61,78,197,448,304,117,154,60
67,79,210,433,301,116,151,69
71,80,208,443,305,126,200,85
75,70,190,403,268,121,205,85
71,65,171,310,217,116,185,88
77,67,172,346,281,112,182,99
78,66,165,365,299,117,188,112
75,66,168,367,287,102,155,98
74,60,161,374,286,99,140,98
92,67,208,458,284,112,179,99
96,71,199,446,221,109,187,91
89,73,202,473,220,109,194,89
90,71,200,468,244,112,196,89
95,75,207,454,257,114,199,107
80,66,159,371,264,97,170,106
68,65,172,351,282,102,151,101
70,64,166,301,275,108,159,87
70,62,161,294,251,128,163,88
63,59,166,301,231,124,160,72
59,63,166,293,235,125,158,72
62,51,134,245,202,117,151,89
63,51,147,297,193,111,135,88
62,53,157,330,201,96,113,94
67,58,175,379,228,95,119,94
67,56,178,391,235,99,134,94
70,66,207,409,243,108,160,89
65,73,214,418,270,110,158,93
84,81,215,390,277,114,158,92
80,76,192,333,266,109,174,90
84,78,205,373,262,131,197,93
83,71,178,351,254,129,185,83
88,59,155,290,227,128,187,82
75,51,150,312,230,124,198,81
77,54,156,337,223,130,192,85
76,55,136,267,197,103,159,95
80,56,134,270,203,96,157,95
74,58,135,263,190,91,146,88
72,64,131,241,160,88,136,93
71,61,120,231,178,78,123,88
75,58,163,256,207,81,128,101
73,56,165,258,209,86,112,102
85,64,175,309,239,106,114,103
83,56,176,312,239,108,131,103
88,55,177,306,237,115,132,109
84,59,143,287,224,112,123,81
80,60,148,310,233,106,127,86
66,50,146,280,235,99,134,85
72,53,148,283,259,91,122,88
70,52,151,294,252,83,127,82
68,49,151,301,258,93,134,82
71,51,153,281,258,96,139,77
73,52,139,286,228,80,135,83
80,51,135,288,210,81,129,69
81,55,130,277,199,83,120,70
78,51,119,277,184,75,132,72
85,48,113,312,201,76,123,76
87,46,110,294,207,88,135,74
78,53,124,293,228,90,133,76
77,57,150,325,236,90,131,81
79,58,159,332,238,96,134,92
72,55,161,312,225,93,151,93
69,60,174,317,237,83,142,94
70,53,159,323,216,95,144,92
62,56,165,316,231,104,144,91
67,62,173,338,263,106,130,112
68,67,176,347,266,111,112,109
77,68,180,355,278,112,104,108
70,77,191,346,278,104,114,108
76,74,186,348,288,96,119,120
84,74,181,334,253,90,117,93
88,70,177,313,253,86,116,98
82,68,178,323,247,88,138,95
83,62,176,360,251,95,145,96
84,57,158,343,254,101,149,79
75,57,161,346,257,108,149,90
67,63,189,412,240,108,149,84
65,66,183,442,226,100,138,81
62,74,183,406,224,86,111,84
70,73,182,429,192,76,94,98
74,74,176,424,206,65,91,85
80,70,191,415,250,83,102,93
86,79,234,452,339,106,115,104
99,76,230,446,339,108,118,114
95,78,230,432,338,109,124,103
88,78,234,432,333,106,129,106
81,82,228,407,301,91,127,104
85,70,180,306,189,70,128,110
77,62,186,357,223,86,129,102
66,58,188,351,208,82,122,100
69,55,190,331,219,92,136,101
70,48,156,301,226,100,159,99
62,47,157,301,232,107,148,89
65,53,148,247,218,104,146,98
66,53,143,230,232,104,152,96
64,55,169,324,296,100,137,91
70,60,189,355,297,97,131,93
68,60,191,356,293,94,133,90
65,54,188,357,313,101,148,70
67,58,189,349,310,107,151,71
78,59,168,265,236,113,200,78
72,56,143,217,231,114,194,78
77,53,136,207,226,107,188,76
70,51,131,169,175,94,175,74
70,60,159,301,225,108,181,73
59,55,153,324,238,101,136,64
71,69,184,333,291,110,129,76
85,91,263,555,376,119,139,104
88,104,289,604,393,119,149,113
89,99,280,566,366,106,146,114
93,109,300,605,382,120,148,117
91,105,295,634,372,122,143,108
77,89,229,454,330,118,137,96
74,83,213,414,303,120,157,87
76,85,212,430,313,119,151,96
79,75,189,400,298,111,150,94
80,80,225,495,283,95,144,91
79,83,245,546,256,92,142,80
79,76,250,564,261,97,160,77
98,80,257,570,307,111,181,91
97,87,275,579,342,107,169,95
90,82,235,553,392,114,173,99
87,76,235,555,415,118,175,98
93,81,226,571,438,107,146,106
73,84,256,706,532,98,128,90
69,81,260,777,556,97,126,84
71,76,254,711,510,86,118,81
72,81,247,718,499,85,170,81
72,86,275,733,483,92,177,75
66,81,261,622,370,93,173,72
63,77,244,605,380,93,176,75
66,90,272,645,458,111,193,81
73,91,268,589,445,110,155,84
64,82,233,534,481,106,130,79
66,80,218,511,460,105,133,82
69,84,226,494,434,110,147,84
74,72,207,492,380,98,130,83
66,64,196,502,379,94,119,80
66,70,228,564,391,100,123,79
69,79,245,583,498,126,121,74
81,107,308,610,546,151,134,81
77,113,322,597,545,166,179,76
82,118,327,625,564,169,181,71
84,115,310,569,538,167,188,77
84,104,283,520,446,148,183,79
70,68,184,457,341,115,166,69
67,56,140,439,332,93,157,62
71,56,199,601,478,86,159,75
77,67,232,775,542,86,156,89
78,89,296,898,615,94,162,98
85,100,330,988,659,126,170,105
82,100,341,1003,655,130,159,110
72,103,330,949,548,136,157,111
78,114,358,907,524,139,165,112
77,114,336,835,480,132,162,106
71,115,331,712,416,106,167,102
80,120,327,699,443,98,144,102
85,115,305,630,452,91,147,113
77,97,245,601,425,86,137,102
78,89,232,606,417,92,133,103
78,80,250,677,436,102,142,103
77,75,257,693,402,109,177,123
83,76,280,708,388,108,172,108
89,87,298,660,380,115,164,127
86,77,307,632,389,113,165,125
88,76,272,526,459,110,181,124
87,89,291,560,516,110,143,102
78,87,273,561,547,110,138,98
80,87,261,532,534,97,158,75
94,97,261,612,525,94,199,78
100,96,280,625,445,91,165,82
98,94,277,681,385,92,168,89
120,107,264,658,333,87,178,105
114,105,257,635,330,99,178,104
104,97,228,536,279,95,131,103
102,97,229,599,275,84,121,107
106,99,227,548,322,91,122,98
80,82,236,615,321,93,119,81
78,74,250,644,332,87,115,81
81,79,278,733,410,97,116,76
82,85,277,757,480,117,133,76
76,72,264,742,463,109,143,80
81,75,278,697,460,109,145,86
77,72,259,697,436,106,147,80
76,67,231,610,360,99,146,81
75,61,218,507,303,82,137,81
72,59,195,450,280,82,128,77
69,63,165,426,282,91,135,70
76,66,165,379,285,95,146,74
73,72,203,477,282,96,147,71
67,69,177,449,241,98,154,69
71,70,203,516,231,101,169,80
76,70,221,542,214,97,171,83
81,67,219,528,256,96,146,85
78,67,245,566,292,98,146,85
83,70,267,592,288,98,157,92
80,68,250,514,287,96,154,83
81,70,263,564,304,92,140,83
77,79,270,592,299,100,141,82
87,85,232,496,288,101,163,83
79,85,220,541,326,105,151,61
78,84,216,563,321,102,134,62
71,79,179,532,327,112,138,75
77,73,173,522,303,105,152,75
68,59,146,467,282,105,134,76
77,55,134,388,236,91,119,81
84,67,148,389,276,103,129,85
96,66,150,314,256,102,136,76
91,66,157,302,272,100,124,80
94,69,160,311,263,94,114,84
93,67,148,296,297,101,130,88
87,57,142,274,275,85,120,81
76,55,142,285,280,84,112,82
80,57,135,292,280,89,132,81
78,57,132,300,308,99,136,84
69,56,139,304,287,95,123,78
66,60,133,303,277,102,128,81
63,63,137,308,276,102,154,75
56,65,146,337,277,98,139,76
58,61,145,328,243,92,145,78
60,61,145,300,210,93,146,84
62,53,136,268,195,93,163,86
76,56,131,258,175,86,150,90
84,52,112,202,136,89,155,95
79,56,139,217,148,97,146,87
78,62,156,246,193,101,155,78
89,62,167,281,215,103,135,74
81,59,168,293,216,108,128,80
73,59,171,280,207,108,114,71
78,58,157,253,195,106,116,69
78,60,160,262,162,127,130,69
66,61,160,241,142,133,145,69
78,65,179,251,141,132,142,60
79,70,176,264,156,140,147,53
75,72,170,273,164,134,157,57
78,67,155,263,186,113,152,65
90,69,157,283,193,108,137,85
78,67,138,298,226,111,145,81
72,64,138,303,227,111,146,85
75,64,156,333,249,120,147,84
73,67,164,353,238,122,131,82
55,63,156,341,236,117,129,61
65,61,156,306,203,113,113,69
67,58,167,293,194,108,135,86
66,57,155,298,175,102,131,89
67,59,152,263,168,108,139,92
64,63,163,266,167,117,143,90
52,63,163,314,172,117,140,96
50,62,156,314,179,131,160,86
52,61,151,272,170,129,156,88
50,61,157,305,174,122,148,84
53,62,164,304,175,128,150,97
58,67,161,285,173,129,158,103
62,68,171,299,183,109,113,101
64,68,189,331,229,117,113,95
63,63,171,311,256,117,118,101
65,55,155,306,250,103,116,99
64,53,160,318,253,102,139,84
64,51,151,316,244,105,142,78
66,49,134,324,235,104,139,88
68,56,148,334,204,101,145,81
67,62,189,402,224,114,185,72
71,62,200,395,221,110,167,68
69,68,205,409,236,108,167,67
61,68,202,405,239,107,169,70
74,67,201,417,262,112,175,87
78,71,185,371,259,99,136,85
78,67,165,354,261,97,126,90
80,64,161,337,270,95,118,96
86,62,169,361,264,93,158,94
82,63,153,324,261,91,156,81
83,52,144,352,304,99,151,86
77,51,144,392,327,107,187,81
77,45,136,419,318,115,237,91
74,46,135,422,318,113,219,98
68,38,145,453,300,109,211,95
64,50,170,474,263,96,217,95
65,62,202,475,305,123,228,101
68,65,211,449,291,114,189,94
79,68,207,408,281,114,186,81
74,72,229,438,318,118,185,85
86,73,210,377,305,123,179,88
88,77,211,452,287,104,137,86
82,76,216,483,315,113,134,79
72,78,211,503,323,116,143,103
77,77,185,445,307,110,155,105
75,76,187,495,325,118,181,113
78,66,154,410,293,116,197,114
85,67,128,382,285,109,195,127
86,67,148,408,358,114,185,123
83,73,201,527,358,121,198,119
76,68,184,534,345,107,181,108
71,68,181,522,340,95,158,108
66,65,191,531,338,91,150,106
61,66,198,506,262,77,145,84
65,56,154,400,259,64,112,90
60,60,153,350,265,70,128,86
60,58,161,409,307,78,162,84
64,60,169,412,318,93,170,71
67,51,157,382,305,100,181,71
69,54,165,401,324,108,193,79
66,52,171,399,329,114,187,80
68,55,171,360,306,113,171,78
63,53,162,359,297,104,159,82
69,60,152,387,306,94,154,87
64,57,135,369,279,83,152,81
70,62,168,425,314,90,145,89
71,58,169,447,298,88,134,90
72,59,163,432,278,87,143,88
63,52,170,413,256,83,132,85
69,55,185,472,257,91,115,76
67,50,164,421,202,88,120,76
69,62,184,400,216,87,119,77
68,66,210,517,264,92,143,79
71,67,207,531,281,98,147,80
67,65,191,477,280,95,146,79
60,61,186,456,270,78,133,71
59,53,167,447,256,73,126,72
61,52,148,389,238,75,110,67
63,53,146,377,257,72,130,72
57,51,142,359,260,68,128,74
56,54,138,379,265,73,128,71
63,55,154,517,308,79,129,72
74,54,145,484,310,71,124,76
77,54,132,472,286,74,174,70
81,59,135,514,291,84,195,70
99,69,131,512,305,83,215,79
102,75,107,378,264,76,217,78
99,76,104,412,235,69,208,78
99,76,121,454,263,72,183,81
112,75,130,456,268,66,164,91
107,72,139,486,257,64,142,112
99,63,137,475,268,67,139,121
122,74,127,429,276,70,156,122
140,74,121,397,260,63,144,137
134,72,111,350,296,61,137,146
133,70,107,396,306,68,146,133
134,74,125,434,307,67,161,131
119,64,127,415,304,66,143,135
95,64,124,422,295,62,120,118
97,71,130,429,244,68,141,103
93,73,133,348,248,67,135,106
93,73,116,313,242,68,134,110
81,78,119,344,254,67,177,112
84,93,118,326,264,71,212,124
86,110,107,295,249,61,204,148
102,112,86,287,236,53,209,144
129,139,81,319,216,50,204,138
179,157,73,276,191,54,188,139
235,164,97,413,248,49,151,148
264,169,113,439,270,48,157,132
263,171,112,426,251,51,174,152
253,156,117,381,246,50,174,159
221,136,118,382,240,53,158,161
164,120,95,208,147,52,178,152
121,96,69,136,78,53,176,149
114,89,72,126,72,55,185,139
117,91,87,96,66,55,184,159
125,102,97,72,56,53,184,176
124,96,96,58,42,51,189,175
114,92,97,55,38,50,213,182
112,93,94,48,33,43,183,180
117,87,68,45,31,44,219,164
127,73,54,51,29,39,226,159
125,73,65,45,26,41,210,164
122,70,68,47,29,50,193,150
122,66,73,48,30,49,203,143
108,67,74,44,30,46,167,126
81,63,70,36,29,44,162,110
85,69,63,36,31,44,162,104
90,78,60,37,29,45,151,106
110,96,55,42,28,50,140,147
115,91,59,43,28,52,152,151
140,99,54,44,28,52,161,196
163,97,50,44,24,50,157,240
191,94,50,40,21,38,151,263
191,79,46,32,21,30,144,251
195,84,55,38,22,28,118,251
178,75,60,38,30,33,100,217
161,72,62,40,30,33,97,186
131,68,79,43,34,36,101,162
114,63,89,41,35,42,105,154
105,66,85,38,35,45,109,161
126,65,85,41,29,41,98,163
113,65,95,48,31,46,118,143
110,69,85,47,29,44,116,137
110,72,80,49,29,42,114,129
134,83,78,54,31,44,128,143
121,82,79,52,33,49,140,134
123,83,70,53,33,44,129,130
119,80,65,51,32,46,145,128
139,79,61,52,34,45,144,160
119,49,69,49,32,39,128,142
111,48,70,49,31,35,115,138
126,50,66,40,32,42,131,140
129,57,66,41,31,39,116,175
106,66,64,42,28,44,139,143
106,67,56,42,28,43,141,141
114,70,59,43,27,43,139,143
99,71,55,40,25,44,121,177
108,68,61,43,26,46,134,149
127,67,68,43,25,40,113,159
126,74,71,45,30,45,135,180
117,73,65,44,30,50,159,189
119,68,72,44,28,44,159,164
100,60,76,42,29,46,151,163
89,52,71,43,28,45,155,160
91,43,61,38,24,42,131,148
92,42,61,36,24,37,108,141
93,46,56,38,24,43,111,128
94,47,57,42,24,43,124,162
83,42,67,41,25,47,149,161
79,47,72,42,26,51,152,160
93,46,75,47,25,52,154,154
87,48,79,47,25,50,164,171
98,46,70,42,24,52,157,146
108,48,60,39,25,50,130,148
112,45,55,38,23,54,144,161
111,45,50,34,24,59,163,176
116,38,42,32,25,58,162,167
110,45,47,33,24,55,153,163
105,43,58,43,23,56,154,166
109,49,58,44,25,53,170,143
100,49,59,44,25,56,168,119
89,48,59,46,25,56,153,113
85,45,59,46,25,63,166,122
88,46,46,37,24,65,185,104
86,38,46,37,24,63,196,122
92,38,50,37,26,60,179,137
92,40,51,34,25,59,185,141
92,39,49,33,26,55,177,128
85,47,56,37,28,51,161,130
73,49,57,32,27,56,128,124
64,46,52,32,26,52,133,111
67,45,49,33,27,50,127,101
77,52,57,44,26,56,138,119
75,43,54,43,24,55,158,141
72,40,55,45,26,54,151,133
73,46,59,50,26,55,145,144
84,55,60,52,27,60,158,155
76,48,58,44,28,51,157,135
97,52,55,45,31,54,134,119
102,53,54,46,32,47,132,119
116,52,54,44,33,54,151,114
121,44,62,42,31,58,169,112
125,44,54,42,32,60,157,117
109,42,56,40,28,57,151,117
120,49,55,36,26,60,149,122
109,45,51,35,27,61,140,121
97,45,48,35,29,53,100,117
93,46,49,34,28,52,103,121
95,44,47,36,28,54,106,135
84,41,47,37,27,55,129,138
90,43,69,37,25,44,140,128
99,40,65,37,26,44,147,161
99,42,72,37,24,43,144,171
102,44,72,37,24,45,151,159
98,43,72,38,26,41,138,153
93,47,54,37,29,41,117,163
88,49,51,36,25,40,102,138
114,54,37,34,25,51,165,140
111,52,38,34,31,47,193,168
108,49,64,37,31,50,198,175
105,43,66,42,30,50,195,170
110,44,70,47,31,65,215,170
81,35,78,52,32,63,215,153
97,35,78,52,25,62,190,124
103,36,66,56,26,60,176,120
105,35,63,53,24,71,189,147
102,56,62,48,26,57,173,137
110,59,53,46,27,49,126,147
96,59,65,47,27,55,137,156
99,60,64,38,27,56,138,164
109,61,69,37,28,54,127,142
120,43,68,37,25,53,124,155
125,40,67,35,25,63,126,152
124,42,69,32,25,57,98,145
118,44,71,35,25,56,106,127
109,46,67,35,23,48,133,128
96,49,68,35,25,57,161,109
87,65,73,37,25,49,156,104
92,67,65,41,25,70,177,91
90,66,55,38,24,70,195,100
88,66,57,37,23,68,184,90
84,62,61,38,26,63,159,90
97,45,66,44,25,64,157,116
101,39,67,44,31,41,140,130
105,50,85,50,32,41,113,127
107,49,85,50,34,42,110,150
106,53,81,51,31,38,108,165
89,52,73,45,31,37,118,152
93,55,71,42,27,57,124,144
97,48,52,34,26,58,124,140
95,48,66,35,27,58,132,126
98,42,64,33,29,60,140,148
102,41,66,36,30,62,135,165
90,39,64,36,29,46,126,169
88,37,62,36,30,45,123,183
100,45,55,48,31,44,108,193
94,44,55,46,30,55,101,165
93,47,58,50,29,51,130,138
94,46,60,50,28,56,137,130
105,44,57,50,28,58,145,126
100,40,60,38,24,60,159,108
100,42,60,41,25,53,173,132
93,41,61,35,27,56,158,142
113,39,59,37,28,52,160,156
100,39,62,36,29,51,158,157
98,37,58,37,32,54,142,174
97,36,58,41,37,51,127,156
103,38,61,40,35,49,117,155
87,37,62,37,33,49,145,148
87,40,58,36,33,55,141,136
85,41,51,35,32,47,138,115
88,42,51,34,27,47,142,136
81,38,43,35,27,44,152,132
74,43,54,35,30,52,162,121
105,42,69,36,28,52,158,145
112,41,70,35,25,54,163,150
110,43,73,32,24,57,164,127
121,43,70,34,26,59,153,141
129,42,68,36,23,72,107,161
105,41,66,41,26,73,107,135
91,40,78,43,26,73,98,123
92,36,75,42,27,69,92,122
86,37,79,88,41,68,94,104
78,38,93,124,73,48,89,98
83,37,93,133,75,37,102,111
86,36,86,143,76,44,118,141
83,34,86,146,77,46,113,146
84,53,86,126,71,49,129,166
78,57,81,92,39,45,135,162
83,59,75,79,34,51,134,156
91,60,71,57,35,59,124,138
92,64,75,53,32,62,134,147
90,54,77,49,30,63,127,130
89,50,60,45,28,64,120,122
89,50,60,39,29,57,133,122
81,50,59,41,31,67,150,137
80,45,56,37,30,64,151,129
80,43,49,33,31,60,143,120
97,42,56,34,31,62,149,126
92,44,53,41,29,66,134,131
100,56,53,40,26,57,121,148
108,60,50,42,27,59,116,144
102,59,58,52,25,61,118,154
94,60,65,52,29,73,128,157
94,60,68,49,29,69,130,171
88,57,69,49,27,56,131,141
84,68,70,45,28,60,125,147
92,69,64,36,30,62,142,137
86,69,58,38,28,46,127,149
82,68,62,39,29,49,126,133
78,60,58,38,32,67,123,132
81,43,58,38,31,68,151,128
78,49,68,35,28,65,155,172
79,45,62,33,29,68,161,154
87,49,54,27,30,74,159,176
87,49,58,28,27,60,163,185
90,49,63,39,28,57,144,194
89,38,62,42,32,63,121,157
90,39,65,41,30,63,114,156
89,34,64,41,28,61,132,130
119,34,61,40,27,60,158,170
115,39,53,31,29,61,152,157
111,42,37,33,26,51,149,163
109,38,45,37,30,55,153,176
106,36,53,43,31,50,158,173
105,44,64,50,31,48,129,127
112,43,69,53,30,46,124,171
115,41,71,50,32,57,180,167
114,43,70,47,29,58,198,160
115,46,66,43,29,56,179,171
86,41,60,37,31,59,174,168
72,43,57,34,30,61,194,120
69,44,56,38,27,53,155,129
84,45,56,52,27,46,161,124
85,46,61,57,27,57,201,110
101,50,64,57,27,54,221,124
99,45,64,57,28,53,228,125
104,57,67,59,29,70,257,118
114,55,76,52,29,70,256,152
127,55,72,51,30,61,247,148
118,52,69,49,35,68,248,151
120,54,73,59,36,71,259,180
141,49,77,59,38,58,231,181
132,52,67,59,41,75,219,153
116,51,68,55,39,80,250,162
120,51,65,55,39,81,242,163
120,50,66,45,39,81,226,148
93,48,65,45,37,84,239,162
87,48,66,45,40,76,234,159
91,45,65,46,40,73,199,160
99,46,92,46,36,67,252,166
117,44,86,52,35,68,268,160
123,39,86,48,34,66,326,145
135,41,83,45,31,70,346,145
137,51,92,47,31,74,346,148
125,52,68,49,31,75,308,142
122,53,92,44,28,71,368,132
119,54,106,45,31,77,318,137
107,52,124,56,30,71,350,154
101,45,121,59,29,68,382,151
105,45,124,57,27,68,385,141
102,54,107,58,29,72,312,147
114,56,91,57,28,67,308,155
115,56,60,44,27,61,257,144
128,55,61,56,29,60,207,151
124,54,63,56,31,68,214,153
114,47,68,55,30,62,223,167
111,56,73,56,29,55,224,160
109,54,74,64,29,61,213,160
98,52,74,49,27,61,262,149
111,53,66,50,28,71,325,157
112,51,68,51,31,76,330,159
99,37,64,50,29,78,333,161
104,47,62,41,30,73,335,167
115,51,61,44,29,75,309,184
104,51,61,43,28,53,238,174
102,53,54,42,27,49,253,164
108,52,48,39,28,44,240,154
102,50,45,37,30,45,241,143
87,48,51,38,31,53,239,130
84,49,58,40,31,65,251,120
96,46,60,40,29,73,248,134
89,46,60,42,29,74,245,143
95,42,61,42,25,79,242,147
91,45,68,45,23,71,228,147
100,45,69,43,28,69,235,159
114,53,73,43,27,60,199,145
115,54,73,41,28,60,196,135
114,55,86,40,29,57,201,128
114,49,74,33,29,74,207,174
108,45,69,30,25,66,179,167
77,37,65,33,26,65,202,165
73,36,68,38,26,78,274,173
66,36,64,44,28,77,271,182
60,38,66,48,27,65,262,128
59,38,64,51,27,69,253,145
69,42,70,51,27,72,238,147
67,42,71,49,28,61,159,135
66,40,62,43,26,60,161,160
77,49,59,40,28,61,163,161
83,49,57,38,32,66,191,167
79,45,46,34,31,62,198,172
84,47,47,34,33,59,213,178
82,46,47,34,33,58,218,145
73,38,46,32,33,54,210,147
84,46,49,38,30,43,239,146
90,47,56,39,31,46,253,132
96,45,52,38,28,73,260,133
104,46,48,37,28,75,260,147
112,46,53,40,27,76,261,145
102,38,55,32,26,79,233,125
96,34,47,28,24,81,226,141
88,32,48,27,25,59,213,141
86,35,54,31,25,56,221,139
76,32,50,30,24,59,235,144
72,35,48,31,25,55,233,138
72,36,51,32,25,49,226,121
73,36,49,34,26,52,218,120
64,32,44,32,25,53,196,108
74,34,45,32,27,56,201,136
81,31,46,34,25,56,183,137
80,34,54,41,26,58,174,153
77,36,54,42,27,54,175,149
81,35,50,41,32,64,186,148
78,36,58,41,39,77,201,128
84,39,71,41,40,77,199,139
79,35,70,41,41,78,189,137
83,34,78,42,40,86,192,144
88,40,84,42,37,84,205,153
83,36,86,41,30,69,192,146
82,36,77,38,31,74,246,139
92,37,73,36,30,71,258,122
89,37,71,40,31,63,263,116
84,34,65,43,30,53,257,106
83,38,64,46,28,50,254,121
72,35,58,47,26,41,197,117
82,37,57,45,24,54,183,119
92,37,56,43,27,55,165,127
97,37,62,42,26,64,182,137
100,32,54,40,27,75,162,122
103,34,68,42,30,81,195,137
93,36,70,41,30,77,197,144
81,36,73,44,29,81,226,149
76,37,70,46,32,77,203,151
69,40,74,46,31,67,200,157
63,41,66,50,31,70,212,158
78,41,80,55,34,69,219,157
100,48,77,54,35,71,258,144
115,50,83,52,35,73,300,141
