277,171,165,349,156,159,264,292
283,203,167,337,145,154,259,294
273,192,169,341,141,149,245,295
279,190,155,321,140,158,251,241
299,197,157,249,129,179,291,300
252,210,137,245,127,171,263,297
247,188,128,214,119,175,266,298
245,192,131,224,116,178,293,314
270,198,123,203,114,166,285,302
258,188,105,197,106,140,252,247
255,156,102,205,132,166,278,269
285,158,111,238,134,171,293,323
298,156,112,221,141,178,286,341
279,151,113,224,124,166,280,333
296,156,116,238,142,189,323,350
303,161,105,232,117,160,293,343
325,153,96,212,126,159,287,307
323,143,97,269,147,163,297,283
316,149,110,297,155,173,311,275
322,183,100,292,146,146,266,257
342,195,116,288,155,158,274,265
358,206,131,301,156,179,294,273
365,215,144,288,148,177,286,303
372,221,141,282,153,194,287,319
361,194,144,274,149,207,321,332
343,174,140,266,139,206,320,318
367,160,130,274,140,188,298,339
358,170,118,250,126,182,292,320
365,161,123,224,110,174,302,394
352,152,118,229,107,164,253,375
366,155,122,237,107,180,262,420
292,150,118,221,97,169,247,408
290,134,119,227,114,174,236,400
270,137,124,243,113,160,233,375
295,148,128,241,122,167,240,383
265,150,120,280,142,157,247,328
322,180,137,271,144,169,254,334
334,181,129,272,127,158,249,374
336,177,120,289,140,157,228,324
316,176,122,293,145,174,269,318
319,168,124,269,137,169,272,332
249,142,111,265,134,173,277,299
235,138,113,258,144,187,301,279
273,133,105,227,145,185,287,330
257,139,99,203,128,155,247,344
269,153,98,200,125,156,230,341
276,156,97,231,124,149,238,341
298,167,115,259,133,141,218,307
263,163,116,253,122,140,216,245
304,160,121,262,126,143,210,226
305,150,130,269,118,137,215,257
308,149,130,264,129,131,198,298
287,145,124,250,126,142,201,325
300,165,148,314,153,135,193,352
260,161,146,321,161,136,204,365
258,161,136,315,164,148,229,387
288,165,139,316,159,143,223,382
284,158,130,311,149,122,212,365
276,137,108,263,128,136,240,356
274,142,111,254,117,130,227,341
253,140,111,238,111,122,195,285
210,132,109,210,114,130,198,252
241,124,106,201,125,138,200,259
247,130,106,179,127,164,248,255
279,145,123,270,160,185,267,257
278,144,127,292,167,179,256,243
299,139,127,311,175,185,267,264
284,153,131,318,165,190,292,250
266,146,143,333,167,169,258,233
244,127,132,277,150,165,279,249
266,126,128,257,146,173,293,296
295,140,125,255,141,197,349,357
288,143,123,256,149,198,337,373
283,152,101,260,144,192,329,389
271,147,102,245,134,194,320,402
276,154,99,248,141,198,317,378
208,159,99,241,130,194,270,337
199,159,103,245,123,197,266,321
201,149,100,237,119,194,258,299
226,155,86,241,110,196,263,286
260,173,87,231,98,204,285,310
317,171,88,238,114,180,270,332
321,167,89,230,111,168,272,334
365,196,102,246,130,191,300,363
368,191,100,243,134,174,274,350
348,181,103,256,142,166,247,336
307,170,103,253,139,162,235,293
304,171,100,252,139,164,235,283
279,148,92,247,128,165,218,264
283,152,95,248,138,167,231,270
316,145,99,238,131,163,239,356
316,156,95,238,135,176,259,356
348,162,97,231,138,190,296,365
336,162,92,221,140,190,311,360
338,191,117,256,151,242,349,376
281,197,121,268,154,241,360,297
300,194,124,261,143,228,356,294
305,199,131,292,157,234,361,290
321,190,137,314,160,226,344,297
318,160,123,304,151,190,314,284
346,176,116,347,164,215,335,291
345,192,125,361,175,232,360,298
346,182,113,336,163,213,329,346
333,192,133,347,164,214,336,334
330,192,128,338,158,200,319,328
343,174,127,283,143,189,332,327
325,154,122,292,142,195,318,327
281,147,134,313,149,189,312,280
267,162,116,281,141,187,316,283
255,163,118,281,141,198,339,268
235,164,117,289,145,190,291,242
241,162,128,283,148,176,264,221
249,157,119,273,150,183,263,216
262,133,113,284,153,188,269,213
265,146,127,297,153,195,249,285
249,129,135,321,149,188,252,315
233,126,115,307,138,193,291,315
265,151,118,298,132,199,294,342
306,155,124,294,139,207,302,360
296,144,110,272,140,191,286,303
318,159,110,304,167,191,272,277
319,178,115,306,171,180,239,270
305,160,111,323,178,186,251,259
262,166,110,345,176,197,282,304
307,158,105,355,177,200,290,311
282,156,101,303,149,220,375,316
310,150,106,302,147,235,387,351
307,173,109,292,151,239,382,338
327,163,118,338,176,213,338,272
317,186,121,341,170,220,352,270
335,192,118,344,174,220,294,282
331,181,117,356,174,197,267,258
339,162,112,364,171,190,255,258
315,168,97,285,147,192,264,252
312,147,98,274,152,193,271,264
278,158,127,312,165,171,245,244
300,174,137,294,164,180,264,225
277,178,141,287,155,164,268,215
294,172,146,292,147,186,303,228
339,176,151,298,150,198,329,239
352,154,126,283,146,212,366,265
313,146,105,275,139,221,381,285
336,152,100,286,148,221,381,304
314,162,104,277,146,200,339,299
248,172,95,319,157,170,295,295
280,182,110,315,152,148,245,270
275,184,106,311,151,133,211,262
307,174,124,310,145,160,274,280
312,172,119,312,153,169,278,277
313,163,117,260,134,172,276,259
317,157,119,283,156,194,311,289
330,189,126,298,168,238,360,326
283,203,110,268,158,223,316,300
282,205,129,284,161,235,340,362
324,207,130,280,157,234,334,369
298,215,114,218,134,227,312,371
306,181,119,222,133,203,284,403
315,165,123,281,148,199,277,407
326,159,99,281,143,182,245,356
281,167,104,287,150,199,285,380
286,153,129,311,154,191,287,363
270,153,131,297,145,165,275,292
295,158,129,259,153,188,316,339
298,171,133,234,144,198,345,352
328,159,132,248,156,196,330,351
321,174,111,247,161,207,343,347
318,174,97,244,163,211,329,336
278,163,89,225,143,196,289,278
253,151,81,235,151,172,242,252
208,150,70,211,135,153,217,194
194,128,75,185,133,175,239,195
185,122,75,203,136,181,249,209
194,140,97,282,151,176,277,212
219,152,104,300,164,197,300,240
228,156,113,321,168,198,322,256
245,162,120,364,168,153,277,359
297,165,124,359,172,163,286,389
309,162,115,322,170,180,279,415
324,191,145,320,166,169,280,483
409,214,159,315,188,186,261,511
594,225,154,270,188,204,291,550
667,229,157,274,190,195,267,638
689,227,153,271,188,192,288,617
703,205,125,258,185,197,287,595
726,217,125,270,179,244,347,652
613,219,130,281,168,246,330,609
637,226,134,326,185,250,345,647
638,232,142,325,182,257,331,675
724,224,145,308,171,251,313,700
714,198,135,282,154,202,271,667
701,190,127,263,159,181,252,647
633,179,117,212,142,174,244,505
614,166,109,206,137,152,220,490
526,163,110,231,146,155,233,432
455,143,101,229,139,151,233,395
452,161,96,230,130,148,236,368
415,157,104,243,117,146,237,366
394,175,108,275,141,153,245,340
359,203,104,255,133,165,269,306
343,212,101,267,144,165,273,289
356,212,136,384,196,189,291,273
334,211,126,366,193,185,291,272
361,198,123,356,193,211,324,275
420,196,123,398,209,232,341,325
456,194,130,425,215,234,329,347
512,199,118,359,186,244,356,465
552,208,127,379,197,243,348,453
573,215,133,404,200,239,340,500
519,200,150,406,199,226,354,509
491,192,144,389,193,217,353,479
487,177,136,371,190,216,323,458
469,177,140,390,198,219,342,476
426,174,142,383,191,209,323,427
446,185,121,347,185,192,271,398
517,231,123,368,191,218,283,437
460,235,119,351,180,203,292,405
463,238,143,373,191,233,326,408
478,228,137,337,181,227,332,454
565,233,142,387,208,247,341,463
498,206,160,411,210,225,317,438
518,198,155,411,211,213,300,387
499,199,135,360,188,195,275,417
499,207,128,388,199,190,267,396
392,196,147,367,179,164,256,438
418,256,192,455,227,200,285,439
378,253,203,472,233,210,298,467
430,271,214,499,249,209,304,449
487,283,224,507,261,239,319,507
526,284,214,484,251,234,305,470
521,222,183,396,214,211,292,477
531,255,177,380,208,211,291,481
509,262,160,363,192,207,275,490
460,249,161,340,164,184,267,407
438,249,157,370,174,188,267,397
474,245,138,336,166,219,335,435
481,216,145,350,176,214,345,446
471,182,162,411,197,222,340,423
456,187,157,402,202,221,351,471
416,191,169,392,200,226,359,514
399,205,175,404,206,230,370,617
398,208,175,427,235,243,371,596
386,216,154,354,223,248,400,600
385,207,152,377,222,243,389,574
426,206,158,417,232,239,384,531
368,187,141,441,245,215,313,351
327,169,130,417,210,213,312,340
295,157,128,405,195,182,247,299
283,161,132,403,200,201,275,293
192,173,120,433,222,207,283,283
192,196,123,436,201,194,270,285
205,202,131,433,209,196,256,312
239,206,160,495,241,215,281,397
235,198,154,482,230,191,263,373
255,182,142,410,189,175,255,379
298,173,139,339,176,176,290,416
294,183,136,356,175,152,288,394
287,173,111,293,145,140,287,333
319,185,110,285,152,144,270,377
320,174,124,288,158,161,305,414
357,165,123,286,159,179,328,378
373,186,124,259,150,192,341,417
412,184,118,240,146,187,342,447
408,175,116,288,182,210,353,461
387,180,108,352,213,205,323,429
344,177,107,362,219,198,286,436
316,140,94,353,218,189,263,392
248,130,95,349,216,198,261,342
212,137,102,327,192,192,264,276
220,155,104,294,163,179,256,264
194,152,111,347,177,181,257,234
222,170,120,377,179,188,253,257
229,176,118,382,175,180,240,289
230,175,112,374,169,163,230,285
232,168,122,385,171,185,273,277
262,170,125,367,160,173,253,277
252,151,123,355,164,164,272,261
304,161,123,356,162,161,270,344
326,160,123,376,176,147,246,365
374,155,113,322,167,138,206,403
369,157,99,301,169,139,224,413
364,182,96,284,169,143,208,436
342,182,95,284,177,166,267,399
329,192,95,235,157,174,279,408
289,200,94,225,149,171,290,370
297,213,114,260,146,171,289,364
308,202,112,263,145,160,286,341
281,190,109,247,136,147,234,294
272,191,123,274,149,149,236,257
261,194,126,319,175,153,233,264
232,187,125,287,168,161,225,261
191,195,121,282,162,166,226,242
188,198,150,336,184,163,220,217
198,192,139,321,176,159,203,220
191,170,146,316,168,151,182,216
196,176,146,348,161,138,178,188
219,167,148,347,159,139,169,199
234,165,130,310,135,134,169,195
233,180,139,330,128,136,170,195
263,201,121,306,104,128,173,204
277,204,125,260,107,134,170,245
268,216,132,280,110,143,193,258
251,232,134,253,100,161,201,286
255,218,125,226,112,185,240,289
251,223,126,210,126,216,270,293
226,208,115,211,137,236,301,269
240,185,115,219,146,238,299,252
275,184,125,232,164,239,313,265
288,184,129,237,158,221,283,273
273,160,140,259,170,201,254,253
269,172,136,251,160,176,225,248
273,184,137,248,158,162,202,238
274,175,122,263,145,133,160,192
282,206,133,293,154,121,164,176
319,241,124,276,128,118,161,183
357,292,131,278,128,103,130,173
348,298,127,263,121,105,137,184
347,334,135,257,123,152,265,238
366,334,116,203,105,157,261,230
325,309,114,201,105,156,271,226
301,268,116,196,112,171,293,270
314,260,108,171,107,183,325,293
316,260,108,142,105,174,262,272
377,274,133,184,149,182,277,302
396,306,144,229,165,199,296,322
442,331,150,254,164,198,293,309
439,343,159,267,178,190,259,282
429,329,162,283,174,170,244,286
340,310,144,307,163,169,247,279
332,282,136,292,150,146,240,284
263,242,125,281,153,137,243,286
271,226,110,321,151,135,250,302
301,210,122,384,195,215,367,292
297,191,123,366,188,213,372,283
293,177,116,358,190,214,382,283
292,160,115,364,193,216,375,269
277,150,115,319,181,214,368,247
243,118,81,236,132,133,243,243
245,149,78,219,121,128,220,250
239,154,77,214,113,121,181,242
225,174,77,207,102,135,215,236
213,184,75,207,103,144,235,239
196,181,93,223,118,150,242,230
207,169,124,240,131,153,245,216
201,173,135,276,153,161,247,186
214,161,135,266,163,142,210,192
232,143,137,290,173,134,198,204
239,168,144,324,202,154,229,222
227,168,122,333,202,148,215,217
224,177,111,311,192,150,246,218
220,194,116,322,191,153,249,200
209,199,115,318,185,148,248,190
187,182,93,264,144,121,218,160
175,164,90,217,129,121,231,152
161,145,101,233,119,109,199,149
132,128,90,206,103,129,222,168
113,125,95,184,98,135,212,158
109,108,96,174,91,134,201,163
122,111,89,180,91,137,215,167
140,115,76,142,94,132,198,177
136,109,73,137,95,105,160,157
157,115,65,142,93,110,177,158
191,118,63,144,104,104,195,165
196,130,70,153,113,99,174,146
186,131,69,161,118,102,178,134
204,125,74,202,128,111,190,141
222,135,96,258,232,128,185,158
199,142,102,318,292,161,180,147
184,141,106,324,295,169,248,158
196,155,110,335,299,168,254,154
183,184,108,322,296,164,247,171
158,217,91,281,230,159,274,168
167,219,84,208,141,126,261,167
243,228,99,223,149,155,264,176
241,218,102,257,152,160,268,184
239,201,109,257,151,170,292,170
236,154,111,257,145,156,263,171
226,155,111,269,144,155,263,165
160,134,94,252,127,114,210,177
153,129,83,188,101,108,200,172
155,117,76,170,95,94,163,188
167,130,76,155,85,92,153,177
170,120,77,136,81,96,169,183
151,120,73,113,70,86,140,160
146,125,72,99,67,77,129,157
161,129,72,95,65,77,146,142
150,132,72,99,74,96,163,155
153,128,63,108,78,89,142,156
161,136,61,128,86,101,156,154
167,140,62,131,88,107,164,159
150,135,63,140,89,104,152,165
142,110,60,159,87,88,137,168
148,131,64,166,83,89,151,197
147,124,63,156,79,77,134,209
158,126,60,158,79,78,136,228
150,132,72,149,78,89,161,219
145,140,67,132,69,87,160,210
130,126,64,103,67,83,153,185
125,140,74,102,61,94,176,180
109,129,75,101,57,88,168,145
142,130,72,116,71,76,148,157
147,127,77,112,75,83,158,158
155,137,82,117,77,83,152,177
160,130,93,124,93,79,131,175
158,128,99,144,95,88,161,176
140,123,91,146,84,88,156,165
135,167,104,226,106,81,148,170
126,163,109,254,110,94,161,179
131,185,99,258,101,88,156,175
146,196,96,259,117,116,179,208
150,209,96,269,125,117,176,222
149,190,81,226,108,115,168,231
141,185,71,199,102,109,183,224
145,155,63,203,103,115,195,233
127,140,65,207,89,84,151,213
109,120,70,197,79,95,186,193
104,92,70,176,76,101,193,177
108,83,72,175,74,97,172,161
79,76,70,153,64,87,156,137
79,91,77,172,66,96,179,121
83,87,74,175,82,95,148,121
78,88,77,190,86,90,142,145
84,112,76,197,94,90,147,167
89,114,76,196,95,90,149,174
89,112,63,156,87,74,117,179
85,115,60,141,73,53,105,177
87,119,62,114,69,76,146,198
85,109,75,132,78,84,158,187
84,107,75,135,74,85,167,186
108,100,82,174,96,110,205,191
119,104,89,172,94,114,212,217
130,121,88,205,111,105,189,194
128,113,90,219,110,98,175,177
126,121,104,235,122,110,207,175
106,125,102,221,115,95,187,222
145,147,115,353,156,166,273,237
149,133,112,346,152,175,287,238
161,141,115,361,157,193,325,259
170,136,105,362,153,197,319,325
218,139,112,383,170,226,354,320
210,128,94,291,143,187,301,325
229,129,100,308,143,189,306,325
252,145,109,307,141,178,280,321
265,150,118,302,142,168,262,259
254,150,111,265,113,136,241,277
239,135,131,288,124,146,274,296
219,133,141,294,149,149,265,298
213,144,132,267,155,149,266,296
207,157,126,279,168,174,290,314
183,157,126,293,174,166,259,307
186,183,112,281,174,166,211,284
209,198,105,312,168,160,196,282
227,209,92,306,165,155,174,321
235,200,88,291,155,141,156,302
282,218,131,316,153,174,196,311
305,210,131,305,144,170,199,287
298,202,128,247,121,164,203,290
275,195,176,297,142,209,292,260
263,190,181,319,150,209,296,256
240,197,187,370,167,242,391,294
216,198,191,381,176,259,406,362
214,199,193,389,190,281,444,388
246,202,165,432,201,276,456,521
333,220,168,425,202,300,488,581
333,205,152,373,218,325,520,610
436,224,155,350,213,369,592,623
462,226,156,336,204,370,591,621
484,223,157,268,182,359,578,565
523,225,159,286,180,371,588,567
532,220,157,268,147,331,504,552
504,201,148,274,146,295,496,548
518,206,161,312,152,305,506,545
513,212,155,370,161,314,513,518
462,225,166,365,170,280,487,482
468,231,179,377,165,269,485,438
508,236,191,446,181,255,442,498
521,242,210,490,204,221,404,535
504,235,214,467,211,241,435,527
466,224,224,485,203,271,483,544
509,251,217,524,225,295,541,564
494,272,235,544,287,320,555,488
463,261,210,498,275,349,595,479
462,248,214,484,268,339,545,485
472,239,204,474,273,333,507,471
396,208,206,456,292,336,454,443
329,186,182,368,224,306,417,474
307,180,180,416,233,276,369,433
347,191,169,400,239,253,349,454
364,199,149,393,234,227,336,475
379,199,142,369,189,173,333,504
360,183,145,371,186,185,331,461
351,208,179,394,202,192,322,472
304,196,192,393,191,222,343,434
264,180,190,397,196,219,318,401
236,202,211,424,198,278,436,369
206,203,210,427,201,270,424,344
239,184,177,360,191,316,472,354
231,191,169,363,188,326,500,352
245,198,172,349,197,335,511,331
253,169,133,309,195,305,427,319
259,156,129,307,212,358,491,323
227,149,133,320,215,318,467,283
222,196,129,359,234,299,433,275
202,191,128,349,222,298,450,253
208,195,131,353,230,291,424,260
206,197,119,373,230,233,352,273
210,234,136,351,203,236,336,280
252,212,131,305,179,237,325,288
289,222,152,378,230,277,424,327
307,260,155,389,235,272,410,307
311,272,152,371,222,259,401,310
305,238,147,368,236,253,385,306
271,218,148,371,240,261,421,307
231,202,127,336,199,201,274,256
221,185,122,308,199,216,297,252
233,201,146,325,196,235,315,227
244,206,129,319,184,227,303,241
243,224,153,375,191,228,280,221
254,228,151,335,177,230,283,223
235,205,166,371,183,209,289,209
231,179,150,361,190,199,275,272
223,173,154,367,195,202,289,258
218,154,128,338,195,164,253,258
214,148,132,358,205,167,253,266
199,133,102,325,183,164,233,267
183,154,126,414,198,154,249,218
168,161,130,406,188,150,235,197
175,154,124,361,164,159,260,200
169,153,141,362,154,153,262,194
178,158,142,357,149,144,246,204
172,130,114,245,110,131,207,189
175,120,105,237,98,126,206,193
155,118,102,260,110,119,161,198
153,116,67,231,107,129,158,211
176,109,73,257,116,134,184,209
176,103,74,233,109,147,201,202
175,129,87,257,116,154,203,214
173,131,94,240,106,156,223,184
176,150,96,274,115,147,224,161
144,159,100,251,113,150,218,146
135,167,111,244,112,129,193,140
136,154,105,229,113,153,255,127
127,147,97,216,112,141,238,136
119,137,94,159,97,142,231,140
111,125,85,155,97,148,253,133
135,131,72,164,99,145,251,150
140,132,73,149,103,144,238,151
143,136,75,148,106,159,255,156
170,125,86,196,118,160,266,154
167,127,88,197,124,151,240,167
163,101,86,187,123,158,251,162
167,100,86,203,115,122,200,147
179,96,97,210,116,112,185,210
153,113,102,203,111,110,172,267
174,119,104,203,102,104,166,281
168,121,104,208,105,98,153,277
159,113,130,281,128,114,154,285
174,131,129,288,129,106,150,247
171,122,121,287,132,110,140,196
160,118,119,281,135,131,188,176
182,129,127,317,151,135,184,224
181,127,93,242,133,129,185,211
154,110,102,259,143,142,190,199
156,101,97,237,137,136,194,183
146,92,100,247,136,120,153,174
109,73,82,193,109,114,151,187
113,91,88,200,109,110,145,239
114,99,78,178,98,118,168,254
104,101,84,200,106,120,168,254
109,121,82,193,99,116,166,267
108,127,91,197,101,110,173,220
103,112,87,186,103,104,163,168
96,107,82,173,94,72,136,136
94,105,90,177,97,63,123,134
85,81,101,267,132,91,138,128
80,73,98,300,149,97,135,124
92,72,100,325,156,103,165,134
98,76,102,331,156,109,171,150
106,75,95,339,155,109,176,153
103,71,76,269,127,89,152,129
108,80,73,236,108,80,147,141
110,93,77,208,99,87,128,152
115,82,68,195,96,81,116,151
111,84,64,152,87,82,117,176
118,85,75,163,96,97,131,242
130,89,79,161,105,106,138,242
132,97,83,247,136,104,132,226
122,104,83,255,136,105,133,227
134,112,85,256,135,109,133,208
129,113,80,254,136,102,130,142
120,105,79,253,129,98,133,168
115,104,69,158,92,104,136,181
150,139,100,168,112,112,152,197
148,138,97,167,119,124,153,200
153,146,96,189,123,116,142,192
166,163,95,246,153,159,197,198
196,179,100,252,151,150,187,190
180,150,71,239,140,161,211,185
198,149,109,279,150,154,211,196
211,157,118,266,142,160,219,211
240,141,125,254,117,147,221,219
213,121,123,245,115,150,228,215
220,133,123,249,113,139,221,201
198,141,97,212,88,137,225,194
181,124,93,206,95,140,224,188
121,153,88,166,86,105,185,136
130,148,90,211,102,119,192,152
112,150,90,210,100,108,159,160
140,143,86,209,104,111,177,166
135,140,79,203,95,102,169,163
164,122,67,192,100,109,165,188
175,121,64,146,87,95,158,179
185,125,71,138,89,105,167,227
166,130,80,160,96,99,137,221
195,143,82,185,110,116,185,265
219,156,98,233,121,164,274,294
242,165,114,269,159,214,334,344
262,160,118,298,184,217,345,352
354,173,122,314,196,235,377,400
430,189,127,325,221,273,459,404
540,216,133,363,254,292,450,400
573,214,137,383,304,274,410,385
620,261,164,449,384,290,412,362
579,253,164,469,425,296,422,308
598,260,166,538,454,293,362,395
496,247,184,555,460,252,328,385
450,244,181,548,429,244,337,357
387,196,163,511,363,227,325,366
482,205,162,487,316,245,348,377
429,183,159,408,261,208,299,259
476,198,130,376,267,241,294,250
502,220,126,378,257,255,345,266
513,217,123,353,276,271,352,266
443,210,124,355,270,272,373,267
449,226,144,458,304,290,403,276
402,191,139,437,263,269,409,261
424,200,158,516,307,277,415,301
444,207,150,526,289,267,433,286
473,219,148,541,327,258,401,298
429,199,150,465,314,252,381,302
432,204,160,491,349,275,381,326
385,170,140,410,347,254,340,293
360,187,148,457,401,267,335,300
327,189,149,552,450,281,345,303
366,195,147,595,454,263,326,281
348,206,161,616,448,237,318,295
339,235,171,654,458,234,300,282
321,229,176,711,529,232,294,270
318,272,179,620,493,257,303,285
275,266,167,598,510,265,307,292
270,258,152,557,494,278,322,264
287,262,146,541,522,325,382,297
288,260,136,500,478,346,391,296
279,218,143,506,452,291,325,268
274,224,144,466,418,283,323,268
284,216,147,486,444,268,293,274
315,189,164,543,448,212,204,259
350,183,173,458,380,235,295,291
332,170,160,453,376,240,304,282
324,181,170,496,368,246,319,276
322,178,178,480,334,250,327,255
273,174,153,348,211,238,318,234
190,165,144,332,170,159,192,207
197,167,148,354,175,192,229,210
196,138,135,295,166,182,203,192
196,145,112,248,165,189,215,212
177,147,120,234,161,217,263,221
188,143,113,232,149,208,257,191
160,123,102,177,119,167,217,172
168,138,97,283,150,168,216,176
144,149,95,294,138,144,194,155
150,138,82,298,128,104,149,150
130,134,82,304,132,110,153,145
134,172,130,339,144,127,192,159
122,178,128,309,130,136,218,160
133,164,125,304,132,144,225,171
146,175,125,306,133,150,225,155
177,189,122,293,125,163,252,161
203,157,80,269,122,159,245,170
223,145,80,183,100,150,221,191
225,146,78,158,96,142,243,181
233,153,94,192,97,137,252,208
223,143,91,196,92,125,265,222
208,139,89,200,91,129,257,225
188,139,85,224,97,141,278,211
192,142,92,230,100,158,283,219
194,153,82,224,112,163,272,231
210,160,92,221,122,193,296,222
239,171,92,198,115,203,312,235
252,180,97,201,119,200,307,289
247,199,98,221,123,208,321,307
243,177,94,192,105,205,325,293
221,175,100,206,116,177,276,298
208,187,108,220,124,167,260,280
187,185,112,205,117,164,260,223
183,171,109,187,114,143,221,182
169,168,106,183,113,142,209,160
177,161,94,160,90,124,201,153
148,136,77,141,78,115,192,143
143,142,75,137,81,111,180,129
149,133,75,130,74,102,171,151
144,128,74,139,75,106,174,146
123,122,70,143,79,122,170,134
139,122,76,166,88,118,156,141
142,92,65,155,84,116,150,147
131,77,58,152,82,117,155,114
141,76,61,150,85,110,173,115
152,92,66,159,86,91,171,119
126,91,57,123,75,84,175,100
136,108,58,123,76,90,188,97
132,114,57,126,79,100,210,113
114,121,55,116,73,91,183,109
120,117,56,97,66,92,188,110
127,121,56,97,63,98,195,118
118,120,64,92,62,95,190,124
137,123,73,83,59,79,150,118
156,135,79,137,71,83,153,114
148,130,81,145,83,91,172,119
146,124,91,148,88,109,194,165
177,134,85,154,91,110,199,166
167,141,80,159,93,112,207,169
154,127,72,127,85,107,202,170
163,126,63,116,71,105,198,163
190,137,52,127,65,86,173,124
170,135,60,120,57,81,169,116
174,136,60,112,59,92,180,108
177,147,66,127,63,103,191,112
165,151,68,141,70,107,201,120
147,151,68,133,73,106,197,117
140,131,60,141,73,105,188,120
129,131,62,151,71,105,182,120
119,116,55,129,65,94,169,115
123,116,58,114,59,87,145,108
107,104,53,114,55,82,137,91
101,110,59,107,51,81,135,100
108,92,56,84,43,65,131,102
118,104,57,83,41,69,137,106
116,96,51,86,46,70,130,104
111,102,54,79,49,74,153,109
113,108,48,75,48,69,146,94
134,123,43,77,48,60,130,106
131,111,46,82,48,58,129,104
137,115,50,81,45,52,127,102
151,109,49,84,45,43,91,98
152,100,49,86,48,59,121,95
126,85,50,86,50,61,117,69
130,87,48,85,54,63,115,73
121,88,45,81,52,68,119,70
114,93,43,77,50,89,177,76
128,102,40,80,47,80,161,75
133,95,42,75,47,85,167,78
122,98,47,73,42,85,172,67
123,97,47,83,48,88,173,73
111,108,54,88,52,68,117,66
96,108,58,87,53,71,116,66
91,109,57,86,49,71,120,65
100,106,51,83,50,68,111,67
96,100,49,71,48,60,94,60
124,85,43,71,46,61,93,70
116,77,37,65,48,63,114,78
126,84,39,84,52,60,102,82
119,88,40,83,51,60,109,86
118,95,40,82,48,60,115,87
89,89,42,86,46,60,115,90
91,97,44,84,44,67,108,82
78,95,38,72,42,73,128,80
75,90,42,74,44,76,133,77
81,87,42,76,44,76,130,79
90,94,42,69,43,79,143,71
86,80,40,65,43,74,133,69
93,75,43,56,42,68,118,67
100,86,39,60,38,63,103,69
98,85,41,61,37,71,115,68
87,84,40,63,41,74,125,63
89,83,40,70,40,72,123,64
85,81,37,77,39,68,121,64
78,74,43,78,44,70,122,56
78,89,41,77,46,62,117,51
79,86,41,73,42,52,88,48
76,84,41,66,43,50,83,55
93,88,44,72,46,55,83,57
90,82,40,68,44,54,79,56
92,64,38,68,45,52,78,58
101,73,36,71,45,55,83,59
102,80,41,75,47,52,83,54
81,78,39,66,44,46,77,48
85,84,38,66,42,51,100,58
96,84,39,62,37,59,106,68
91,75,40,65,45,67,112,67
89,79,39,72,46,68,113,63
96,90,45,72,46,70,121,72
98,86,44,70,46,66,108,72
83,84,44,74,48,57,95,63
75,81,42,71,42,44,79,64
74,83,40,77,37,44,91,65
73,74,31,76,41,50,97,63
76,75,32,74,42,53,95,56
74,76,36,75,46,51,93,55
79,89,35,74,46,57,111,54
85,82,36,58,47,60,108,61
85,90,39,60,47,60,98,56
77,88,40,62,49,70,112,60
78,100,39,62,45,70,112,64
81,92,39,60,47,64,91,64
81,96,39,59,45,63,92,61
79,84,37,66,43,61,93,67
80,85,37,75,45,49,74,64
79,81,37,76,44,49,80,62
77,89,41,76,39,50,85,63
89,86,43,84,45,66,106,71
91,87,47,88,45,64,113,72
104,95,53,104,47,62,116,78
111,86,55,101,48,75,151,88
111,71,53,105,51,76,155,87
101,65,55,100,48,63,139,79
102,69,53,98,51,63,131,77
88,61,48,75,46,62,128,72
95,69,56,119,61,64,118,88
93,70,61,127,60,65,112,98
115,75,61,149,69,84,138,106
118,74,63,181,83,86,143,120
127,80,63,184,88,98,167,131
149,81,54,168,88,116,202,151
150,88,50,172,94,140,239,148
144,93,56,163,89,140,236,156
154,110,59,132,79,148,253,147
170,114,62,135,81,147,255,150
174,117,64,131,77,133,221,161
183,111,66,118,75,121,203,168
189,117,62,104,78,145,261,170
183,105,55,93,72,137,245,176
171,98,61,100,82,174,330,210
167,108,59,92,78,175,335,183
164,116,61,89,73,172,333,182
165,109,63,102,70,144,283,182
157,106,62,104,72,147,294,176
151,102,53,101,61,93,173,126
130,88,52,107,62,82,157,135
123,85,47,105,61,67,131,126
95,81,44,95,61,73,137,119
100,86,47,91,59,69,128,117
104,89,48,81,53,70,127,113
91,83,48,73,53,67,127,92
87,94,50,83,51,69,128,86
90,94,49,83,48,61,128,73
91,90,47,87,50,48,109,67
77,87,50,88,48,52,120,67
77,83,50,91,43,57,122,83
74,71,49,81,44,53,119,83
76,70,48,79,47,52,106,82
68,71,47,75,48,62,110,87
79,71,46,64,48,60,103,88
94,93,50,64,50,61,93,75
102,87,47,67,51,64,92,82
98,89,54,76,51,67,106,95
107,84,55,77,48,60,101,98
100,96,54,80,49,60,100,103
87,79,51,90,52,60,114,118
78,86,54,87,54,71,131,126
76,85,53,82,53,66,118,128
58,91,56,94,59,70,126,128
61,79,57,99,60,72,131,131
62,80,55,98,57,70,122,121
67,82,54,102,54,58,102,131
76,84,52,107,59,81,140,141
81,82,52,104,55,86,155,171
78,81,54,115,55,83,162,178
86,88,57,119,57,91,192,184
108,102,57,133,69,94,202,180
113,99,60,139,66,87,208,172
130,112,64,143,70,82,196,148
150,123,62,139,77,88,204,142
146,123,66,156,89,107,220,149
135,105,67,156,87,112,221,144
131,107,66,152,93,110,206,158
120,93,61,157,99,122,221,153
97,76,58,149,94,117,202,146
99,69,54,122,80,92,151,143
96,73,50,104,72,85,149,138
89,77,43,93,63,82,133,112
87,76,38,66,49,60,94,116
86,78,39,73,46,59,98,132
89,76,43,78,49,68,117,137
93,74,45,86,52,64,104,143
98,72,45,87,50,57,105,152
95,77,46,89,48,69,130,146
105,72,49,84,49,74,136,146
108,92,46,89,49,66,117,143
103,92,48,89,48,71,124,139
99,99,47,90,46,83,148,134
96,96,47,93,48,73,131,148
95,101,44,97,57,72,126,160
85,103,59,111,59,75,139,147
97,124,65,117,61,71,138,148
103,118,63,115,62,57,110,158
105,116,72,113,61,64,115,146
94,114,71,108,53,59,110,119
94,97,57,93,47,56,98,115
82,69,49,92,54,67,132,107
76,60,52,96,57,69,136,94
78,61,39,99,61,74,146,92
87,58,45,103,64,81,157,89
84,55,44,104,65,88,165,88
79,60,45,93,55,77,134,83
75,61,43,90,52,75,126,72
87,58,46,86,47,67,112,71
74,62,41,78,42,58,94,67
82,61,47,71,38,42,72,70
80,48,49,74,43,53,91,69
81,47,50,77,43,54,95,65
58,58,50,89,48,49,89,61
67,76,57,96,64,89,155,67
100,79,58,102,72,102,178,92
103,81,57,98,72,101,173,101
128,110,61,98,76,108,193,112
131,109,59,96,75,109,192,114
136,103,59,93,68,96,172,132
113,110,53,82,61,87,153,119
115,109,52,86,59,82,154,111
91,82,47,80,55,75,130,105
90,83,54,71,49,73,129,111
86,78,46,65,46,64,119,100
92,69,45,62,45,58,110,107
87,68,47,65,45,63,115,117
84,70,49,67,43,60,110,127
80,62,37,59,42,59,109,151
73,60,41,71,40,51,85,174
60,55,42,75,42,54,91,192
57,54,41,65,38,45,74,190
55,60,38,75,41,43,70,181
57,58,39,75,43,48,83,155
53,57,35,65,43,43,72,114
47,57,43,89,48,38,67,64
52,62,43,90,51,37,67,51
49,61,45,82,48,44,86,49
52,68,48,93,48,41,83,57
57,67,48,96,50,44,88,64
59,66,44,77,46,49,93,68
64,67,41,97,54,53,94,73
69,69,40,100,55,55,109,101
63,64,38,92,54,52,103,146
60,67,44,94,56,48,102,151
74,67,45,109,61,50,109,167
73,66,62,124,67,69,149,186
88,65,62,127,74,65,130,177
96,69,65,137,77,75,154,153
106,75,69,142,76,83,164,203
102,96,68,128,70,82,163,246
109,99,59,102,59,75,138,257
100,97,58,101,54,78,159,278
93,98,57,89,53,71,141,308
103,97,60,110,53,88,186,319
104,95,67,122,57,97,191,289
104,102,66,129,60,94,186,274
119,109,72,139,67,141,271,264
140,125,87,184,87,147,273,259
144,129,87,177,88,150,268,227
158,138,89,214,98,152,284,262
178,165,103,216,102,179,327,268
191,171,121,213,105,178,315,335
199,167,117,203,104,191,348,332
214,177,123,225,123,221,364,386
268,186,128,184,116,227,374,376
256,158,119,182,115,223,368,387
336,159,108,195,113,201,321,350
338,164,106,189,104,197,318,350
371,184,101,198,102,180,324,315
342,175,94,204,106,184,320,309
345,174,92,202,107,166,295,295
261,166,81,189,108,188,337,292
251,164,85,200,114,187,311,273
230,128,86,181,103,167,275,233
213,115,88,180,99,150,253,239
213,119,85,179,89,149,246,230
216,120,92,186,92,137,217,234
229,132,107,219,115,126,205,226
198,148,102,221,116,117,186,233
196,157,98,244,119,151,252,242
209,156,99,243,121,152,255,252
198,153,91,239,112,143,248,228
174,151,73,186,75,151,272,240
197,134,74,165,70,184,331,229
210,139,81,140,64,162,302,224
267,140,93,152,71,166,300,235
280,168,106,152,81,165,283,236
297,167,107,144,88,160,278,238
279,173,123,165,98,122,208,243
317,169,145,158,100,124,195,216
259,172,151,148,106,158,250,197
264,152,171,156,110,158,246,188
256,168,244,183,125,164,239,208
251,178,250,182,121,165,237,247
201,169,260,176,120,164,230,245
201,177,257,187,123,147,214,249
192,183,241,231,136,143,218,257
205,157,160,217,121,131,205,251
194,142,138,211,122,138,243,241
180,155,84,212,123,134,236,238
185,146,70,204,113,116,211,226
160,135,65,138,84,109,203,202
138,137,65,132,88,126,233,183
136,135,65,126,76,112,191,136
138,115,71,145,84,143,242,144
149,114,69,147,83,135,225,152
163,127,71,153,81,133,223,156
147,125,81,169,81,124,215,159
152,122,80,168,82,130,222,146
147,123,81,157,74,112,228,144
140,123,98,158,81,131,259,141
139,111,98,151,85,136,269,161
158,114,92,134,89,146,290,174
158,115,92,133,91,142,290,177
165,149,89,161,109,134,244,181
163,160,71,168,105,130,240,173
167,164,72,178,104,132,250,169
182,162,73,172,95,114,205,138
174,158,71,168,92,111,193,132
174,135,61,135,67,104,196,119
164,118,58,114,71,104,185,131
157,116,67,129,81,100,160,120
120,107,62,127,76,97,155,117
122,108,58,126,72,97,156,112
118,94,64,135,77,99,163,106
115,94,68,148,75,81,126,89
106,96,55,124,64,78,135,81
100,108,59,126,65,84,149,85
114,114,63,130,73,85,153,85
102,113,56,133,77,82,142,89
101,116,51,140,84,88,168,98
94,100,55,152,87,88,158,99
96,88,59,159,91,84,148,101
76,77,59,167,97,84,140,116
80,75,59,158,88,88,168,111
82,66,61,167,87,77,142,114
113,70,55,176,90,73,145,112
120,75,50,175,92,79,150,124
124,82,53,171,84,77,155,127
124,96,59,193,94,67,126,198
127,105,59,174,88,67,126,221
111,119,63,201,100,82,159,230
111,120,62,205,96,84,169,243
124,129,67,212,96,80,165,240
131,129,66,198,90,83,155,187
139,128,66,203,90,93,171,161
145,120,73,198,83,83,144,173
136,117,71,191,86,93,164,154
125,110,70,183,86,106,183,163
110,95,69,190,89,104,188,177
101,99,72,186,90,98,173,176
104,122,65,145,80,101,172,151
117,125,73,147,81,96,147,149
118,125,75,146,85,87,122,138
121,131,81,141,84,87,114,118
126,130,79,147,85,91,133,108
118,106,82,150,88,97,176,120
138,118,76,145,87,92,176,129
134,117,68,173,97,101,191,122
133,115,61,166,94,100,194,121
122,106,77,193,102,106,203,136
121,110,77,191,99,106,178,133
93,92,81,203,103,104,173,110
102,106,82,183,91,101,169,119
107,116,82,179,89,102,175,123
123,124,68,141,75,88,148,130
117,115,69,156,73,78,141,120
112,124,76,184,85,81,135,121
111,124,74,176,81,77,142,122
114,120,73,185,87,89,152,124
103,123,81,190,90,112,191,117
104,137,85,205,108,114,183,118
105,148,83,187,94,116,199,119
102,133,84,190,101,111,182,110
95,126,91,196,110,129,231,115
97,119,82,199,108,113,211,106
109,103,86,180,96,116,239,114
113,90,78,163,97,117,245,125
120,94,78,158,89,123,254,150
147,121,73,154,83,99,208,189
166,129,71,144,85,120,242,206
158,128,56,125,79,130,252,205
159,125,55,129,82,128,241,201
164,147,57,148,96,135,261,203
141,134,54,145,90,132,253,175
110,133,56,153,94,114,216,272
116,141,52,158,93,91,169,490
124,139,56,159,88,86,162,517
109,114,58,140,75,79,144,547
113,112,60,136,80,80,154,562
117,110,63,143,83,76,152,522
109,107,64,142,82,90,165,339
92,105,60,131,81,96,174,297
90,113,55,132,79,89,145,228
119,137,65,185,90,87,131,214
116,137,60,183,88,93,134,191
113,134,59,187,89,88,146,166
115,130,64,205,98,83,138,169
136,137,63,210,104,85,140,168
112,128,50,156,85,80,136,184
117,127,58,161,83,75,131,209
125,127,70,169,84,75,127,366
130,144,65,145,72,89,144,380
115,145,67,154,70,87,149,382
116,138,71,159,74,86,146,356
112,134,68,160,70,91,168,341
105,133,56,155,71,83,147,179
118,118,58,160,70,68,136,149
114,100,61,159,69,64,129,144
115,100,62,160,65,70,153,145
117,114,60,140,63,62,135,149
120,122,63,161,68,71,144,139
105,128,61,160,71,70,129,130
107,144,57,155,72,88,152,121
109,157,53,153,73,82,128,115
120,151,51,153,71,81,123,107
119,157,57,128,64,75,114,82
121,159,56,122,60,75,120,74
120,147,53,99,58,57,89,66
114,129,64,131,71,75,133,101
103,126,66,129,72,76,132,102
93,116,65,145,75,75,135,108
82,108,68,167,86,81,149,108
73,106,72,189,95,90,157,108
70,118,60,172,88,91,154,90
89,126,73,194,97,94,154,97
105,136,71,184,93,96,155,97
111,136,68,175,88,90,136,108
116,138,72,178,95,88,158,143
128,123,72,175,93,78,132,133
113,119,57,154,88,76,136,132
112,105,59,175,96,72,126,137
107,101,62,177,102,90,163,124
104,123,61,179,97,97,159,83
92,127,59,178,103,97,157,89
90,123,67,179,104,119,214,111
76,126,63,167,101,120,218,107
77,128,67,166,92,110,201,108
80,113,66,160,86,98,184,113
95,111,68,159,81,106,203,136
107,124,77,211,100,78,144,119
110,124,76,204,94,76,140,111
113,138,77,209,101,81,145,113
116,137,76,194,95,76,140,117
101,137,77,197,91,70,117,92
86,122,59,144,66,73,109,89
84,130,58,131,65,73,112,97
81,133,53,112,60,80,120,101
70,126,50,113,63,83,134,98
63,117,46,111,62,77,124,90
71,125,55,129,69,87,142,95
71,113,53,148,79,94,145,97
67,85,51,150,80,83,121,99
67,97,58,176,89,99,147,134
90,104,63,178,93,105,156,163
85,102,59,169,96,98,148,164
95,102,62,157,87,91,141,279
128,110,69,154,83,106,184,373
134,117,68,121,70,92,156,396
129,149,86,152,72,100,165,398
147,173,93,182,67,109,184,412
154,197,96,193,76,111,186,371
134,195,91,212,89,100,146,289
136,189,91,220,101,110,169,441
149,173,71,202,98,98,152,858
142,164,60,165,94,83,123,1187
138,152,54,159,98,87,123,1194
145,154,50,138,91,87,125,1195
186,158,46,137,86,98,116,1143
173,155,43,122,87,101,119,872
175,168,54,126,95,106,124,276
176,157,60,130,91,99,126,214
171,168,65,121,89,101,153,208
123,164,64,115,83,78,145,182
125,172,70,136,86,75,146,170
110,141,75,139,80,70,141,210
123,135,75,147,84,72,138,213
121,137,85,149,83,71,112,220
117,135,84,143,79,69,101,207
121,122,82,155,92,65,100,209
125,128,69,152,90,71,101,163
117,140,65,145,90,78,111,139
123,127,52,146,92,77,104,112
138,132,52,153,100,85,122,112
142,129,54,126,88,92,120,110
157,153,61,133,89,98,119,117
176,147,66,135,87,106,133,166
171,147,67,161,98,105,143,189
160,150,71,166,99,97,129,189
161,156,74,165,98,96,148,206
152,131,77,179,101,85,152,204
122,142,90,200,125,95,181,180
123,153,91,191,122,104,192,149
126,169,92,182,117,112,197,154
126,179,91,178,114,111,192,129
130,185,91,169,120,121,201,143
132,204,77,135,93,102,158,123
128,189,75,121,88,96,135,117
130,174,69,119,87,100,151,120
119,152,65,122,89,107,157,123
154,144,57,107,78,98,151,139
169,116,50,99,74,97,150,144
168,121,50,108,80,94,159,145
162,109,50,130,85,80,146,150
162,117,48,132,84,70,126,162
122,118,54,139,87,72,140,134
109,98,62,149,87,74,150,133
107,94,68,133,76,73,146,142
112,97,70,116,69,78,152,134
125,112,71,121,73,78,157,119
140,117,67,119,67,73,152,134
133,120,62,115,66,69,150,139
136,122,50,126,68,64,147,135
136,131,55,131,75,66,152,156
123,135,52,127,70,69,149,195
108,147,55,127,82,63,130,186
99,145,66,145,91,67,126,181
123,152,70,132,92,74,130,185
125,153,67,137,87,71,103,160
128,145,71,180,93,99,177,107
131,149,70,189,86,103,180,103
151,158,61,186,78,106,187,122
145,155,57,193,80,108,207,245
150,145,62,225,94,124,235,424
164,148,58,203,101,113,199,488
155,120,55,191,98,113,204,488
142,136,62,189,109,137,254,515
154,141,80,224,116,136,246,471
157,148,80,198,110,129,236,323
167,144,83,185,98,127,235,253
198,144,99,195,106,137,242,297
207,127,97,198,107,123,195,280
212,145,90,194,105,125,194,423
212,140,86,188,106,136,228,443
238,135,84,218,120,147,255,476
280,158,76,229,122,144,248,473
315,148,84,228,120,160,270,481
308,128,96,208,119,201,346,377
316,138,101,209,123,243,391,379
316,162,130,279,135,249,385,418
350,172,136,334,162,308,472,412
386,198,130,356,162,303,467,416
394,195,129,385,169,283,424,418
389,186,127,396,167,259,386,412
361,177,106,354,152,249,383,331
274,159,103,314,118,174,275,311
162,138,118,319,117,185,295,273
170,187,113,304,113,181,287,265
158,193,113,300,109,153,252,241
158,185,112,281,105,144,226,205
155,183,111,255,102,145,214,194
145,177,94,218,96,121,168,171
89,128,85,192,86,107,134,123
91,129,87,174,89,140,157,121
107,127,85,213,113,173,194,123
111,116,75,215,113,168,194,123
107,112,76,206,109,165,185,128
102,103,84,208,106,171,196,146
101,93,83,208,106,146,167,158
88,102,82,166,79,151,206,190
98,147,85,189,89,151,207,210
96,154,81,191,92,149,210,236
96,158,74,173,94,152,219,314
119,168,71,191,103,150,228,480
122,166,69,230,125,120,208,547
128,125,67,215,121,126,232,554
139,116,71,237,129,133,235,547
140,133,81,255,135,146,252,503
124,127,88,259,132,149,245,341
125,132,100,288,133,142,221,233
124,148,113,284,132,165,223,239
125,152,110,265,121,165,225,258
129,139,132,311,127,158,214,265
132,159,151,398,162,165,216,279
132,165,146,358,148,163,204,246
116,160,138,383,154,136,187,214
108,157,143,385,155,127,184,186
105,170,114,338,143,122,168,205
97,147,82,217,98,108,172,206
89,137,80,218,96,97,167,196
89,133,76,171,90,110,165,189
88,131,74,188,91,108,156,183
91,107,73,188,88,102,137,154
90,110,78,190,91,107,125,120
86,100,70,180,87,108,122,117
87,110,68,173,76,84,100,104
86,126,69,179,81,94,112,138
85,133,74,192,84,87,109,152
86,130,74,200,83,91,130,177
112,129,79,220,106,106,147,211
111,119,83,228,112,113,153,215
112,103,75,202,108,103,137,191
107,89,74,216,112,101,135,176
105,90,68,202,109,92,117,162
85,100,64,178,86,74,89,132
86,115,60,172,82,71,76,151
73,112,59,177,84,70,73,154
76,117,54,133,73,75,79,151
76,116,58,123,65,66,66,158
99,142,65,168,87,101,146,179
96,125,63,168,90,102,146,175
97,125,64,159,87,102,150,166
96,119,65,158,92,101,149,181
98,122,66,156,93,103,149,164
69,80,57,123,78,68,72,149
72,86,59,127,73,58,77,136
66,84,57,127,74,56,64,138
65,87,61,145,68,51,64,117
58,87,51,147,67,51,69,116
64,89,53,128,59,52,70,114
60,93,54,122,57,49,59,116
65,100,56,122,57,47,56,112
64,101,51,94,53,51,57,120
64,91,55,86,52,50,50,119
58,89,59,85,42,48,57,98
60,82,62,94,43,49,57,91
69,79,64,115,55,49,66,102
68,80,72,141,66,50,67,126
67,81,68,154,76,53,73,167
64,77,62,155,77,57,71,164
59,71,63,148,76,61,79,178
48,85,65,136,65,63,84,198
49,80,54,114,56,64,80,288
49,84,59,117,49,62,80,287
52,83,59,111,50,58,76,310
54,87,52,112,51,56,67,345
49,78,45,107,50,56,51,348
44,78,44,101,48,50,47,268
42,70,35,68,41,47,34,259
44,74,35,69,41,48,32,243
45,70,38,91,51,46,29,184
46,64,39,88,52,40,25,162
57,71,44,99,58,48,28,189
62,82,54,145,75,51,30,170
73,83,57,150,77,60,61,161
73,91,57,146,78,66,79,158
75,86,58,149,77,69,87,147
73,84,58,165,83,69,89,101
70,79,52,145,80,67,90,98
58,73,53,144,78,58,73,79
56,65,50,133,70,49,54,60
53,73,49,132,69,46,42,51
50,75,45,99,59,36,35,56
54,71,43,74,41,31,29,56
65,96,39,96,49,32,30,60
70,97,40,104,50,33,31,58
79,93,37,101,53,32,30,64
81,87,35,101,55,34,32,58
92,104,44,111,58,40,46,60
88,90,45,89,50,40,50,64
88,93,43,82,47,43,49,69
85,91,45,84,45,47,54,74
80,92,46,83,39,48,53,74
65,71,38,71,37,43,42,69
62,70,34,64,39,41,36,57
57,71,40,65,43,38,36,52
54,74,43,87,51,37,31,50
55,78,46,105,56,35,45,73
57,77,44,105,54,40,46,78
53,74,47,109,53,38,47,82
52,62,49,113,52,37,62,96
51,59,45,96,44,36,63,176
50,51,42,79,36,37,58,187
46,57,44,88,38,36,59,187
51,50,40,98,39,37,61,188
51,58,39,93,43,40,45,183
45,56,39,91,46,39,49,106
49,58,37,95,51,41,46,67
49,54,41,103,57,40,43,62
48,51,41,91,59,42,42,57
46,48,36,88,54,37,45,48
50,53,38,92,50,39,38,43
45,49,39,82,47,37,37,81
47,59,55,108,56,44,39,107
51,59,56,109,52,42,36,106
53,66,57,115,59,44,33,108
66,73,61,130,69,59,51,113
66,74,60,135,72,59,52,89
65,74,41,109,60,55,57,57
63,96,43,111,62,57,58,56
67,94,46,106,57,56,57,54
57,85,45,85,48,42,42,46
56,86,48,80,42,39,44,114
57,81,50,69,41,42,40,151
53,63,48,70,39,36,38,153
50,59,50,75,45,58,72,188
50,68,46,77,42,54,75,229
49,73,48,82,48,57,75,247
50,81,51,83,52,57,75,228
56,90,52,77,53,60,78,228
53,89,45,72,48,41,51,230
49,87,44,68,51,48,59,198
54,87,44,63,48,52,70,156
52,81,41,74,44,50,67,182
53,66,38,78,47,51,78,186
58,66,41,82,47,52,77,154
68,83,43,93,45,71,103,152
74,89,39,98,45,70,95,139
73,90,35,86,45,70,97,101
69,88,41,85,38,70,95,89
66,87,39,83,37,69,95,81
58,64,36,68,37,44,58,59
48,58,38,59,36,39,58,56
49,61,39,59,35,38,54,51
48,72,37,62,37,33,43,51
44,73,42,73,35,31,41,49
45,81,46,75,35,29,44,51
45,78,44,74,35,29,45,52
52,85,44,74,36,32,46,54
55,81,50,77,39,46,68,114
57,82,49,74,40,48,69,134
56,78,48,75,40,47,70,152
54,78,49,79,42,50,70,153
43,68,49,78,40,50,72,153
38,58,41,70,35,39,49,116
34,54,37,61,36,38,47,104
40,59,34,58,34,39,40,72
43,58,35,61,31,37,50,67
45,55,35,64,41,50,70,68
46,64,36,65,41,47,74,68
48,64,39,70,43,50,78,47
43,64,44,78,46,51,86,47
41,67,42,75,50,51,80,48
40,69,48,74,44,39,66,100
41,69,46,75,46,38,61,108
42,73,48,84,54,42,59,153
41,65,45,78,50,39,54,174
41,61,45,79,49,38,50,181
51,60,40,91,56,44,62,160
64,72,43,90,56,47,65,154
64,72,39,79,48,42,63,114
70,84,37,83,51,45,70,94
72,85,47,87,49,53,84,94
79,101,57,95,50,54,89,110
72,99,58,108,56,55,93,118
79,115,71,137,68,56,96,127
77,119,73,146,70,59,95,123
75,131,71,150,72,73,120,115
85,127,69,141,67,75,112,112
96,121,70,137,63,73,109,114
90,111,67,154,73,76,108,192
103,134,68,147,71,74,103,364
112,130,71,154,71,62,91,476
103,126,70,155,74,68,96,473
102,129,76,167,74,76,101,476
106,149,70,142,60,86,134,449
111,123,78,153,64,107,191,335
114,114,78,154,67,113,194,149
109,128,75,161,69,108,200,150
110,149,71,150,74,114,218,160
111,134,72,145,74,110,202,163
100,132,60,155,86,92,156,144
113,136,60,163,91,111,210,146
120,132,69,179,101,112,204,146
115,105,66,183,97,107,194,132
130,107,72,182,94,114,212,139
134,115,76,164,89,121,216,134
124,118,72,157,85,109,197,125
139,110,66,136,72,125,220,142
141,112,64,134,78,123,213,131
131,134,57,140,87,116,197,115
122,138,58,145,84,108,193,127
143,135,59,131,80,118,206,127
136,138,57,126,79,103,186,116
135,139,56,124,81,103,187,111
139,125,54,125,80,102,185,111
148,121,54,127,78,110,200,115
129,124,56,131,82,95,154,109
116,117,56,129,80,93,154,99
114,111,55,124,75,90,148,139
102,97,55,112,69,87,149,187
90,87,60,113,74,89,145,186
88,79,56,110,74,78,126,203
91,81,63,145,92,75,117,307
85,90,67,143,93,75,116,325
86,94,67,137,93,72,110,298
83,101,59,133,91,58,80,293
87,107,61,132,88,63,93,280
103,114,52,92,68,60,90,161
112,132,52,105,76,64,103,88
114,126,62,120,80,78,130,127
127,119,63,134,83,79,128,133
124,115,64,135,89,79,131,199
138,108,65,143,92,88,134,219
138,94,70,160,82,89,127,231
142,115,65,164,80,79,113,231
137,119,69,149,72,77,112,236
134,123,68,150,70,79,129,197
109,164,73,149,71,74,139,182
110,166,66,132,82,78,141,177
114,156,66,120,76,85,155,163
112,159,59,121,76,92,156,158
106,160,56,123,80,84,127,149
103,149,67,209,117,82,110,152
99,144,66,214,117,96,135,143
91,146,64,261,134,96,125,135
85,149,69,287,139,90,126,127
100,152,75,305,140,89,130,125
97,131,82,255,108,127,219,171
94,131,84,252,102,131,238,186
95,126,86,211,89,138,238,225
94,126,86,180,88,139,235,260
103,126,85,153,85,143,237,359
108,138,69,185,110,125,186,384
130,148,70,193,113,108,156,516
134,154,79,201,122,99,153,611
148,166,99,212,126,119,171,677
168,164,101,235,126,118,176,640
182,155,112,214,108,146,214,632
203,169,142,223,117,224,282,577
217,162,149,211,107,244,292,482
208,147,142,204,98,235,289,386
185,141,142,200,101,234,292,367
171,136,136,200,110,242,289,339
128,98,106,180,100,183,215,243
92,93,90,180,94,154,194,204
89,85,77,176,91,157,192,356
77,88,70,145,87,161,189,421
80,75,63,158,81,121,123,437
97,77,70,221,99,108,112,459
110,89,74,251,119,129,139,536
127,100,74,253,123,130,145,557
139,97,82,253,121,142,173,515
143,104,85,279,124,164,224,506
170,129,75,232,109,170,234,488
177,134,65,210,97,167,236,409
177,127,65,204,95,174,253,260
170,134,87,227,96,177,255,261
163,134,93,196,88,151,219,266
120,111,96,193,87,152,228,325
112,105,101,180,85,142,216,317
109,109,103,186,88,132,190,287
128,111,90,175,87,109,153,283
143,121,82,157,81,119,181,275
150,124,81,155,77,109,165,205
140,120,82,167,71,105,167,199
131,129,87,231,83,99,168,202
144,136,77,251,101,110,181,207
129,123,73,257,110,103,153,236
128,128,80,262,109,103,166,251
125,122,74,261,104,114,183,247
138,117,85,237,99,116,181,253
106,94,86,223,89,103,164,237
114,100,93,234,88,94,150,236
128,96,95,254,98,103,142,231
140,115,99,268,111,106,120,267
192,127,92,252,122,120,126,285
202,131,91,232,116,122,143,387
198,129,84,214,111,124,148,387
207,147,76,196,112,108,143,373
203,140,71,161,109,90,147,347
165,143,66,155,134,109,180,325
162,156,71,168,150,118,169,221
173,162,85,185,160,120,167,176
154,147,86,188,162,128,161,189
159,152,84,198,164,142,165,194
152,136,82,198,145,123,136,210
177,154,110,216,146,120,143,191
170,152,102,202,137,116,146,195
161,147,98,187,129,109,138,194
176,148,107,219,131,93,133,213
174,149,104,208,112,80,121,191
145,129,67,175,92,72,109,190
146,129,68,174,100,87,125,214
151,128,68,173,102,92,129,204
138,124,51,118,84,91,124,202
123,133,49,113,87,88,120,200
139,127,47,109,91,100,142,221
130,118,48,129,86,84,126,215
136,132,51,127,84,78,125,233
121,130,55,129,84,80,122,213
123,120,53,128,84,82,123,223
100,118,61,139,83,71,97,216
101,119,57,112,70,99,156,204
91,107,56,122,72,102,159,192
97,104,60,128,81,103,160,207
98,115,61,125,79,105,162,191
113,109,56,118,75,107,163,188
142,116,56,141,89,91,116,183
162,131,55,197,110,93,130,176
167,134,59,222,112,115,214,174
190,130,88,239,156,191,293,240
213,138,95,257,159,211,329,256
218,143,102,290,183,264,425,318
206,139,108,281,207,282,455,358
231,168,126,264,217,288,445,399
248,167,123,261,200,280,462,444
268,165,123,270,215,278,454,435
258,161,119,225,200,234,373,416
275,163,117,222,189,234,337,395
254,130,97,235,185,229,320,359
244,137,92,228,181,221,261,268
188,131,87,250,177,204,241,255
192,143,90,270,176,198,229,206
187,151,102,272,158,175,225,206
191,159,101,273,148,190,282,209
175,149,87,276,138,148,252,202
176,151,104,243,144,149,246,211
165,147,119,248,152,148,243,273
163,148,112,228,150,156,261,261
156,157,110,216,151,146,215,255
136,168,132,240,154,152,225,255
141,175,118,247,132,149,227,249
141,170,101,256,129,147,229,189
133,156,101,250,121,132,207,194
128,136,101,244,117,106,172,175
129,129,74,221,113,90,139,157
135,126,70,195,112,92,138,153
134,130,70,140,90,92,132,153
118,123,62,124,75,89,129,128
121,126,64,143,87,84,113,143
128,127,64,129,95,91,112,138
117,119,64,132,95,90,100,134
117,117,66,164,106,87,106,136
111,119,63,179,112,86,100,137
109,115,54,158,101,76,81,130
96,103,51,159,89,69,90,136
102,120,53,164,86,73,98,154
105,109,51,133,68,78,94,184
102,103,52,116,68,77,89,202
93,104,60,117,67,77,101,194
104,141,61,150,89,96,165,234
101,126,57,147,91,92,164,265
85,130,61,148,94,88,163,244
81,133,59,152,95,94,171,227
82,133,57,163,98,93,164,236
66,108,55,134,79,68,102,404
65,103,63,137,83,90,165,858
69,97,57,144,87,93,167,953
70,100,57,135,79,85,164,993
70,99,56,139,85,89,166,999
80,86,56,140,88,102,195,939
83,85,46,129,83,86,155,543
86,85,48,142,87,79,151,345
99,89,53,146,89,80,148,206
100,85,51,126,80,80,147,262
92,86,52,116,73,68,110,298
87,91,54,130,77,64,107,290
90,93,50,107,66,63,108,296
81,90,71,179,88,62,103,293
88,93,70,186,88,65,120,209
89,88,70,194,91,65,120,125
97,91,80,210,104,74,111,159
97,101,80,213,107,74,107,147
92,94,60,154,87,80,124,175
91,96,64,153,88,80,114,319
94,97,65,152,90,88,108,363
92,92,49,120,63,78,108,350
84,78,48,114,60,81,115,392
96,91,49,111,61,77,107,442
100,94,48,102,64,96,162,370
95,98,52,101,66,90,157,335
97,96,53,93,68,91,156,351
103,101,56,92,67,90,152,316
93,90,55,93,68,92,164,251
81,86,50,90,59,67,106,224
90,79,43,79,51,63,111,248
80,96,43,84,51,60,105,235
76,96,45,83,50,62,122,232
80,92,43,79,48,54,93,221
85,90,44,106,54,63,115,225
86,95,48,104,54,63,115,184
81,78,51,99,53,68,123,183
81,75,49,112,53,62,104,215
80,86,56,123,63,73,112,197
94,107,53,110,60,68,91,197
94,125,55,116,59,78,106,227
101,132,57,119,57,74,99,698
112,138,56,118,60,76,99,1059
119,140,53,126,66,69,94,1222
113,126,59,135,71,71,110,1226
123,129,56,129,72,64,97,1222
123,141,54,124,74,66,103,1026
119,152,56,169,97,74,108,643
120,147,55,162,90,79,113,540
134,172,55,149,87,74,94,606
132,169,57,156,87,67,85,608
129,157,62,173,89,66,87,626
128,168,60,129,68,69,94,614
134,184,65,150,72,76,115,371
117,170,68,154,74,106,162,254
105,162,65,151,75,115,172,239
117,171,62,156,84,127,181,208
119,152,64,169,86,123,178,215
113,141,68,162,90,115,161,199
155,140,66,168,97,98,134,293
184,150,75,171,99,90,122,431
188,142,82,179,97,71,109,447
214,166,93,207,103,86,145,448
218,165,98,247,115,107,184,453
205,162,104,271,133,119,201,387
226,176,117,305,149,124,207,291
224,175,112,304,145,137,210,274
212,145,101,280,137,144,237,299
246,151,92,242,122,154,243,329
247,166,87,212,98,140,221,327
214,148,62,170,75,140,231,271
217,156,67,151,77,133,233,258
206,182,73,175,94,116,187,217
160,171,72,164,94,108,180,154
163,166,68,166,98,123,192,148
168,165,68,163,93,118,178,146
177,156,62,160,91,113,166,127
177,142,60,155,77,111,161,124
174,166,68,204,93,104,148,148
159,174,66,208,91,94,141,149
138,162,68,200,91,91,138,146
113,166,77,215,102,100,148,165
111,163,83,198,99,114,176,193
105,136,78,160,84,104,156,273
104,112,97,152,83,99,144,297
114,119,105,169,84,102,162,306
140,141,109,177,72,100,165,318
146,134,103,187,76,84,137,306
145,136,102,183,77,85,137,233
164,145,102,180,69,87,147,228
166,139,95,170,69,83,129,216
144,129,86,140,67,73,121,182
141,120,82,118,60,78,138,181
169,131,85,117,59,80,160,174
145,131,62,112,55,79,154,129
141,140,57,118,59,84,162,125
139,123,52,115,59,91,174,126
140,136,54,117,62,96,166,141
124,122,43,119,61,91,141,116
122,106,49,130,63,89,137,116
126,96,52,131,65,85,122,167
131,110,59,141,71,83,92,185
136,110,59,149,66,72,70,180
138,134,66,172,75,78,95,192
154,134,62,164,77,78,99,204
166,170,65,180,88,88,109,199
178,165,61,170,83,95,132,194
170,162,58,163,86,98,132,205
169,156,60,161,88,94,121,201
159,165,59,161,91,98,139,189
143,137,55,128,76,105,160,163
129,144,52,129,75,99,149,148
137,147,50,126,75,94,150,120
130,136,40,89,62,89,144,121
132,126,50,128,80,80,124,115
145,125,55,130,86,77,105,93
139,108,54,127,90,77,96,85
132,105,56,127,88,78,93,80
122,111,60,126,88,80,91,61
115,107,57,122,72,85,116,55
108,108,56,120,64,69,101,112
108,114,60,125,59,73,106,113
102,108,60,125,58,72,106,116
100,99,65,137,62,80,150,126
100,101,64,111,61,78,139,142
100,109,60,126,66,80,142,109
94,112,58,123,67,74,138,107
100,116,58,120,66,75,140,100
102,116,47,126,87,85,127,98
103,116,44,125,87,82,121,80
85,127,45,115,87,83,120,70
93,123,41,112,86,82,122,77
86,115,43,113,90,98,155,92
88,111,41,83,68,86,129,84
95,126,44,91,68,88,133,146
102,109,52,135,79,95,144,157
107,121,55,146,79,97,142,163
112,123,53,151,76,89,108,172
107,126,54,151,73,81,109,185
100,112,64,174,82,87,119,152
105,110,56,144,67,75,98,153
95,97,56,138,70,76,100,149
96,98,58,139,68,74,122,131
99,100,57,138,68,77,127,111
101,98,49,107,49,68,111,96
86,87,46,94,42,64,113,78
87,93,48,87,38,62,114,77
82,98,47,86,39,78,139,88
84,100,56,107,44,76,134,93
78,99,54,117,56,81,140,92
84,97,54,128,63,84,141,100
76,90,53,129,60,84,141,92
75,91,50,125,61,70,96,102
70,89,43,123,64,71,95,112
83,102,41,105,56,71,103,169
79,110,48,112,53,68,98,169
83,106,46,128,59,65,95,173
86,106,51,144,66,67,103,174
94,109,54,139,69,74,127,164
86,101,59,145,75,74,114,112
88,92,57,137,78,79,119,113
86,97,65,139,77,81,131,108
82,90,61,124,72,72,144,88
87,91,62,127,65,75,135,90
81,87,59,128,62,67,136,78
77,86,58,124,61,71,141,65
76,82,48,106,57,69,127,67
81,82,48,102,52,72,110,69
66,71,40,86,55,69,96,67
77,66,49,110,64,72,95,69
87,76,48,112,66,74,107,96
98,78,55,112,67,78,113,97
106,82,56,116,68,77,112,99
111,86,58,158,85,67,114,102
107,86,51,135,75,64,114,105
103,92,50,133,71,49,89,78
96,93,44,132,70,44,89,105
82,89,42,129,72,50,85,106
87,111,39,90,47,56,87,106
88,114,42,91,46,57,85,106
82,108,43,94,48,60,85,110
78,106,41,92,48,59,76,79
91,141,46,102,51,66,116,78
78,123,50,87,49,62,111,74
73,129,50,81,47,62,119,70
77,133,48,81,46,62,120,70
80,135,53,79,46,65,122,73
66,101,48,68,40,49,76,66
69,103,42,67,43,49,74,63
76,94,39,74,45,61,91,62
73,82,40,67,47,64,100,56
70,76,39,76,50,63,101,57
73,81,45,85,53,68,111,71
81,86,45,97,54,68,114,70
79,96,44,102,60,57,93,67
84,103,55,111,63,60,94,65
85,112,55,115,61,62,98,62
81,117,61,115,65,62,91,54
74,115,62,108,66,64,100,53
93,110,61,103,58,64,106,63
87,111,51,95,54,60,98,65
83,103,50,86,54,61,100,79
83,94,43,83,50,57,92,75
77,97,45,81,47,52,79,73
53,95,48,80,52,74,131,78
54,90,48,80,51,75,131,111
59,96,46,78,48,70,128,116
71,103,42,74,49,71,130,119
75,95,39,80,54,71,128,124
85,100,42,100,53,64,102,125
93,118,43,122,60,64,102,98
97,119,51,163,86,74,103,89
111,117,54,179,99,77,105,91
125,128,61,186,99,98,170,110
124,124,57,176,98,90,154,105
123,114,60,186,107,92,159,106
129,104,61,156,90,85,159,103
116,106,57,134,75,82,157,99
98,91,48,120,70,53,82,70
85,90,52,117,68,47,70,61
77,75,49,82,54,43,60,53
63,75,39,80,52,40,62,44
59,63,41,88,49,38,62,47
68,60,41,87,51,39,63,47
72,68,43,88,50,40,64,47
79,74,50,82,42,41,60,50
83,73,58,81,41,71,127,60
84,73,56,72,41,73,129,65
89,84,62,70,40,73,131,71
87,84,60,68,39,73,133,71
81,83,52,58,39,70,133,69
76,84,43,47,39,52,78,63
68,81,42,45,39,50,75,60
51,79,34,49,41,50,70,78
61,83,36,81,50,51,78,158
70,80,40,86,51,52,75,169
86,85,40,90,52,49,73,174
86,91,43,93,52,49,76,193
85,85,45,95,50,54,84,211
89,79,43,78,42,54,75,186
86,81,43,76,41,56,76,176
66,81,40,74,38,48,63,170
70,79,38,73,46,54,62,157
80,90,40,69,45,48,46,123
79,99,39,67,50,47,58,106
77,100,37,69,56,60,77,167
89,99,36,71,56,61,80,284
94,98,47,77,49,55,74,291
93,93,43,84,56,55,78,301
94,81,44,91,60,68,108,324
94,76,43,88,54,54,97,303
84,74,45,86,53,53,96,199
85,89,33,82,57,52,99,194
97,84,35,76,51,55,99,183
92,92,33,63,40,37,54,131
101,101,37,65,43,39,52,121
103,109,37,65,43,38,51,116
96,95,39,63,39,37,51,96
85,99,41,63,41,41,70,98
81,91,41,60,42,47,74,113
76,95,36,65,43,45,77,132
76,92,41,70,44,47,80,144
76,92,38,67,45,47,77,150
84,101,45,82,49,57,108,148
90,100,47,86,49,55,107,129
92,89,47,80,44,54,105,122
100,93,47,85,51,54,103,113
102,93,49,86,50,56,109,116
92,99,44,77,50,55,108,110
116,99,45,81,53,56,114,136
114,105,49,108,69,64,122,124
109,112,50,112,69,83,168,147
111,125,54,158,87,97,182,150
109,128,55,162,85,100,177,165
79,135,56,159,83,102,182,151
74,136,59,157,80,99,179,149
83,125,56,159,82,106,182,132
81,115,51,116,65,97,171,121
106,120,53,160,84,96,164,113
127,112,58,161,85,98,160,123
130,105,59,157,83,112,195,138
124,108,61,182,91,99,159,139
133,121,67,185,96,124,205,153
134,113,62,159,84,127,204,187
120,118,66,175,89,129,215,179
139,120,64,195,96,135,228,184
145,118,64,173,86,140,234,186
150,115,60,201,86,125,202,191
174,157,75,202,91,123,211,155
171,156,74,241,100,130,219,159
158,162,75,235,99,114,179,159
163,171,77,262,108,107,171,168
158,195,90,280,126,110,182,158
129,201,91,284,125,104,171,157
129,206,89,254,117,85,151,156
138,206,90,252,117,104,180,171
129,212,107,267,125,105,180,178
148,190,103,245,113,100,160,175
153,143,102,275,129,114,173,181
158,136,103,283,135,128,188,185
151,144,113,274,134,134,197,167
147,126,99,239,125,138,204,154
123,114,93,242,125,133,202,148
114,133,89,216,108,124,196,149
108,135,87,202,101,136,232,156
110,139,73,209,95,120,209,159
112,171,119,301,143,123,231,175
118,174,118,300,145,127,237,174
102,161,117,287,142,123,232,164
114,171,128,293,150,148,249,172
108,156,127,314,162,150,252,167
107,133,89,222,119,148,238,151
137,131,88,231,115,161,276,218
144,146,90,254,132,163,272,226
138,131,79,256,127,121,212,210
143,146,117,320,137,128,234,215
161,145,124,343,150,147,226,229
135,144,131,337,148,141,210,196
138,138,147,352,160,167,256,216
152,144,153,360,170,171,257,219
161,172,155,391,199,194,287,239
155,186,160,379,189,181,296,264
192,192,167,369,191,195,294,261
198,200,155,428,203,207,326,270
212,205,147,432,201,203,324,280
245,181,118,358,160,175,282,270
242,172,125,382,165,196,300,235
217,190,134,429,194,191,284,214
241,191,142,449,197,178,248,191
266,221,146,483,204,178,251,185
288,253,158,524,225,189,264,180
302,255,162,536,228,175,270,204
359,252,179,568,224,178,283,263
355,243,191,522,211,160,254,297
435,222,199,497,213,192,312,301
408,194,196,453,196,193,310,344
410,201,187,458,203,188,290,333
476,229,171,431,206,181,315,341
481,238,149,407,195,184,321,320
398,237,136,389,185,167,282,355
397,233,146,438,204,182,312,344
430,244,143,437,210,176,297,349
328,220,130,407,204,175,269,320
326,206,132,391,197,172,274,323
319,195,129,384,190,157,257,283
323,189,110,311,157,124,204,252
262,168,107,340,166,128,214,234
291,184,137,417,220,134,199,247
266,185,139,424,223,128,171,233
250,205,151,477,245,138,190,218
239,204,156,481,248,131,174,203
233,188,164,463,242,131,165,205
146,161,137,374,178,114,173,168
158,163,131,365,172,122,173,212
157,132,130,360,182,120,165,228
139,138,132,382,194,120,164,222
143,158,122,402,201,117,161,226
131,157,123,405,200,122,180,226
137,164,138,408,201,142,231,214
159,175,137,394,174,130,223,200
193,179,143,400,174,137,228,218
199,168,134,329,146,135,226,220
207,157,132,309,141,124,194,223
199,150,114,302,138,89,122,188
192,148,102,266,143,106,144,193
167,134,80,202,122,100,148,171
151,117,75,179,107,102,169,164
152,116,76,207,107,139,202,174
152,119,74,211,109,163,232,157
141,121,64,187,83,168,246,154
135,126,77,243,83,203,303,191
141,132,90,255,95,205,305,188
128,150,105,333,125,187,295,165
146,152,118,332,128,174,298,173
157,140,123,323,130,186,288,198
156,137,128,370,155,149,220,162
163,148,124,382,159,153,211,168
172,134,113,311,140,177,246,194
147,121,96,306,135,173,223,193
133,129,94,311,136,155,205,162
133,135,77,208,110,153,210,167
110,122,73,187,116,179,237,159
94,118,65,166,108,160,195,133
92,139,83,255,128,169,209,123
88,140,80,256,127,159,206,118
89,144,83,250,123,160,202,120
112,150,96,278,120,173,235,132
104,159,94,287,122,165,229,111
115,156,90,259,128,158,212,120
114,154,91,253,125,160,214,118
111,151,90,253,123,157,215,115
102,143,90,220,108,107,150,102
115,140,94,217,109,101,146,106
108,120,82,151,73,85,131,89
109,114,80,151,72,81,124,85
129,111,77,163,80,79,117,86
121,104,56,152,77,63,94,76
111,98,47,135,68,58,86,68
103,113,46,139,67,61,85,63
106,116,46,146,67,68,91,67
81,116,40,122,58,63,85,48
83,122,48,122,58,69,91,69
89,127,61,157,84,73,102,129
93,115,60,158,84,71,104,137
95,112,61,144,84,69,100,169
100,117,73,183,91,69,100,177
113,113,71,187,92,60,82,176
113,116,76,232,113,75,76,163
114,113,79,244,120,76,73,162
115,112,82,247,122,80,74,141
122,133,73,247,124,82,84,140
125,132,79,276,136,87,100,151
130,125,67,228,107,82,114,134
130,128,65,213,96,81,120,132
123,125,60,212,95,79,126,128
111,105,67,192,88,80,126,130
104,126,58,174,76,76,119,120
92,137,59,174,74,67,105,115
89,148,74,206,89,81,99,121
89,153,74,206,92,76,88,111
87,149,70,199,91,89,118,122
85,147,70,189,95,88,115,127
88,140,75,179,94,110,145,131
93,134,60,152,85,100,151,124
124,145,69,169,86,101,162,132
135,139,69,180,87,89,145,128
129,126,68,162,74,87,142,115
133,129,76,226,89,76,141,118
138,145,80,222,91,80,140,133
119,142,74,209,86,83,132,131
103,141,76,233,87,83,134,123
106,151,76,257,96,88,140,120
109,151,62,208,82,74,111,123
115,152,70,228,82,85,139,115
124,158,66,231,85,91,140,114
128,160,62,195,84,92,140,130
142,175,77,254,103,105,165,163
141,185,78,253,104,103,162,157
129,168,71,233,102,93,138,153
152,156,73,234,106,85,137,161
159,155,70,234,109,102,170,152
142,130,53,136,86,94,149,124
141,117,54,151,98,94,151,133
152,112,49,157,98,92,147,132
127,142,66,190,100,104,169,133
115,144,72,189,94,84,123,136
139,143,71,181,93,79,114,149
139,137,69,167,76,74,110,141
123,138,71,158,71,75,108,143
115,100,65,104,63,83,146,150
125,106,65,111,65,84,150,145
108,111,70,103,59,92,166,145
101,111,74,135,73,96,171,142
102,123,74,134,74,100,181,145
99,150,71,154,81,85,142,153
87,145,66,155,82,85,142,152
96,144,61,160,82,73,133,144
96,161,71,202,104,70,130,140
111,165,71,213,111,65,119,133
122,138,68,202,103,61,103,100
121,154,70,198,106,69,116,98
115,159,74,206,119,92,152,96
114,140,61,152,99,92,151,100
105,135,69,148,92,95,154,108
110,150,68,150,92,93,155,118
117,133,69,154,98,97,175,120
118,147,65,138,84,78,140,110
125,173,69,118,78,79,142,117
120,179,64,122,78,75,140,116
103,171,66,120,75,74,136,102
99,170,65,116,63,59,86,88
92,150,64,127,65,71,108,89
83,116,55,130,64,75,115,76
92,99,63,128,66,74,112,70
95,98,57,130,71,73,111,81
87,106,55,131,71,71,116,86
87,101,56,123,64,67,106,82
86,115,60,124,58,66,99,87
82,109,48,115,58,67,101,86
86,106,50,155,74,72,106,91
103,109,52,150,71,88,121,90
101,123,48,148,72,85,120,111
124,117,59,197,96,91,117,117
135,123,61,200,97,95,119,197
132,129,64,164,85,96,126,198
132,135,62,181,88,90,118,242
179,150,90,247,100,150,229,280
216,165,93,232,87,165,254,285
247,234,114,239,93,184,277,256
268,238,124,256,107,208,324,264
281,246,129,266,125,211,339,249
328,253,129,245,148,195,308,298
328,248,135,223,154,202,341,374
313,203,122,229,158,190,329,378
303,202,127,255,166,180,307,380
355,278,181,350,175,210,346,459
328,305,178,414,188,202,320,437
330,315,188,424,208,195,277,403
409,373,255,521,263,230,295,482
457,389,272,542,278,261,307,547
452,345,241,495,275,247,246,500
449,323,249,475,259,244,278,485
433,312,239,480,247,237,274,459
365,243,169,403,200,214,271,372
351,240,156,412,213,175,243,293
308,231,157,395,211,175,241,243
312,305,254,447,233,188,272,299
327,322,256,469,242,193,271,354
351,322,274,532,368,204,295,431
307,324,269,649,572,262,308,408
305,321,281,798,669,289,323,434
298,236,190,817,733,308,280,404
313,258,262,881,797,364,316,443
313,298,255,936,854,398,279,368
307,292,259,893,777,391,252,383
296,336,286,869,774,433,352,387
384,351,288,814,761,424,344,389
421,359,246,891,865,404,317,427
400,322,242,946,851,371,329,450
411,318,234,932,856,373,369,459
417,291,203,980,909,333,304,437
336,281,209,1040,921,334,300,435
266,258,204,944,817,336,306,335
273,259,191,862,789,337,290,321
274,258,192,862,784,310,240,298
274,242,169,758,802,310,198,316
297,254,150,704,768,330,215,302
307,233,132,675,776,314,197,286
323,231,143,641,800,352,218,379
354,229,164,617,804,370,248,390
359,221,168,565,657,344,249,388
333,241,183,593,756,361,250,398
325,265,221,617,770,399,257,395
302,286,222,566,783,388,253,379
292,285,222,651,799,405,250,410
376,306,246,724,905,531,380,457
377,300,238,704,852,515,391,451
406,290,205,724,883,475,389,466
427,286,270,796,867,586,430,427
426,299,287,776,949,595,420,393
381,306,278,817,933,493,326,364
402,288,283,859,996,492,326,374
401,302,293,878,1003,531,381,363
415,310,237,874,1026,429,367,424
407,293,215,906,979,392,375,463
394,313,216,856,919,438,358,449
427,359,227,824,904,497,366,513
413,365,203,908,941,480,321,521
402,355,199,916,887,485,341,494
420,399,183,906,886,497,345,480
487,390,167,885,970,597,373,508
492,366,151,882,982,588,368,437
486,365,150,754,845,606,403,451
462,364,155,713,847,623,401,396
458,327,151,745,792,638,425,414
379,298,192,799,724,532,422,364
335,298,222,973,803,528,425,365
330,286,224,978,922,507,391,407
351,281,215,954,951,526,389,414
384,334,228,878,935,516,375,390
422,362,189,894,974,501,354,420
397,359,192,723,833,584,419,469
399,353,235,758,771,594,441,420
379,372,241,770,702,516,405,422
372,488,275,901,869,559,408,405
329,469,279,831,784,588,421,370
352,470,258,802,780,539,375,357
343,469,224,789,748,550,356,361
354,482,234,843,803,561,357,390
340,360,197,757,690,512,344,421
317,362,201,808,778,542,335,463
281,358,195,844,825,477,284,427
283,450,195,846,877,508,313,404
273,424,185,786,830,572,334,398
258,429,200,767,835,589,333,440
304,441,194,691,765,535,339,424
315,453,194,639,707,570,349,445
323,399,188,600,697,534,343,440
326,441,197,630,730,488,377,424
295,436,167,565,645,496,414,385
248,446,184,589,646,508,406,367
283,447,184,622,639,491,449,393
304,486,226,697,645,554,436,430
362,527,277,848,780,648,435,453
366,498,288,854,807,645,457,427
410,597,293,906,836,633,461,442
382,590,294,871,899,627,421,409
397,601,298,880,940,608,469,409
400,585,243,756,846,522,451,440
418,614,233,772,830,592,513,492
425,532,209,736,817,586,508,506
440,526,200,785,765,604,532,561
439,517,183,813,703,626,549,553
438,502,189,805,679,636,579,601
478,534,223,812,768,545,503,579
438,559,256,817,795,609,529,601
465,579,261,766,801,618,518,557
470,539,247,735,807,565,494,573
452,583,259,768,861,609,464,527
425,566,244,929,902,670,514,564
451,560,233,961,948,672,515,584
553,682,267,1070,1012,691,550,604
579,723,293,1124,1096,824,609,650
580,744,306,1185,1100,894,644,645
601,776,303,1139,1090,920,644,652
609,806,315,1100,1029,896,645,627
490,705,286,1051,1017,899,640,617
454,657,264,1000,888,801,685,577
431,580,238,946,805,665,684,539
396,500,248,882,687,553,698,507
369,394,211,874,696,595,749,476
364,361,220,804,545,538,727,466
320,336,210,790,580,495,593,460
403,398,207,768,724,522,533,487
370,459,206,741,833,535,465,461
384,492,225,732,825,480,397,479
404,504,216,728,861,501,423,526
428,577,253,735,942,526,437,510
400,549,263,830,1015,606,472,508
434,522,257,963,1130,756,520,495
399,488,269,970,1157,770,538,498
430,493,278,1032,1203,758,519,439
444,500,244,1005,1167,765,520,468
417,483,243,884,1089,720,574,467
430,575,275,807,951,602,544,578
454,614,264,862,960,601,482,563
423,657,288,849,965,634,494,580
422,603,305,799,926,606,537,556
407,588,293,759,820,547,465,544
405,550,302,746,800,533,447,423
400,560,293,681,720,488,533,436
383,515,268,595,601,433,544,402
362,514,240,614,570,399,520,373
366,566,263,656,594,430,602,365
321,520,215,519,563,435,623,381
330,544,222,544,646,465,582,328
352,536,224,735,696,506,581,315
335,551,238,780,712,591,579,369
388,543,209,818,784,625,493,361
398,588,199,906,824,613,468,341
379,525,206,973,860,608,453,376
364,578,206,847,825,565,425,415
413,585,200,864,813,501,451,411
354,581,217,818,776,425,423,400
371,579,236,761,718,435,443,414
403,601,231,702,638,459,466,466
448,592,231,818,734,528,465,498
416,614,233,774,744,534,423,464
423,623,221,778,718,554,480,494
400,615,216,806,765,646,473,494
380,593,219,827,751,663,464,430
348,590,254,840,727,623,470,402
342,530,252,828,784,595,464,435
333,497,261,918,877,619,478,488
347,434,255,892,841,508,525,525
357,489,273,834,813,456,484,517
340,458,274,757,746,427,470,494
402,487,287,837,784,538,555,483
441,483,277,740,687,521,530,466
415,477,270,728,678,508,449,423
463,528,253,735,688,498,462,443
497,580,221,745,794,574,477,445
473,603,213,691,730,533,391,524
432,586,212,733,752,527,346,476
446,593,203,715,719,517,349,481
402,533,194,713,799,532,351,487
345,452,213,779,873,511,377,499
304,401,205,711,880,475,403,421
329,423,214,673,903,451,399,425
327,389,232,745,970,501,401,420
335,340,237,752,966,582,428,455
323,336,206,615,818,555,389,431
314,337,209,668,774,546,343,420
308,342,208,662,738,577,340,403
294,364,215,626,642,532,362,387
257,339,194,609,559,433,344,300
266,347,203,607,554,399,345,292
283,377,190,575,537,383,325,244
258,386,198,586,573,398,401,255
264,375,185,588,605,471,397,262
253,374,204,586,578,539,453,340
269,383,200,610,579,548,454,344
257,368,205,671,645,548,457,351
259,330,187,687,563,501,399,332
242,339,180,658,531,440,405,315
235,403,171,644,528,323,326,261
200,380,162,678,553,300,314,294
197,361,160,737,595,325,328,319
209,372,169,704,596,303,340,354
212,371,164,733,601,316,325,397
261,308,162,764,605,327,337,416
319,336,163,890,792,361,376,395
313,356,167,806,688,388,422,372
313,343,157,802,690,434,438,395
345,418,161,758,665,422,416,357
346,471,182,780,774,436,422,318
343,483,186,715,645,514,446,351
380,479,179,732,687,512,422,398
423,529,175,778,703,478,411,364
394,477,200,858,749,483,437,354
361,431,204,856,631,480,443,377
324,430,200,790,620,387,421,363
353,435,219,788,580,445,440,332
377,461,236,769,577,445,459,339
428,481,248,776,624,548,493,359
500,491,243,741,648,601,495,515
516,478,235,733,572,605,486,499
477,448,219,693,573,553,458,501
442,443,216,666,543,552,422,497
446,430,200,809,702,545,492,523
420,454,184,800,720,526,489,421
426,495,221,815,807,662,539,441
481,522,253,905,856,657,531,471
468,486,257,950,855,662,533,468
456,467,243,785,673,655,469,473
455,450,244,873,695,630,481,465
475,411,238,844,585,479,399,475
416,385,207,743,520,472,420,548
407,360,222,756,650,501,469,606
381,403,224,733,711,451,409,582
331,394,227,601,654,443,382,546
345,429,217,594,665,421,380,523
355,470,234,686,724,415,359,407
355,441,203,655,671,428,352,338
352,431,203,653,640,420,361,335
359,425,191,655,649,411,357,353
302,387,194,776,737,429,367,349
298,386,168,784,786,556,386,486
305,394,169,773,797,583,388,577
307,410,156,780,775,559,373,720
302,406,154,813,758,574,360,710
291,421,136,678,659,588,348,709
268,372,144,671,566,477,328,617
255,379,131,611,497,398,271,517
249,335,147,584,450,380,274,288
258,317,158,527,449,350,265,299
260,271,154,553,471,312,278,330
275,282,155,420,434,302,283,354
272,264,157,440,414,280,253,361
266,305,143,409,417,313,290,345
236,330,139,430,423,358,293,318
231,338,141,527,531,412,292,289
233,339,138,540,536,426,293,259
234,370,138,515,519,424,297,255
220,330,133,523,499,385,279,246
243,399,145,548,566,363,264,267
255,404,150,508,503,329,283,269
260,430,158,487,475,300,314,263
254,472,162,497,505,303,330,241
250,488,176,520,540,324,317,249
226,438,166,508,491,306,335,236
193,429,151,430,460,278,302,216
162,398,128,423,449,262,242,257
161,330,121,406,421,265,218,255
163,303,112,402,424,243,185,271
153,272,100,361,433,270,164,289
165,253,114,330,395,257,183,298
178,253,117,348,426,256,195,262
209,275,130,443,476,250,199,259
209,288,120,461,509,270,209,241
222,317,120,514,560,247,221,217
244,334,123,576,616,259,223,272
235,350,138,606,599,264,224,274
203,341,168,630,589,282,228,286
209,329,164,589,539,305,242,286
216,316,170,590,458,323,264,331
198,328,179,565,374,312,288,285
215,310,178,542,395,314,293,275
272,329,148,469,379,348,391,322
323,352,162,481,381,350,400,357
346,342,160,446,354,331,409,365
354,318,151,452,374,339,383,378
355,334,158,473,372,384,434,387
338,308,173,460,375,395,426,381
294,298,170,442,371,402,421,361
288,289,196,438,459,407,408,336
292,337,202,443,554,476,453,345
286,321,186,384,538,449,420,614
258,340,169,484,532,405,369,846
254,342,166,506,555,417,403,893
250,365,137,521,535,427,402,937
254,327,124,476,485,389,385,965
245,348,129,493,476,384,370,1070
250,345,132,392,478,395,331,894
245,331,128,417,560,371,277,863
216,355,143,378,567,380,270,836
196,357,144,427,573,364,266,794
193,328,143,416,577,367,256,408
194,306,140,413,565,359,295,406
187,325,158,438,469,318,295,365
179,285,136,438,417,289,298,281
156,290,137,408,321,236,258,303
162,291,137,405,293,194,254,280
153,323,155,445,292,168,205,255
172,285,146,402,271,190,214,243
195,323,152,396,257,162,184,271
196,361,146,355,248,209,225,371
257,391,153,402,255,220,234,408
250,366,133,359,255,223,251,415
260,391,123,336,257,260,304,436
270,361,128,335,259,290,331,422
273,300,127,367,276,274,311,325
227,263,139,360,341,304,325,283
249,280,140,371,396,331,321,278
250,275,145,451,486,329,312,259
229,289,163,571,558,387,298,319
228,327,168,574,560,385,322,382
230,362,169,611,610,386,332,458
219,358,175,619,608,390,374,524
230,378,182,568,539,385,354,527
233,373,173,467,453,304,356,520
260,376,169,458,446,297,377,578
259,340,148,357,324,266,367,519
261,321,147,365,308,266,342,506
224,282,146,383,310,260,367,533
211,263,136,377,308,269,361,529
183,217,129,392,325,275,330,559
168,221,132,408,328,292,341,580
179,234,130,367,275,276,329,596
186,227,107,349,322,280,291,753
194,251,110,354,387,299,296,778
182,266,110,365,386,296,273,677
177,250,113,369,378,299,237,663
156,225,102,365,371,293,220,603
159,249,108,344,309,261,253,341
147,223,101,306,218,218,234,216
145,197,110,274,154,205,233,211
137,223,118,242,133,178,254,176
125,232,121,257,137,158,272,208
136,226,125,348,223,200,250,275
136,228,123,356,244,207,263,279
134,245,115,326,248,213,264,280
152,239,97,345,246,203,242,305
167,248,91,323,240,204,229,277
147,231,76,250,209,171,196,201
141,232,74,252,186,167,191,225
144,221,69,253,192,161,202,231
131,226,74,222,187,165,222,244
120,235,75,229,197,170,231,300
123,225,71,190,174,179,223,307
141,216,65,160,214,199,216,346
144,209,70,185,222,236,225,349
145,180,70,196,224,231,210,322
163,212,96,238,239,231,237,276
171,219,103,229,250,216,251,269
155,229,105,252,260,208,277,187
164,246,108,279,275,183,267,200
167,310,104,319,310,187,264,199
152,291,89,307,314,179,220,188
144,297,86,369,381,245,231,230
164,289,90,372,376,250,218,228
159,275,86,360,369,251,214,203
173,216,100,351,351,269,240,218
179,221,96,394,362,269,241,224
201,210,95,375,308,260,274,179
185,241,102,377,338,248,252,192
181,239,113,367,333,232,242,256
172,249,114,405,383,225,217,289
160,234,124,371,383,240,227,281
122,228,126,353,385,214,168,275
127,220,116,361,377,215,168,290
123,245,104,357,390,241,173,239
105,236,90,281,334,225,161,227
114,237,74,290,313,207,152,300
133,254,92,349,349,230,221,314
133,273,97,331,345,232,229,295
141,259,109,350,352,219,227,291
141,245,117,396,372,219,247,731
127,223,109,372,366,217,243,1080
122,203,112,364,296,167,188,1237
118,154,109,404,261,150,176,1280
101,129,96,392,227,140,173,1308
102,135,86,347,187,134,142,1116
100,127,87,336,180,142,134,858
73,120,56,255,160,137,103,834
71,116,52,171,127,136,103,896
79,132,52,145,109,132,99,1033
75,121,48,123,102,130,98,1059
73,126,57,124,92,112,89,1002
78,126,55,134,118,111,102,826
71,107,55,135,135,135,130,688
63,91,49,147,142,127,132,374
64,100,47,145,141,127,132,286
73,106,39,145,141,126,129,199
70,110,39,129,120,111,112,187
70,112,35,118,97,107,109,158
66,107,39,99,78,108,118,151
73,104,45,101,73,111,122,244
75,100,44,96,68,111,128,275
74,104,46,103,62,112,131,272
81,118,50,93,50,111,127,268
86,134,49,99,49,107,118,280
82,147,57,110,61,117,122,211
74,148,58,114,89,130,124,172
82,156,60,132,133,139,130,180
87,192,76,262,241,164,132,197
111,199,83,347,313,211,176,201
118,193,85,370,380,239,212,198
124,196,89,410,442,254,216,310
133,198,94,445,469,269,217,315
129,168,86,397,448,257,213,308
107,167,81,371,454,231,195,294
98,163,76,353,412,193,149,332
92,158,72,308,343,166,141,297
72,142,62,246,297,145,133,307
73,127,55,230,267,136,130,306
70,98,54,151,164,116,97,375
71,99,47,131,129,130,106,367
68,90,44,119,119,130,103,312
69,88,47,112,98,108,101,283
63,84,44,95,79,90,73,282
58,76,43,81,69,86,71,183
55,68,44,81,62,60,58,170
54,69,43,83,80,68,53,186
56,81,46,90,90,82,72,225
64,81,50,87,89,78,72,230
69,100,51,79,88,77,72,229
67,97,50,87,90,78,69,230
76,100,52,89,78,89,104,225
71,91,46,80,63,82,92,186
72,95,43,101,69,96,111,183
71,129,41,125,77,99,115,180
71,142,39,124,76,99,118,113
58,136,37,124,69,83,96,92
57,137,37,124,69,81,100,93
46,137,36,115,65,68,85,80
45,106,33,99,61,91,103,82
47,90,32,92,59,91,104,88
50,97,35,89,59,89,99,131
51,101,37,91,61,100,97,202
48,93,34,75,56,100,91,248
47,72,35,63,46,77,63,294
47,83,38,67,42,77,60,325
52,77,42,94,41,86,75,323
52,72,43,93,39,69,73,330
54,123,41,93,38,75,88,348
54,511,46,99,49,76,95,314
56,668,50,123,67,77,92,283
51,682,47,109,69,66,83,276
51,683,46,109,67,67,78,240
58,680,57,160,85,76,80,168
59,467,53,170,84,74,74,195
59,179,51,151,73,70,77,245
60,113,48,146,71,70,75,244
64,111,51,145,73,69,74,234
55,84,51,86,49,50,58,243
57,83,57,60,40,50,53,236
57,82,54,67,45,53,47,219
55,80,56,66,47,51,51,255
48,67,54,66,45,46,49,248
49,69,51,77,45,41,42,233
43,55,43,75,46,39,47,216
39,49,44,74,43,36,47,183
40,54,49,72,41,49,57,117
41,57,48,93,41,51,60,114
42,57,43,87,42,50,60,124
40,59,42,86,40,50,58,163
38,59,41,79,37,54,57,166
36,53,34,84,36,42,44,205
36,48,40,100,52,44,46,224
37,46,39,103,54,43,44,217
37,45,40,102,55,43,41,220
41,47,42,104,55,39,40,252
43,51,41,100,55,54,61,221
42,52,38,66,39,52,57,199
39,47,37,56,36,53,67,201
40,51,36,55,33,54,68,162
38,47,36,56,36,52,68,92
34,44,37,59,36,38,53,82
32,45,35,53,38,38,55,81
33,52,36,68,45,43,47,72
36,53,38,67,46,41,46,62
42,81,38,86,58,59,81,55
60,107,40,92,60,58,81,52
63,109,38,90,59,61,82,55
66,108,38,81,57,60,81,56
66,107,38,88,64,60,81,56
62,93,40,98,69,46,47,50
46,65,38,101,79,48,46,65
43,64,68,104,78,45,41,245
38,64,74,105,76,42,41,284
32,63,75,102,71,41,37,347
28,52,74,74,57,38,34,356
27,45,73,71,44,33,28,354
31,42,48,70,49,29,29,262
30,39,34,65,47,27,26,219
33,39,32,64,47,27,31,89
33,38,30,65,45,27,33,40
33,38,31,59,43,25,31,43
28,33,34,60,39,25,29,42
29,29,33,59,39,27,30,39
28,30,32,55,39,29,32,37
29,32,32,55,39,27,33,37
26,36,32,56,47,26,33,33
27,34,30,53,52,28,34,32
25,37,32,56,56,29,34,36
25,32,29,58,58,48,44,41
26,35,28,57,59,52,43,41
26,31,26,60,52,52,42,35
26,31,27,76,48,53,42,37
31,36,31,74,45,53,43,193
30,43,35,75,50,41,27,453
34,44,36,78,50,45,32,681
36,48,39,77,54,50,34,707
36,48,36,59,53,52,34,715
32,43,34,67,56,50,32,712
31,37,30,69,50,46,32,633
27,32,28,66,50,38,25,411
24,27,29,79,43,32,30,407
24,30,29,82,42,28,28,398
28,30,29,77,38,28,30,537
30,32,36,76,38,34,29,528
32,40,41,79,36,57,76,537
35,42,37,67,36,58,78,571
37,43,38,66,38,59,80,615
37,42,36,67,39,61,81,499
38,57,35,82,40,59,88,468
38,59,31,83,44,61,84,433
36,57,32,75,44,65,82,346
39,57,33,73,41,65,81,256
37,58,36,71,41,64,80,208
38,44,32,52,41,63,75,625
38,37,31,49,37,44,41,758
38,39,29,53,38,36,36,797
34,37,27,56,37,36,43,806
34,36,25,56,37,36,42,811
32,32,26,57,36,39,38,545
30,32,28,53,35,35,37,338
31,30,29,49,31,34,35,225
30,32,29,46,33,36,36,188
28,34,34,49,37,34,37,135
25,34,34,46,35,34,38,92
27,33,34,43,36,33,38,48
25,32,32,48,41,35,38,54
26,33,36,57,40,29,32,55
26,29,30,54,36,32,32,51
30,31,30,55,36,31,35,48
29,30,31,61,37,34,34,46
28,31,32,59,31,32,36,42
27,28,26,49,32,34,34,39
28,30,26,48,31,31,32,40
28,31,25,53,33,31,31,39
36,41,33,67,35,30,37,43
38,41,32,66,36,32,36,41
38,41,34,65,36,36,39,39
39,41,34,66,34,39,40,43
39,43,43,84,44,42,40,45
36,34,38,76,46,40,35,42
33,35,38,76,44,39,34,97
35,35,36,76,48,33,28,379
38,38,44,141,74,56,57,434
36,35,36,141,71,57,59,437
32,37,38,144,74,62,65,441
37,38,41,148,78,69,75,441
51,55,43,154,78,80,88,247
60,58,41,109,60,75,88,142
76,62,49,102,60,82,108,559
85,65,47,96,65,103,124,950
93,79,49,91,66,107,122,970
101,72,53,114,73,106,129,975
100,81,64,154,82,123,140,977
92,112,77,170,94,146,203,832
101,131,81,178,97,133,200,497
130,128,80,184,101,134,209,516
125,139,79,175,107,131,203,515
137,148,74,162,106,110,194,511
139,140,62,153,97,82,131,493
140,132,58,145,89,83,129,322
131,138,63,155,84,81,119,205
126,126,61,156,74,79,122,182
112,124,60,136,66,82,138,191
115,119,56,135,68,67,116,160
100,113,59,134,65,67,117,144
69,105,54,113,60,58,115,142
71,114,52,97,55,67,118,143
83,102,46,81,49,69,106,144
72,97,42,69,47,76,116,166
73,96,37,68,48,70,107,159
75,100,40,96,60,71,108,344
85,95,40,101,62,67,94,459
74,93,44,102,63,57,87,461
79,93,46,96,58,47,80,450
76,85,45,92,55,46,74,651
77,82,41,67,41,41,63,961
64,81,41,60,39,37,64,1079
61,88,39,55,33,38,55,1083
62,78,38,57,35,40,54,1090
76,81,41,59,42,43,63,990
77,81,42,53,43,42,62,623
80,84,44,55,42,41,60,231
83,81,40,76,51,67,115,198
78,82,40,78,52,67,120,151
73,91,38,82,48,67,122,98
72,83,35,82,49,68,124,76
80,107,38,109,63,77,146,74
77,112,40,103,56,59,109,68
87,139,45,107,61,58,99,65
96,138,50,119,64,88,176,91
96,146,53,133,69,98,191,104
113,133,51,121,73,156,279,151
117,144,57,136,81,159,287,156
113,131,54,139,89,164,292,159
108,156,56,129,89,152,259,148
108,174,54,120,95,153,263,146
120,244,58,116,100,90,158,107
122,268,51,101,102,102,179,110
141,310,63,108,99,105,180,114
148,309,70,108,100,130,172,127
174,341,78,114,96,144,186,155
164,317,75,115,82,146,193,170
163,294,76,112,77,139,165,174
154,259,67,97,65,131,157,173
149,250,56,97,64,106,156,185
117,190,44,86,64,87,138,166
104,154,46,79,65,92,120,144
106,156,46,77,65,81,115,146
97,131,45,74,64,83,111,150
86,120,43,78,65,89,122,123
85,112,42,74,59,73,100,114
85,108,39,72,55,72,111,114
72,102,37,64,50,76,117,95
78,123,34,61,49,72,117,80
79,125,36,52,43,63,105,73
83,127,41,55,38,75,111,76
80,125,38,51,35,65,94,68
83,127,42,61,36,64,83,79
71,105,43,59,36,65,85,182
75,114,42,57,35,71,98,263
86,119,39,55,36,58,78,260
81,117,42,65,39,57,83,278
80,110,39,60,37,56,83,283
83,109,36,60,39,73,126,235
82,102,35,58,39,68,116,143
67,98,34,58,40,66,117,144
75,111,33,44,38,65,115,108
86,110,30,39,36,65,115,87
84,114,31,41,34,46,64,77
80,119,33,54,37,49,93,73
76,116,36,59,39,49,96,70
80,107,42,78,44,50,103,74
73,102,43,82,49,48,103,70
81,100,45,83,49,46,105,82
80,91,42,74,49,51,104,82
87,95,40,73,46,53,100,85
81,88,36,60,42,56,97,81
77,92,35,56,37,63,113,77
68,103,35,52,36,65,110,61
66,109,37,54,34,60,87,74
68,105,35,50,39,61,98,186
70,119,31,41,38,55,94,360
69,131,30,43,41,47,70,374
80,127,28,44,41,47,71,407
88,132,31,41,41,42,69,427
84,137,32,40,35,49,88,424
81,134,32,39,35,64,124,539
91,123,37,40,33,65,132,612
86,121,37,39,33,66,133,910
81,109,33,55,30,65,130,926
81,109,36,64,31,66,127,1046
90,105,36,66,35,56,97,1021
89,106,34,65,35,57,91,1068
92,118,37,66,35,62,109,821
93,117,38,52,35,66,116,804
93,112,35,47,35,58,101,631
85,114,33,50,38,61,109,498
80,123,34,54,39,61,114,243
78,119,33,53,40,52,98,220
76,121,34,54,40,47,96,167
78,125,37,53,42,59,117,118
78,126,38,51,38,54,107,102
72,111,34,48,34,52,102,87
67,101,32,50,35,54,102,71
70,92,30,49,37,58,103,55
74,85,27,51,40,65,94,64
83,88,28,47,37,63,92,57
93,92,31,46,38,62,88,94
99,97,31,48,38,63,88,202
100,111,31,53,37,60,87,228
94,110,33,52,33,36,59,230
84,99,32,52,34,36,59,247
72,118,30,51,35,36,59,260
57,109,31,53,37,43,74,215
63,100,32,56,39,49,70,200
61,106,34,56,39,51,73,202
60,109,35,56,43,69,124,182
70,87,35,55,42,69,123,149
73,89,34,52,39,68,116,111
64,101,36,44,37,70,126,96
67,99,33,41,37,69,124,84
67,97,34,45,34,51,78,85
56,98,33,47,35,53,76,77
58,94,34,49,33,46,74,75
58,84,30,50,31,37,56,60
59,80,27,49,34,47,66,57
63,83,28,54,33,59,100,52
65,82,28,51,34,57,101,53
64,102,29,47,33,57,97,50
63,107,29,45,35,58,96,51
62,115,31,49,36,54,99,60
60,114,30,40,34,40,63,108
61,112,31,46,34,41,70,198
67,105,33,52,34,41,74,243
65,99,38,56,35,42,75,696
68,112,36,53,33,43,65,1090
69,111,42,53,33,42,62,1191
69,114,43,57,35,53,76,1245
66,109,44,58,40,52,75,1245
69,127,40,52,41,53,75,1065
68,106,41,53,39,47,70,664
65,104,34,58,44,52,76,457
71,112,35,52,43,40,60,256
68,107,30,47,39,42,61,224
66,96,33,59,39,41,65,249
69,112,36,64,39,40,66,343
76,114,36,59,31,34,65,375
68,110,33,62,37,36,59,359
73,116,33,65,40,45,85,357
74,110,31,56,40,45,86,327
69,101,27,52,40,58,103,203
65,103,26,52,40,61,100,105
67,95,26,54,39,59,104,96
69,98,26,51,38,53,83,80
66,96,26,51,38,57,93,74
65,86,25,50,40,50,79,61
61,81,28,51,45,49,80,56
64,84,29,42,45,50,77,52
69,83,36,42,45,55,88,53
72,92,34,47,45,50,75,50
74,93,35,49,45,47,68,52
79,104,38,54,41,45,73,52
75,108,38,57,38,48,83,52
81,117,35,70,37,43,79,64
75,112,35,68,34,42,76,60
72,111,36,65,30,39,77,61
72,108,32,66,34,57,90,66
76,102,32,67,36,60,83,68
61,99,27,52,40,60,73,56
64,100,30,50,42,61,74,54
64,107,33,56,43,64,78,56
61,100,35,53,45,48,62,51
62,103,34,50,45,41,60,56
65,90,36,57,42,39,60,64
66,86,35,56,40,39,65,66
69,81,31,58,44,35,59,64
81,104,31,59,43,37,62,67
83,104,33,59,42,50,76,75
81,114,33,56,43,52,88,73
104,126,42,83,50,65,111,101
108,130,47,84,53,81,136,109
113,141,48,85,50,87,135,115
111,142,49,85,50,86,134,112
123,140,50,88,51,88,136,120
110,129,45,68,46,81,119,105
113,123,41,63,39,70,104,112
117,94,40,60,39,61,99,105
126,102,57,65,47,64,96,114
120,105,57,71,47,63,99,109
116,101,60,71,52,62,102,107
111,106,60,68,52,56,87,95
96,106,60,72,53,58,94,99
83,100,44,64,45,47,87,95
74,100,43,63,45,40,71,85
81,115,38,72,44,39,57,82
89,120,40,76,45,39,58,81
88,116,40,72,46,44,64,81
89,122,47,71,47,64,112,75
93,113,45,61,44,63,109,85
85,101,42,51,38,65,112,86
85,125,40,50,34,65,116,84
88,128,38,50,36,62,114,76
87,135,30,50,34,45,77,69
79,139,30,47,34,46,80,68
78,136,33,44,33,45,85,64
63,113,34,42,32,46,80,62
61,119,34,43,30,49,75,61
60,105,35,48,30,56,98,76
73,98,35,49,33,55,96,73
71,99,34,47,35,51,90,75
72,90,37,49,36,51,91,73
71,85,37,50,34,47,89,75
71,94,35,45,38,39,72,74
67,102,35,44,35,39,71,65
70,103,34,47,35,42,71,62
70,120,31,47,34,44,77,65
67,120,34,50,38,44,75,61
63,110,35,52,34,41,55,49
61,119,39,57,37,49,63,52
58,119,39,55,36,46,60,54
54,106,37,51,35,45,51,54
52,102,35,48,31,45,49,54
60,102,31,47,32,40,50,46
58,87,26,43,30,29,38,55
62,83,27,40,36,30,39,52
65,82,30,39,39,36,55,52
68,84,31,36,41,45,66,51
67,87,32,34,40,46,65,51
64,81,31,35,38,46,64,41
64,86,32,41,33,47,66,43
67,84,30,44,36,43,63,43
64,80,28,47,35,33,52,46
63,76,30,46,35,36,54,48
64,69,35,54,43,47,65,63
69,68,35,53,45,51,81,67
75,69,43,51,41,51,75,65
78,65,50,49,38,50,76,65
75,66,53,50,39,51,79,67
73,66,53,42,33,43,74,56
75,76,52,36,30,38,58,52
66,72,45,37,31,36,57,53
61,77,37,39,32,36,56,54
63,87,31,42,33,40,57,52
66,88,26,42,32,39,53,46
52,78,25,44,33,39,48,45
54,79,24,46,32,45,66,43
65,93,25,45,34,47,67,54
62,87,24,42,30,43,61,58
58,89,25,42,31,43,61,61
62,89,29,50,28,42,67,60
65,88,34,50,31,34,50,63
56,71,36,51,28,36,56,61
63,66,36,53,31,33,54,52
67,67,40,52,32,34,62,49
66,67,39,42,35,39,59,50
65,82,42,63,38,48,73,49
64,82,39,60,39,47,77,44
61,96,40,61,37,48,77,51
61,103,34,61,35,46,74,55
65,103,33,63,35,42,71,57
65,93,29,46,29,32,56,55
69,88,26,48,34,32,46,57
66,86,36,51,32,29,43,52
72,82,41,51,35,30,47,49
68,83,42,49,32,29,47,46
64,80,40,43,33,29,46,45
58,81,42,56,30,26,44,40
58,69,33,53,31,30,52,43
50,64,26,53,30,30,44,40
53,62,25,54,29,33,43,46
51,60,28,56,33,37,42,44
57,74,27,44,31,35,41,50
54,72,27,41,31,40,34,48
53,72,28,40,30,39,51,49
53,75,28,40,30,39,52,47
52,76,26,41,28,38,53,48
46,64,27,41,27,44,55,46
47,62,28,41,30,47,56,49
58,77,30,44,29,45,44,50
54,86,30,42,30,44,41,49
55,89,31,41,30,42,46,51
62,91,31,44,31,37,45,48
68,95,30,43,26,24,45,47
57,80,28,42,31,32,43,47
63,108,32,47,33,32,49,46
64,115,32,47,34,34,48,49
60,117,35,40,39,36,50,58
58,117,35,42,40,37,52,54
60,119,35,43,38,33,55,59
64,96,34,48,43,34,50,62
63,84,35,51,42,34,45,60
68,84,32,52,38,30,45,56
67,94,32,52,40,32,44,56
74,92,35,52,40,32,46,52
67,80,33,43,32,30,45,58
75,86,34,36,35,35,50,58
69,81,36,40,34,41,49,58
73,75,37,42,34,39,46,59
65,73,34,43,35,42,48,59
72,72,34,61,38,45,58,56
69,65,31,73,42,55,85,65
84,63,35,85,49,68,104,86
88,58,43,90,53,82,130,109
98,71,46,97,52,92,150,201
117,89,46,97,56,94,154,265
126,91,49,109,55,93,143,375
120,106,49,104,56,88,145,391
120,118,43,100,56,81,128,414
117,139,43,98,58,69,102,395
120,158,50,95,61,75,93,359
114,163,48,80,94,71,89,243
137,157,46,80,108,70,63,213
139,149,46,79,115,64,51,156
134,128,45,88,117,63,47,111
115,89,37,93,117,53,46,104
117,84,42,102,98,57,56,162
91,89,43,109,81,53,64,226
106,92,52,127,76,65,92,225
147,108,67,142,78,73,111,238
157,117,75,154,77,92,144,264
161,117,82,149,69,102,172,237
177,131,88,156,79,108,191,259
183,151,93,174,86,109,185,308
192,152,85,158,86,115,187,336
187,154,79,148,83,100,168,325
196,152,75,181,97,106,174,385
191,147,68,177,90,110,169,346
177,137,62,155,82,109,177,318
180,125,60,215,101,100,165,279
196,138,61,215,106,105,176,275
198,137,56,219,110,87,141,190
193,132,57,230,111,77,127,187
205,124,49,236,119,68,116,170
168,123,47,185,100,74,128,184
147,107,45,186,97,64,108,174
152,115,58,175,96,65,111,192
166,143,59,153,93,83,156,204
163,151,58,141,83,92,161,211
165,147,62,143,80,89,158,200
216,162,74,152,87,120,192,207
217,179,77,167,89,137,240,190
217,171,79,180,95,136,217,164
229,165,80,193,107,137,228,162
260,170,85,206,125,156,247,198
338,169,106,242,158,161,260,336
400,156,136,327,241,213,312,410
437,188,140,359,264,214,316,479
436,189,143,375,293,219,315,518
437,198,145,432,338,239,345,578
399,188,128,414,341,253,340,559
363,191,106,371,328,228,300,530
346,154,116,389,350,235,299,485
405,156,114,388,357,242,298,475
461,162,116,322,319,221,259,427
481,169,117,341,310,187,231,384
469,167,101,309,271,167,190,362
447,154,83,249,224,152,189,341
509,154,110,274,199,163,251,394
466,145,113,338,247,163,239,362
411,155,115,416,385,185,260,349
414,154,120,455,429,194,278,365
425,165,125,475,467,209,280,369
280,173,99,470,460,193,223,272
261,172,93,452,442,186,222,260
263,158,86,369,325,167,200,241
229,150,90,320,262,145,163,210
212,143,82,276,178,124,166,197
195,139,80,227,164,109,163,177
170,123,73,163,133,111,158,178
165,110,69,143,126,115,167,169
161,111,56,121,116,129,171,147
138,108,57,127,110,119,147,137
145,99,67,177,122,115,144,165
128,103,66,176,113,114,141,148
150,122,72,170,102,135,125,164
165,125,73,180,116,126,104,178
185,143,73,206,159,139,108,218
198,150,66,206,169,145,112,194
198,154,67,208,168,144,117,192
178,140,61,223,183,125,114,192
165,153,65,304,214,132,165,190
177,189,69,302,190,125,177,170
143,185,66,276,172,118,168,169
167,186,66,277,171,112,164,182
173,194,84,340,181,151,231,184
174,180,78,265,136,135,198,175
149,143,78,264,136,132,187,149
157,138,80,272,139,135,189,145
148,140,95,268,143,154,203,133
137,144,89,176,105,104,121,110
129,147,85,185,100,105,120,92
131,126,85,161,90,104,122,120
126,118,85,161,89,94,115,117
114,122,72,174,89,63,86,109
106,107,59,161,86,69,106,111
113,98,59,141,80,69,112,116
102,130,52,156,87,74,116,96
100,143,59,142,84,75,115,87
102,127,53,117,70,74,115,88
105,127,60,150,81,74,121,99
104,132,61,154,83,78,113,102
114,106,75,176,117,103,111,101
135,95,73,191,160,122,111,112
144,133,72,222,180,128,122,111
142,135,67,208,178,127,98,97
150,145,68,212,183,124,98,96
138,145,55,180,159,97,84,86
114,141,51,160,113,74,82,71
93,120,48,114,82,60,60,69
91,114,45,99,72,51,57,71
86,100,53,110,65,57,66,63
88,91,50,111,62,61,90,65
91,90,47,111,59,58,90,63
89,76,59,132,67,67,96,61
87,78,61,130,67,65,92,142
67,76,58,108,63,64,85,162
67,91,66,118,75,65,62,163
65,90,65,123,76,68,65,189
64,92,56,100,70,60,60,209
78,91,57,122,74,61,59,182
81,94,51,129,73,55,64,166
77,82,46,125,65,67,72,164
77,85,50,121,68,80,96,141
82,93,50,124,65,80,97,112
68,92,48,108,66,80,100,81
71,95,49,109,62,78,97,88
86,92,52,110,62,72,99,89
89,102,48,112,55,65,88,83
87,95,47,105,54,75,101,91
87,93,48,120,59,77,102,94
86,79,46,119,67,78,102,96
88,99,55,132,67,73,102,119
91,85,57,146,69,67,96,117
94,78,57,152,75,59,87,120
99,84,56,137,70,58,85,116
99,85,57,129,63,56,85,105
81,65,39,111,59,60,79,77
76,64,39,84,60,63,69,79
70,63,34,74,51,58,57,60
68,56,34,78,49,56,59,58
61,55,34,78,46,57,55,53
71,57,34,73,47,53,48,52
68,55,30,73,40,44,43,47
67,57,32,75,43,44,43,46
64,60,32,70,45,43,39,48
68,62,32,67,42,40,43,51
59,59,34,74,39,36,41,45
53,61,35,82,43,44,63,50
51,60,40,83,44,48,67,49
53,73,39,81,41,49,68,50
52,69,41,83,41,46,65,48
60,84,45,78,43,52,71,48
68,95,43,71,39,55,76,57
84,105,39,62,40,55,77,59
82,97,38,60,39,54,77,59
81,99,38,65,48,58,82,60
75,86,32,61,46,53,77,63
84,74,32,61,49,46,62,56
64,69,33,68,48,44,56,52
63,70,35,76,49,45,55,52
64,66,34,78,43,39,50,57
72,67,35,78,44,49,59,55
68,86,46,116,61,50,65,55
72,78,49,112,62,58,86,111
82,75,53,131,72,61,103,128
89,74,52,141,77,67,108,160
85,85,56,145,81,60,107,172
76,89,48,130,68,90,167,175
86,92,45,133,70,91,160,156
79,93,40,110,60,100,168,145
74,96,40,92,51,99,167,111
98,142,41,86,47,101,168,94
105,145,42,71,52,81,129,89
107,151,47,77,51,77,133,91
113,162,51,88,59,66,109,90
119,170,90,117,82,73,121,110
116,131,112,129,85,79,135,116
122,122,123,140,91,93,141,132
119,125,124,157,103,109,159,127
145,118,125,159,102,114,175,153
148,107,106,152,94,112,186,152
149,110,95,149,98,162,260,173
145,109,80,138,90,155,252,163
150,107,81,130,79,145,242,164
128,104,81,137,86,151,264,147
131,123,73,131,81,152,259,146
126,127,60,128,81,121,210,120
133,130,61,144,94,139,232,129
121,122,76,156,108,150,255,144
113,118,77,166,104,149,235,143
115,150,80,164,103,148,230,130
113,154,80,165,101,133,212,144
97,147,80,157,94,114,188,134
105,150,60,135,79,108,178,121
110,149,56,112,74,95,162,113
102,97,54,113,74,94,165,115
95,85,46,102,67,90,168,90
96,83,46,102,63,92,171,102
90,98,46,103,57,82,154,96
104,104,44,100,60,82,151,97
102,103,43,152,74,80,150,97
101,100,45,161,77,72,142,101
107,110,48,164,76,63,130,96
113,93,55,161,80,58,126,95
104,87,57,168,82,65,138,102
105,109,82,168,104,87,148,145
108,128,84,168,104,89,138,148
115,123,87,160,104,96,160,151
110,136,86,207,121,114,185,172
118,143,91,217,122,117,188,184
113,155,93,208,107,123,219,159
113,136,91,211,107,130,231,176
111,149,90,235,112,146,258,203
113,144,93,240,116,148,257,189
105,157,103,262,122,154,261,192
132,146,87,264,131,155,251,199
130,148,88,268,144,156,248,185
124,147,86,263,181,143,210,158
132,152,83,237,178,160,229,163
142,151,71,223,197,166,242,175
130,159,78,216,228,178,244,191
134,175,111,341,461,219,252,227
148,177,113,388,505,233,265,235
153,171,115,391,524,214,239,256
150,209,118,405,534,207,222,239
155,219,117,462,543,191,200,232
168,218,95,414,387,155,202,213
163,211,92,378,343,161,235,225
159,230,91,379,345,163,228,196
153,189,85,393,418,171,237,204
143,168,77,390,480,198,250,196
125,153,73,461,585,219,241,174
118,154,85,516,618,209,205,145
128,135,87,553,604,214,201,142
125,132,92,559,552,212,184,128
133,158,101,553,556,212,186,114
145,180,101,471,480,178,175,122
138,180,96,490,446,180,154,118
123,169,99,497,491,190,160,125
122,180,91,464,507,188,158,135
120,155,86,443,458,165,136,136
114,138,83,499,441,169,132,140
120,143,83,504,447,169,136,147
123,154,74,461,395,182,176,149
130,148,84,462,362,191,194,155
139,175,87,487,321,188,196,170
141,177,90,506,402,192,201,163
150,179,92,429,393,200,228,171
149,178,94,418,394,168,195,172
155,190,91,466,401,181,218,196
142,168,95,463,428,187,210,190
144,172,97,445,349,191,212,222
142,171,103,500,355,188,189,222
136,166,102,521,369,192,190,218
136,158,105,577,477,177,150,200
139,168,114,579,475,210,181,233
170,180,122,583,559,239,193,238
227,194,121,553,579,241,192,252
235,192,128,564,600,242,202,261
270,205,131,480,564,241,196,248
279,221,120,462,600,236,225,231
260,226,126,542,600,241,252,213
224,240,129,667,680,250,266,194
229,242,121,663,748,267,260,211
194,340,115,685,799,280,265,224
183,391,127,789,917,323,245,233
195,391,137,934,1086,338,269,251
212,418,143,959,1164,359,272,278
215,441,157,1019,1157,363,272,270
210,384,174,1163,1221,409,275,286
223,327,167,1175,1205,410,279,291
250,336,150,1051,1066,396,223,267
257,319,134,948,945,370,197,231
273,348,129,967,991,365,212,235
304,355,122,839,913,349,251,223
299,352,129,759,810,287,220,188
272,335,127,700,736,261,209,201
242,301,126,686,682,247,206,205
212,240,117,549,535,227,181,173
154,199,94,443,398,157,96,159
135,178,73,375,318,148,82,266
114,162,60,320,278,125,78,355
95,149,59,311,249,118,66,390
74,112,52,284,178,111,64,391
62,68,47,220,132,59,54,384
51,54,41,118,109,48,43,313
48,56,40,115,88,47,37,186
48,61,41,97,84,54,41,59
52,62,40,75,74,54,38,50
54,66,43,69,62,54,44,43
67,84,47,77,64,74,65,41
71,87,47,76,58,74,66,40
64,80,44,67,56,69,64,37
61,78,41,61,56,70,64,35
59,78,35,59,56,66,61,36
47,60,32,61,48,42,40,31
46,58,36,61,48,39,36,38
46,62,37,61,44,38,39,43
47,60,40,63,51,49,43,50
51,61,41,65,51,50,43,50
48,59,41,56,53,48,39,50
44,57,38,60,49,48,40,44
44,60,35,60,50,69,69,43
47,64,34,59,41,64,68,32
42,66,48,60,41,62,69,39
42,65,53,57,38,64,71,41
40,65,52,45,38,66,71,40
44,60,53,46,35,45,43,43
41,59,51,49,39,42,43,44
40,58,36,47,37,45,49,44
46,67,28,48,36,45,46,44
51,71,28,46,39,48,53,46
48,77,28,46,38,72,80,48
46,77,28,47,33,73,81,46
47,76,28,41,34,72,79,41
47,72,33,51,45,73,84,46
61,77,36,72,55,72,84,49
61,75,37,84,94,57,72,49
62,80,39,127,145,65,70,51
71,107,54,228,295,98,69,62
76,113,58,326,397,115,63,64
80,121,59,351,409,117,59,70
88,132,63,381,420,120,40,70
91,139,63,374,420,117,40,69
84,119,50,329,345,94,38,66
80,117,42,233,224,70,37,61
64,103,41,193,211,66,31,56
52,85,33,129,175,57,43,52
45,71,38,121,137,52,46,57
53,77,41,104,104,49,46,49
49,65,41,98,94,49,46,50
47,64,38,92,64,43,46,43
51,72,39,71,57,32,34,42
56,74,32,56,55,29,26,36
56,69,29,59,56,39,26,40
59,72,27,55,106,43,26,39
69,79,35,56,114,51,31,48
66,71,39,82,127,56,31,51
70,80,46,112,145,65,40,57
73,88,48,122,153,68,52,64
73,88,51,121,125,72,55,70
63,84,48,126,134,68,57,69
66,87,47,157,185,76,63,69
64,77,45,166,222,96,60,67
62,80,54,268,264,120,56,68
62,92,63,338,360,137,66,67
111,224,78,452,570,189,67,70
122,241,79,459,607,200,69,76
145,265,88,484,766,254,81,83
153,278,86,454,834,265,86,85
154,284,86,556,940,292,102,93
129,202,84,574,929,287,113,96
177,200,94,667,932,289,115,118
164,174,87,655,862,247,118,118
164,156,86,677,817,235,122,126
174,139,90,644,671,192,108,132
176,151,83,595,547,175,102,136
124,144,81,537,571,168,102,137
116,140,82,532,487,151,91,149
103,142,84,588,517,136,80,140
85,145,79,536,503,141,76,131
80,125,74,492,485,113,63,127
69,105,60,418,379,95,57,100
65,95,55,408,351,90,49,76
62,74,47,239,198,78,48,68
53,60,34,132,165,52,40,59
42,54,31,111,141,52,40,42
49,58,30,111,132,54,40,48
48,55,32,104,123,57,38,48
46,61,29,97,104,55,37,48
49,69,30,65,72,54,37,51
49,69,32,59,60,51,35,54
45,72,32,56,60,46,35,50
48,74,39,93,106,63,47,58
54,69,40,114,152,82,49,59
61,89,50,139,219,99,53,60
62,100,52,158,238,111,57,60
62,97,55,188,298,122,58,67
72,115,57,350,497,139,67,67
86,132,61,381,528,167,68,70
101,155,62,395,525,165,77,73
100,149,72,435,620,173,79,79
107,179,86,554,694,190,84,78
114,187,85,500,599,181,84,96
109,183,86,520,638,174,106,129
105,187,89,564,704,176,104,137
114,204,84,558,648,166,110,143
118,202,85,549,716,195,135,168
124,203,97,615,782,226,141,166
121,228,99,606,794,223,136,151
123,227,107,716,825,244,140,156
121,217,107,732,823,244,136,155
112,199,102,679,702,204,110,128
94,195,90,593,605,158,97,117
93,166,84,564,517,134,83,104
70,125,64,334,371,83,69,82
65,119,63,244,321,74,64,63
62,114,48,130,256,62,56,54
60,85,41,116,228,62,48,47
54,59,38,109,200,55,37,44
52,59,38,100,97,41,31,44
47,52,41,80,69,41,32,46
50,47,49,76,68,60,42,60
47,59,50,78,70,67,44,65
52,89,51,107,149,72,54,71
56,95,59,201,319,95,55,71
53,112,65,400,495,113,89,79
74,167,84,499,598,131,90,94
104,208,114,722,738,192,98,112
137,244,149,1010,992,263,110,127
166,298,164,1100,1024,295,121,147
174,305,165,1079,1007,313,104,147
169,283,156,1076,1041,309,107,142
165,275,141,964,976,277,101,137
151,249,109,736,801,237,91,137
148,216,91,641,820,224,89,126
150,208,88,598,776,194,90,123
175,241,106,703,785,213,90,148
178,234,110,746,815,233,106,147
181,237,116,768,795,234,113,142
161,207,108,732,760,224,113,136
154,201,105,745,772,224,108,139
127,165,84,605,649,211,104,109
111,146,79,558,667,211,93,107
103,149,76,506,695,229,79,111
104,162,81,503,645,216,76,110
101,160,79,470,602,210,74,107
91,150,79,438,587,196,65,98
88,152,72,376,468,168,57,85
73,127,58,213,261,87,50,62
67,112,50,110,115,47,24,53
67,113,50,78,92,47,27,45
74,115,52,75,83,46,41,52
80,112,53,83,81,63,45,64
76,116,52,104,113,83,49,67
75,118,53,119,137,88,49,70
86,118,54,128,172,93,59,86
92,143,57,205,235,120,68,112
104,152,67,382,325,132,74,111
116,163,73,439,468,138,75,114
133,203,84,520,511,164,86,132
151,247,96,623,624,182,96,133
166,268,102,788,746,199,102,130
180,306,104,837,858,229,114,161
203,330,130,974,900,258,131,207
220,356,150,1049,966,282,143,217
224,368,149,1099,990,296,162,236
221,375,156,1041,934,327,179,252
228,366,154,983,894,343,177,258
231,364,172,974,933,352,188,251
213,340,161,958,929,335,197,256
205,317,170,897,848,326,200,300
193,305,169,936,931,333,195,292
215,332,183,968,882,306,191,290
201,335,155,871,728,284,208,301
215,315,145,776,732,299,208,316
211,330,138,864,797,310,195,269
230,321,138,840,719,321,217,339
187,284,124,813,732,340,222,361
205,320,123,785,768,352,224,357
209,374,130,772,685,333,237,341
245,364,138,667,759,370,277,349
236,364,135,557,724,353,276,348
261,356,136,675,803,415,347,334
262,351,159,737,816,475,340,347
276,318,165,756,808,471,334,342
275,323,167,726,768,475,347,349
319,330,189,766,784,517,385,364
378,348,210,769,732,460,340,398
384,431,198,795,825,414,352,400
373,429,191,811,854,422,344,398
381,509,198,877,861,436,336,421
368,548,184,952,913,490,311,402
333,571,178,933,868,514,310,375
342,562,194,899,784,526,294,372
388,617,254,1007,850,550,314,399
369,590,268,1142,888,522,324,381
366,586,270,1148,886,421,308,370
355,585,261,1155,972,399,307,377
323,548,244,1223,1035,382,320,382
304,502,185,1196,1014,372,349,419
298,467,153,1090,927,362,332,411
324,472,146,1058,888,366,331,395
330,496,145,973,806,400,345,372
332,472,166,844,686,412,331,398
285,438,178,782,689,385,285,354
285,474,184,777,685,390,271,354
251,459,188,759,725,414,348,360
214,457,182,765,747,435,328,376
299,536,167,840,762,424,340,318
304,552,161,801,738,433,355,299
324,554,155,735,754,442,362,345
311,550,167,718,772,418,326,384
332,522,173,716,736,363,320,383
268,471,168,653,757,371,351,391
341,519,174,732,807,447,371,421
362,492,168,717,774,455,381,403
452,498,151,648,648,431,369,340
452,490,155,675,641,439,370,313
470,467,153,677,671,417,328,341
438,421,141,625,617,433,309,352
413,387,136,593,575,400,305,330
351,446,147,642,696,419,285,342
334,436,139,717,811,432,298,388
329,420,147,731,813,477,344,355
319,463,141,736,842,386,339,302
308,472,149,743,866,388,309,313
278,410,127,699,785,389,298,293
295,506,149,652,718,390,300,244
294,531,155,766,755,556,367,335
284,484,158,747,707,584,376,345
305,525,161,737,693,588,378,333
300,515,182,816,764,590,375,335
289,457,165,806,790,597,383,327
261,421,153,648,689,417,303,277
253,414,149,637,661,407,330,296
241,409,146,707,684,387,345,284
266,451,129,632,672,390,364,349
253,417,122,654,624,370,351,429
254,415,120,655,609,326,330,410
259,426,121,627,566,284,274,399
275,439,120,532,519,327,257,421
247,393,106,547,459,374,287,376
234,382,99,496,389,345,298,306
244,442,116,508,395,353,283,285
243,437,116,596,533,367,281,268
209,361,118,588,544,376,297,227
179,355,117,569,555,310,278,213
205,382,207,557,589,311,254,205
181,307,220,529,596,306,258,201
206,318,217,415,517,301,271,240
200,341,210,505,588,298,299,256
205,333,213,493,556,306,271,259
205,351,129,459,545,293,302,242
220,376,91,489,578,296,338,251
219,430,86,513,667,339,357,236
246,445,90,522,658,350,357,249
253,450,84,535,643,343,366,260
252,438,93,536,642,344,336,253
235,417,87,512,590,339,299,264
209,376,92,506,509,326,321,280
204,360,84,394,449,278,283,247
207,374,80,378,491,276,260,255
187,341,71,347,467,278,262,260
192,354,73,338,528,283,258,238
192,305,73,362,544,261,216,201
194,327,73,353,517,250,209,212
203,313,77,345,478,230,210,177
207,325,73,354,466,231,232,176
213,316,73,345,409,241,255,210
216,343,72,291,315,217,244,197
202,328,70,296,338,273,271,200
189,319,70,284,328,285,288,205
193,305,73,292,388,286,270,205
182,320,72,409,409,290,254,188
187,309,73,446,471,322,263,217
191,343,82,453,471,278,240,200
190,383,79,462,495,266,216,215
177,380,78,466,460,272,223,214
187,401,82,393,446,268,241,207
178,398,79,382,379,231,231,175
165,345,80,428,399,261,240,172
153,296,83,408,372,254,236,143
168,309,84,381,368,243,245,163
162,291,89,393,447,233,224,164
162,283,88,369,463,258,224,174
153,284,81,324,465,255,233,192
177,313,82,337,496,283,285,238
188,339,79,333,485,282,278,222
186,303,67,325,406,280,286,221
186,302,65,330,375,246,303,214
186,313,60,334,363,207,274,196
169,282,57,387,352,200,251,166
154,251,53,390,355,198,260,191
164,294,61,357,338,211,252,185
157,297,66,362,345,216,230,188
163,282,68,365,313,231,252,190
154,274,69,335,288,238,224,184
152,297,74,387,362,263,225,176
147,286,69,396,361,254,230,170
168,312,70,411,406,265,216,186
190,354,73,409,450,274,199,197
209,361,72,409,441,280,243,208
203,340,69,383,490,269,258,208
196,321,68,413,532,282,254,219
180,294,62,367,507,263,247,205
150,263,59,356,489,269,269,205
143,269,59,396,521,235,252,196
153,259,60,417,462,235,238,193
169,268,63,450,496,216,242,198
186,305,90,586,537,216,239,201
198,334,96,623,585,188,205,199
195,336,92,590,586,200,224,189
203,339,97,579,578,192,204,199
193,366,96,630,609,205,206,187
205,364,79,675,667,243,217,190
193,319,76,668,703,282,256,181
190,348,81,664,720,338,260,182
194,338,79,715,776,370,274,165
213,337,85,718,870,417,302,174
198,339,82,617,839,452,300,211
209,367,81,686,798,430,282,221
212,324,80,750,794,385,241,216
194,328,80,709,751,355,238,221
166,291,75,627,569,291,186,212
170,248,71,599,508,216,219,186
167,206,71,489,513,219,202,183
161,215,80,407,516,210,199,201
165,233,81,394,482,212,221,189
167,237,80,437,563,223,244,208
154,265,89,520,637,239,217,192
158,307,90,538,631,261,255,217
204,342,79,543,607,265,263,218
224,389,103,667,682,261,242,216
246,429,115,704,603,267,229,217
250,425,112,658,592,280,239,243
250,419,114,673,611,264,195,219
215,401,114,660,598,269,213,198
207,359,89,535,504,263,211,235
192,323,75,622,558,285,205,225
184,297,69,591,460,246,197,217
182,285,60,542,361,227,196,222
174,289,60,532,380,226,160,226
183,284,55,526,382,238,147,183
168,276,62,455,454,200,164,179
167,283,59,474,491,223,149,171
177,276,55,475,508,238,169,156
173,265,57,472,510,236,184,166
154,269,59,461,538,221,184,180
167,249,45,273,427,227,198,190
165,266,50,219,399,204,203,181
147,262,51,222,376,192,195,202
174,270,54,215,357,180,188,195
161,239,63,372,425,194,191,194
159,237,64,399,432,187,178,221
160,215,63,417,441,197,198,225
155,202,66,433,451,191,192,215
125,185,68,440,478,191,191,218
120,181,60,358,415,197,197,209
97,243,63,339,433,218,187,165
96,243,61,327,410,199,157,164
91,242,58,300,412,211,167,160
102,233,50,294,360,214,166,164
106,236,58,248,318,204,150,164
127,198,59,267,254,225,141,176
133,248,60,266,255,254,152,196
146,265,63,262,283,251,136,194
158,270,66,249,283,260,126,187
167,272,58,274,329,273,150,197
173,267,56,306,338,259,175,188
166,229,60,321,356,247,183,167
155,231,61,321,324,239,194,166
150,240,61,320,312,232,200,164
159,246,60,278,236,211,189,161
149,257,57,217,296,174,169,165
150,241,51,169,285,169,170,156
163,238,47,159,284,165,154,160
159,248,45,186,286,158,161,159
144,238,49,221,310,149,148,151
137,205,55,207,212,153,165,152
136,215,54,203,198,130,149,167
119,204,64,226,202,159,152,165
135,205,60,218,233,154,138,155
134,224,62,200,204,163,161,158
130,223,57,224,243,173,132,145
142,225,61,220,281,228,136,152
150,216,52,220,292,222,132,153
156,212,56,243,275,228,170,178
162,210,53,240,312,234,158,199
174,220,54,237,296,223,166,198
163,230,55,249,626,186,157,176
159,252,54,230,754,194,190,206
140,234,47,189,799,194,165,189
146,240,48,203,796,188,199,180
139,260,51,199,796,205,209,183
144,246,50,191,562,184,213,193
136,238,52,194,362,162,192,174
134,237,55,209,261,152,186,177
119,233,54,188,245,178,160,169
119,221,51,177,230,159,147,166
115,248,45,176,197,171,140,167
127,230,41,175,197,173,137,148
126,232,42,182,225,182,140,144
135,239,45,204,357,164,126,140
136,239,46,201,834,218,216,140
149,230,47,202,1178,217,220,138
145,232,47,207,1218,215,219,145
149,234,47,201,1220,213,233,155
143,232,42,220,1202,209,242,150
137,227,49,237,946,144,164,152
137,242,48,239,462,143,180,149
140,248,48,236,368,152,184,141
141,312,51,244,341,154,181,146
141,304,54,224,287,147,164,157
139,296,45,216,277,147,177,162
127,274,44,241,328,165,152,156
121,271,56,242,336,178,157,157
110,208,69,216,327,186,160,160
132,240,85,184,313,184,173,144
131,254,92,170,305,179,175,149
134,261,94,136,260,159,179,149
133,276,97,168,278,144,169,148
132,260,86,184,301,129,145,123
123,213,69,197,318,129,142,130
123,192,59,206,309,125,118,112
113,177,60,200,331,125,125,110
138,156,45,172,286,113,124,115
133,155,49,165,279,110,143,116
131,168,49,225,295,116,128,114
150,189,55,231,304,124,127,119
153,208,52,228,254,139,179,117
132,193,51,226,242,140,183,112
131,193,50,232,245,149,174,118
125,206,54,166,206,142,174,120
100,194,47,142,191,148,220,131
93,165,48,151,196,132,172,133
103,173,46,151,191,133,173,132
111,163,44,160,199,128,168,134
101,165,41,170,265,145,208,127
99,159,42,169,323,189,165,111
120,174,39,177,366,205,173,108
111,184,42,184,375,201,173,126
111,230,47,186,360,197,170,118
124,217,49,172,344,196,121,130
125,230,48,174,293,143,111,141
120,284,54,161,257,151,133,138
123,285,54,170,255,159,130,121
125,256,52,149,245,160,137,123
109,256,48,153,207,149,134,123
112,272,52,157,201,161,144,122
108,217,44,189,178,131,113,127
103,207,45,180,185,133,119,131
99,206,39,180,177,129,115,147
103,225,43,176,183,140,154,145
105,202,44,174,199,129,143,142
110,209,50,136,215,148,166,148
112,203,49,132,193,146,161,140
107,199,49,120,193,149,163,126
129,162,45,123,191,137,127,124
125,166,40,119,166,141,130,116
110,183,37,124,135,135,134,98
112,203,38,124,145,149,129,102
120,205,38,125,145,152,129,91
94,209,36,123,125,145,136,77
98,215,42,138,127,147,144,74
101,183,39,130,131,129,116,87
97,168,37,118,131,100,113,86
102,166,39,114,126,90,113,106
102,170,40,118,138,113,115,106
102,150,34,106,154,115,114,104
102,150,36,123,144,112,108,94
148,158,36,129,141,120,111,123
138,160,33,130,151,124,106,105
140,166,36,136,142,114,101,104
136,173,37,134,126,111,110,103
137,178,37,112,121,111,112,102
93,181,35,101,114,108,123,80
99,188,37,102,99,103,127,82
93,168,34,78,92,103,123,84
95,187,35,59,97,94,101,88
98,190,35,71,97,110,105,92
91,180,37,92,93,107,97,78
87,182,36,93,100,119,101,78
87,193,35,93,105,113,101,73
84,177,36,104,94,114,109,74
80,157,34,96,98,100,117,68
82,162,36,84,108,122,115,74
78,145,34,82,102,111,108,72
85,142,35,80,100,113,106,77
90,131,32,65,96,110,100,73
91,133,32,67,92,104,88,77
116,148,31,61,93,87,108,73
119,159,31,62,101,88,114,71
112,169,28,63,95,89,122,73
112,165,28,64,96,92,134,76
140,188,29,65,106,105,159,73
117,177,29,62,104,103,143,77
117,191,30,62,103,103,148,86
125,185,36,73,111,109,152,87
126,196,37,71,115,111,141,92
89,174,39,66,103,100,110,94
90,160,37,67,99,92,108,101
97,149,36,66,98,96,100,101
97,154,31,63,106,87,89,100
90,145,29,68,111,84,100,107
91,150,27,82,111,99,127,114
90,163,29,89,110,97,129,106
82,150,33,93,104,87,123,105
101,178,38,93,93,84,118,124
98,177,39,95,87,83,120,116
104,182,39,88,87,76,134,116
110,181,37,83,87,78,137,112
112,181,33,79,97,82,136,109
90,139,26,75,100,79,136,83
92,134,28,71,99,76,121,74
86,122,31,64,106,68,84,68
73,111,30,61,103,71,81,69
70,108,33,68,95,72,82,62
67,106,32,62,90,74,90,58
70,127,32,57,90,76,96,67
66,126,30,56,78,69,87,66
70,125,32,56,86,73,96,70
75,127,29,47,87,70,103,74
72,117,30,56,86,80,106,80
67,104,28,66,89,77,100,75
68,111,26,71,97,78,99,69
64,108,22,68,96,76,106,66
57,118,25,72,98,76,103,61
58,125,25,68,93,76,111,59
58,115,23,56,86,75,112,59
60,115,26,56,78,75,112,60
64,115,28,57,73,74,109,58
67,100,27,52,68,71,112,63
68,103,25,56,70,59,93,60
66,101,27,64,70,63,94,58
69,120,27,67,68,64,100,54
68,123,29,70,62,72,102,54
65,128,34,68,68,72,93,58
75,147,37,61,77,76,99,70
75,150,35,54,75,74,102,71
72,142,35,46,74,76,94,70
70,141,33,43,72,59,68,66
69,134,30,42,70,68,84,69
55,114,27,40,62,66,92,59
61,109,29,39,68,76,114,67
61,93,27,53,69,74,122,67
62,108,28,51,67,73,123,73
61,128,25,58,65,77,128,67
63,127,24,63,65,86,123,69
56,130,25,68,77,78,102,59
58,143,25,63,78,77,95,62
57,133,26,64,84,80,98,58
57,117,26,65,88,95,125,54
58,109,27,61,83,84,119,50
60,117,26,64,71,97,131,49
63,104,27,63,67,100,134,46
65,105,29,70,63,98,133,46
68,111,30,67,54,80,107,49
73,128,31,69,57,82,114,62
70,126,32,66,68,75,106,105
65,123,30,61,79,75,106,134
64,119,28,62,78,74,104,143
59,108,26,61,83,63,87,162
55,98,28,59,86,64,80,168
58,91,26,58,75,62,80,148
66,103,30,59,68,72,90,124
74,129,36,49,72,75,90,117
83,133,39,53,73,98,118,95
80,125,37,54,72,97,119,94
90,130,36,52,89,92,119,98
89,119,34,59,95,83,119,167
90,114,32,69,96,83,127,225
91,115,30,73,95,64,103,232
97,132,33,110,133,84,112,272
100,132,34,131,140,104,139,320
99,144,37,156,159,116,145,301
96,137,36,156,195,128,144,270
90,143,38,175,210,133,150,275
88,144,38,182,195,137,158,232
76,152,44,190,220,142,152,166
78,145,41,188,233,140,146,153
86,153,45,220,332,160,142,164
93,157,44,284,448,168,136,154
92,153,43,316,567,177,122,160
119,177,53,438,660,187,121,158
119,192,61,458,692,189,117,155
123,233,61,493,679,171,122,140
119,235,63,545,641,184,138,131
120,236,65,538,596,175,145,124
117,233,56,475,554,165,126,118
128,244,57,467,566,159,125,124
127,204,52,479,543,163,143,105
126,199,54,381,538,142,132,102
129,201,52,389,481,135,123,108
115,180,47,351,435,145,135,109
104,161,36,327,379,144,137,106
96,167,46,255,364,133,110,107
96,174,41,242,317,123,113,106
90,175,41,207,321,132,122,106
91,185,47,213,263,106,112,115
87,183,48,218,244,101,106,106
92,191,41,203,262,110,109,104
98,183,42,232,279,118,107,114
111,182,45,225,279,110,111,107
103,167,38,212,286,103,109,127
106,170,41,207,268,103,118,149
99,159,38,191,242,115,116,154
96,169,40,164,226,144,138,172
85,165,37,144,200,136,131,186
85,164,37,147,189,142,130,176
79,172,32,165,190,144,124,162
93,153,33,153,176,126,120,169
102,139,30,149,143,89,93,150
108,175,32,148,150,87,84,163
113,193,32,157,154,78,83,192
114,183,34,158,172,99,107,198
104,192,33,166,225,115,115,191
98,197,34,161,258,113,108,183
90,164,39,216,321,127,116,156
82,143,40,207,331,137,149,111
92,130,37,191,358,147,147,117
88,121,37,202,356,142,160,113
121,157,42,209,339,150,163,116
129,175,36,163,291,145,159,113
132,176,34,155,281,159,140,115
127,181,38,164,237,146,131,100
128,190,37,176,244,147,121,105
99,160,33,166,310,147,120,118
116,185,40,171,311,170,131,232
121,204,41,218,359,173,119,254
126,215,39,213,365,169,119,297
138,234,45,258,406,189,117,305
135,238,46,298,371,190,116,321
128,218,41,372,402,177,127,264
136,223,43,395,409,186,142,243
160,236,44,404,418,188,135,202
157,219,41,412,373,169,125,188
158,211,43,409,384,165,130,157
145,211,43,348,367,171,145,145
161,212,44,329,344,146,165,140
137,187,44,336,324,141,169,114
132,179,42,289,313,136,176,111
146,203,39,253,304,129,182,100
145,190,37,239,279,109,154,90
113,161,34,192,251,95,113,93
109,155,31,168,262,95,113,91
100,148,34,158,235,88,100,86
80,112,35,149,220,109,96,86
74,117,36,136,204,105,99,78
72,118,35,129,177,108,113,83
76,128,32,116,158,107,104,82
77,140,43,106,170,111,104,84
88,160,43,108,146,93,115,85
89,152,50,107,153,94,114,98
93,165,50,108,152,90,98,99
89,159,50,107,143,104,117,102
86,143,38,92,106,99,118,118
75,152,39,95,127,122,130,123
77,151,35,94,120,117,126,125
73,139,35,89,133,121,129,133
72,137,34,72,130,112,113,142
75,147,34,68,128,114,116,137
67,129,30,58,106,95,66,135
77,128,26,61,103,100,70,130
75,129,27,68,97,99,72,109
77,143,29,76,100,94,76,91
80,147,29,77,106,100,73,84
80,132,31,74,98,92,75,152
86,148,31,74,101,100,104,196
87,150,32,77,85,92,101,255
84,141,36,72,84,91,109,292
79,138,48,72,82,86,110,294
83,134,47,75,84,89,167,262
63,110,45,73,78,79,156,232
69,112,43,57,80,79,156,252
65,104,38,51,79,74,149,228
69,91,20,48,90,71,148,243
68,94,21,43,93,68,97,266
72,98,27,41,99,66,100,298
72,125,29,46,102,74,103,239
73,125,30,51,102,74,105,224
72,133,36,56,90,74,105,211
72,138,41,58,84,73,96,183
68,138,40,58,71,77,107,120
60,105,42,64,60,75,101,104
58,100,43,63,62,79,103,215
59,120,38,64,60,76,99,229
56,118,32,66,59,78,109,231
62,121,31,68,64,74,91,240
66,122,26,57,64,73,92,294
69,127,26,55,65,71,88,254
65,105,27,48,64,80,100,234
71,107,28,46,70,72,84,230
74,114,31,50,72,71,81,222
73,108,33,47,72,70,81,169
80,112,34,50,71,73,84,214
83,108,34,51,66,64,68,237
80,112,33,59,62,71,85,261
73,99,31,56,56,68,89,274
71,105,29,58,59,73,95,264
59,98,27,56,68,70,97,196
55,95,27,54,75,74,99,170
55,87,26,44,74,70,86,216
56,95,26,41,75,76,97,236
57,107,25,37,80,74,106,236
67,105,25,35,71,76,105,281
70,116,30,44,66,80,117,286
67,110,30,59,86,76,116,230
68,116,33,91,98,97,134,204
67,109,32,119,113,103,136,198
67,117,32,148,179,137,187,140
87,117,30,209,227,151,187,135
93,138,37,267,341,176,194,147
103,144,35,289,461,173,179,140
108,152,43,313,502,184,176,142
114,157,47,377,611,202,129,144
111,184,60,458,679,214,121,140
134,214,62,493,680,224,155,143
133,214,63,483,632,221,150,143
141,255,61,465,635,211,143,139
142,257,58,461,559,200,184,132
145,248,52,503,604,210,184,144
130,228,59,591,729,227,155,137
128,223,59,621,761,225,157,125
135,197,66,698,888,240,161,128
140,218,77,750,978,250,142,140
143,224,79,724,981,244,143,134
144,245,73,642,880,208,141,136
143,241,75,634,844,209,140,138
124,214,67,575,720,197,142,135
117,188,54,468,582,164,108,127
104,174,42,374,446,133,110,114
99,136,38,316,399,125,100,106
96,133,36,282,393,140,113,101
115,159,35,229,314,139,113,104
107,158,37,233,354,142,103,89
101,161,40,236,380,141,98,87
93,149,37,242,394,135,97,78
99,152,38,230,404,135,110,81
78,134,38,242,416,126,105,78
87,137,45,242,357,116,113,87
88,127,47,303,382,132,109,92
95,133,49,320,384,143,157,95
91,141,46,315,389,130,141,98
105,149,51,302,373,127,142,99
99,160,45,292,360,128,140,99
105,175,44,201,262,126,156,96
100,169,41,174,235,119,116,93
98,160,43,164,177,112,117,86
88,152,36,159,163,111,115,79
84,129,38,141,136,113,121,68
73,107,33,131,140,90,112,92
81,130,35,140,137,101,112,127
87,137,29,162,162,101,107,219
85,136,31,199,185,114,117,313
110,129,27,204,184,123,128,329
113,133,28,246,223,125,123,340
114,125,31,238,218,112,117,387
110,119,37,226,206,125,135,349
107,136,37,197,224,124,140,284
87,151,40,204,258,109,126,281
101,144,40,181,238,114,137,279
97,147,38,164,237,122,149,209
95,150,36,180,286,119,133,212
101,130,38,214,319,120,117,192
103,133,35,229,321,121,118,171
89,142,36,218,332,120,111,142
92,132,35,224,342,113,89,110
100,137,32,211,301,111,102,86
93,157,30,183,234,98,110,79
97,146,29,145,190,92,107,71
95,143,26,124,176,82,96,64
86,145,29,111,161,106,126,64
81,142,29,104,154,93,115,60
81,123,27,79,162,96,121,61
69,130,29,78,158,99,120,70
73,139,28,109,142,114,130,69
78,129,26,110,136,89,111,70
71,138,32,109,130,91,110,70
71,142,34,110,117,94,119,69
70,130,32,108,115,86,116,56
65,114,32,85,91,67,104,56
65,110,31,86,93,72,100,61
63,94,25,82,88,79,105,57
64,90,26,83,88,65,77,53
67,97,29,74,89,67,72,54
73,107,34,60,72,66,84,53
68,120,35,50,58,69,90,51
69,120,33,53,61,69,90,53
71,119,31,60,62,75,91,56
70,119,29,63,69,77,107,57
74,125,23,65,75,80,109,61
74,111,22,64,75,71,97,56
71,107,24,59,72,59,89,57
62,102,24,51,72,56,102,54
59,90,24,50,73,74,101,58
52,73,24,50,68,70,94,56
55,78,25,49,68,71,94,57
57,88,24,51,67,72,96,52
59,101,24,49,67,72,84,51
59,109,25,45,55,52,64,50
55,103,25,38,56,55,66,49
63,105,26,40,61,58,66,45
63,94,25,40,65,63,68,47
66,92,24,39,62,81,85,47
65,92,25,36,68,87,101,42
62,96,29,36,71,86,99,53
52,99,29,34,66,87,100,57
71,112,30,37,62,88,103,59
72,118,31,38,66,72,93,65
74,120,30,38,65,82,118,65
78,117,26,37,64,83,119,56
76,107,28,38,68,80,122,53
57,99,29,36,72,99,140,50
51,82,28,43,65,101,135,44
49,74,27,42,66,100,125,47
48,92,35,50,62,97,123,48
47,91,33,60,63,102,124,51
59,107,33,64,63,92,113,57
70,112,33,62,76,102,115,57
80,115,34,65,90,106,128,65
103,124,28,66,122,115,142,67
105,131,29,61,129,114,141,68
107,121,29,73,138,113,142,70
113,137,31,97,155,119,164,78
112,134,30,120,165,105,136,76
101,125,30,126,166,103,130,130
127,155,33,128,169,106,138,137
131,158,31,122,161,101,135,141
132,158,31,115,150,83,111,198
128,165,33,95,138,94,132,218
129,161,31,88,120,93,128,192
107,136,29,98,115,85,116,200
98,130,30,99,122,81,112,247
82,108,31,91,113,78,107,217
82,100,36,88,124,84,98,209
87,109,38,87,117,78,89,243
83,107,36,73,116,83,93,240
81,109,36,74,114,90,97,187
97,111,33,67,113,93,99,172
96,107,25,71,98,76,79,156
80,101,26,72,94,74,81,94
79,99,29,70,93,70,75,76
83,101,34,63,88,69,72,81
65,103,35,61,85,62,71,72
64,106,33,55,79,73,88,72
62,107,31,53,80,73,89,66
69,103,28,50,68,74,91,64
63,93,21,51,69,68,84,54
66,100,20,50,69,82,114,57
70,107,20,48,62,70,105,58
69,101,21,41,65,71,110,57
