128,153,69,71,870,761,74,184
142,171,81,71,929,769,73,180
147,190,79,72,960,792,74,258
153,190,75,70,921,736,109,344
169,192,82,72,941,756,123,362
168,194,79,76,951,754,143,443
188,209,77,82,876,696,162,480
217,221,77,89,867,663,164,459
222,225,80,103,832,645,145,407
236,229,76,111,866,652,146,413
268,234,85,123,892,699,135,351
266,214,78,116,921,716,111,301
279,204,76,125,939,741,106,273
287,202,75,113,987,777,103,274
276,179,74,109,988,794,110,295
285,167,65,112,989,778,112,292
273,170,59,115,1006,818,113,307
245,157,75,104,1068,903,128,357
257,158,74,106,994,847,131,381
258,175,82,109,900,779,123,386
222,175,80,92,798,719,124,371
233,181,84,87,657,599,122,355
230,184,78,99,324,298,126,376
193,197,84,109,260,257,136,379
178,179,72,97,367,359,127,336
165,180,79,100,441,417,119,346
151,197,82,99,638,523,124,360
157,212,74,82,773,624,106,279
169,203,81,73,875,703,98,271
175,203,82,71,938,761,102,289
182,239,76,71,990,817,118,321
195,242,74,85,980,834,118,334
179,219,76,85,995,857,134,416
205,230,70,83,1014,900,148,445
207,243,76,108,1012,891,151,446
242,217,75,110,1021,869,152,439
227,220,89,117,986,838,161,437
249,242,87,132,949,789,151,358
230,239,88,161,897,716,143,315
227,231,88,150,885,715,180,435
201,233,89,154,923,829,177,426
197,218,84,147,875,791,218,527
174,195,82,143,800,755,218,543
171,181,78,128,749,727,225,577
167,165,67,129,642,630,204,542
141,146,68,123,385,331,212,571
161,119,51,116,315,289,172,521
159,111,55,108,270,241,175,523
151,124,54,89,198,171,163,476
205,164,67,95,257,289,154,437
228,172,73,87,573,622,154,445
224,181,80,91,720,772,146,399
227,194,81,94,843,870,144,396
231,180,79,89,904,935,137,401
179,186,79,90,928,956,129,393
149,191,76,91,815,820,101,344
131,186,68,90,729,722,101,360
131,171,63,85,632,644,104,388
142,179,63,86,586,589,108,412
138,152,51,68,549,547,105,384
138,135,52,82,546,540,115,380
150,144,52,80,555,547,116,354
152,158,57,75,545,549,105,302
138,163,63,75,553,557,104,286
148,166,64,77,560,545,107,308
150,184,70,87,533,536,105,307
139,173,73,95,698,695,104,327
135,181,73,118,721,722,101,317
157,183,67,127,753,819,102,295
152,178,66,139,836,996,104,306
153,162,60,140,1011,1241,97,290
161,177,62,158,1161,1415,121,359
158,209,68,155,1356,1566,137,390
142,212,76,154,1358,1531,147,421
154,223,90,146,1308,1423,149,413
153,220,89,134,1219,1242,150,438
142,219,96,123,977,944,165,406
183,192,92,121,651,621,182,518
187,185,86,115,601,577,171,494
196,197,74,145,602,565,197,579
214,239,74,147,519,494,205,585
238,228,59,132,517,472,192,616
235,237,62,128,540,483,205,608
295,262,88,127,579,499,299,757
290,236,85,85,581,502,293,729
296,204,84,93,605,507,293,716
294,208,91,119,611,504,302,742
271,188,89,113,606,502,280,682
212,196,77,134,590,509,219,616
209,201,87,140,597,504,204,573
197,196,92,152,571,497,208,625
176,210,90,136,564,488,184,541
185,222,97,150,596,516,176,509
171,207,92,136,615,516,120,377
168,216,86,129,636,553,110,363
162,225,87,142,643,556,87,262
156,210,89,152,676,586,77,247
148,183,78,141,657,569,88,283
137,144,74,163,630,546,88,274
143,158,77,164,603,517,90,272
137,133,67,135,611,519,84,249
138,140,60,124,559,500,88,278
137,140,60,118,533,497,101,281
141,147,58,81,545,495,99,282
142,131,55,81,540,493,98,276
133,138,55,75,556,508,97,274
132,132,51,87,575,504,92,238
133,147,53,96,586,490,72,221
130,151,58,91,577,494,69,212
115,133,58,94,620,548,75,246
127,133,63,99,662,595,90,271
153,149,66,95,692,616,125,364
194,144,68,92,667,596,132,364
230,142,71,113,649,570,146,397
229,144,65,110,606,509,148,401
231,195,73,115,513,416,150,412
224,184,71,133,518,412,130,360
188,180,66,130,520,428,136,371
149,190,59,121,520,457,141,370
147,202,64,156,513,471,140,362
158,179,63,179,517,474,162,412
153,177,64,177,469,452,172,426
147,176,65,179,494,459,172,464
160,189,71,188,497,450,167,446
161,170,66,159,485,424,165,437
158,150,61,124,497,428,138,391
154,152,64,142,454,385,121,359
162,154,62,143,420,352,107,292
157,137,57,132,412,348,92,294
155,158,60,131,417,345,90,282
138,146,53,144,392,333,88,257
143,145,45,103,427,360,84,233
146,167,46,103,477,387,94,270
159,185,56,100,490,391,88,255
169,175,51,109,516,410,123,365
166,183,52,96,548,420,125,384
166,182,52,112,525,413,135,423
177,169,91,117,539,437,157,483
159,128,86,128,538,448,165,509
157,131,94,135,515,435,152,461
160,124,94,131,515,435,146,441
171,125,94,125,539,442,136,406
154,122,65,123,507,426,103,316
161,130,63,105,512,419,111,334
168,130,55,109,508,430,104,320
179,128,59,117,508,467,113,332
163,129,58,109,527,483,112,341
158,118,49,105,508,466,112,320
152,125,47,104,491,454,95,259
153,145,51,87,508,450,88,253
139,159,65,112,499,428,77,237
136,162,67,116,447,420,80,230
132,163,67,120,452,432,83,234
137,153,69,124,450,435,85,243
115,172,73,123,433,427,94,236
112,164,55,110,414,420,97,228
117,158,54,108,437,399,100,221
117,159,53,100,451,405,96,206
96,164,53,104,479,439,97,225
93,129,43,101,479,452,87,216
94,153,47,86,490,455,84,220
104,159,48,79,547,497,78,213
112,165,49,81,545,499,73,219
114,158,48,73,540,494,65,186
119,163,43,76,558,497,63,207
123,137,40,95,573,497,68,219
118,127,38,105,522,470,69,230
127,130,40,105,526,467,70,230
144,144,44,117,517,454,74,236
141,132,47,113,501,457,76,225
137,131,47,101,497,463,67,194
134,133,52,108,533,503,98,288
133,115,51,105,525,500,98,296
111,100,47,90,558,510,96,286
118,82,43,95,563,515,99,278
120,77,43,95,547,515,108,320
126,79,40,76,525,480,83,236
120,119,48,85,568,506,91,258
135,117,54,94,551,502,90,276
125,133,56,102,592,519,95,295
129,141,57,96,647,565,89,253
136,140,55,111,676,592,98,278
138,129,50,108,687,605,101,268
125,128,44,99,725,637,108,261
134,114,40,97,736,653,109,255
130,108,41,113,731,641,108,262
133,103,39,102,721,624,103,234
134,87,36,104,676,593,92,205
159,119,40,110,641,557,84,195
161,138,45,99,607,515,79,219
158,153,49,83,566,487,79,242
150,164,56,93,559,480,75,241
154,170,60,89,603,510,72,232
163,163,59,86,619,549,81,273
158,149,57,94,626,582,85,244
175,143,56,101,673,599,98,236
173,138,52,92,709,643,102,250
168,133,52,95,718,658,107,265
133,121,52,103,732,652,102,228
145,134,60,104,735,652,99,225
129,123,58,102,722,668,112,287
124,118,58,106,718,663,110,278
121,121,53,103,700,640,105,264
130,130,57,93,696,651,109,269
113,137,49,91,706,651,117,305
116,138,52,90,697,627,90,235
158,151,51,85,679,615,89,235
173,147,54,88,687,630,89,247
164,158,66,99,694,625,85,237
174,137,66,94,681,610,87,254
182,140,61,89,675,613,102,295
178,131,62,117,649,588,98,284
160,127,60,120,627,575,102,289
162,99,40,113,602,561,98,280
158,118,39,113,596,564,80,217
154,112,43,130,588,575,62,173
131,108,43,100,610,603,68,194
141,114,43,94,630,625,66,182
144,115,41,94,640,637,65,179
150,161,53,102,661,653,77,212
147,163,52,75,688,659,89,239
128,184,49,84,685,649,90,255
119,179,50,85,677,629,87,268
114,181,53,76,663,608,89,284
120,135,44,67,631,591,87,283
137,132,43,74,598,563,76,253
165,122,45,68,570,535,70,220
180,139,43,74,549,527,70,202
188,150,45,73,546,532,71,193
177,148,49,81,562,535,71,173
178,155,52,86,565,551,69,167
158,147,52,97,605,599,78,214
154,150,61,93,634,630,89,232
149,145,59,101,636,635,95,274
145,152,55,105,651,633,97,287
131,147,54,106,706,692,101,296
137,141,51,94,688,665,98,273
123,125,44,93,672,633,90,262
131,113,40,89,673,630,84,228
136,100,44,77,657,642,79,198
152,108,46,78,603,571,72,190
151,101,47,81,595,573,111,290
152,111,46,86,601,598,120,325
141,130,49,102,603,599,124,338
157,131,45,103,619,598,143,412
159,122,41,98,623,607,145,419
165,133,42,103,638,613,120,362
165,131,48,97,641,599,116,345
170,133,48,88,643,594,113,325
151,132,50,89,618,569,91,235
123,157,57,95,604,549,121,331
121,152,55,90,603,560,121,337
124,155,52,90,591,569,116,321
125,140,51,80,598,587,112,319
134,145,51,85,617,607,116,347
143,121,47,75,637,630,83,260
145,154,59,89,649,630,85,250
138,143,58,92,673,640,85,248
152,156,61,96,693,638,84,255
152,156,60,89,698,637,71,215
147,152,57,91,702,628,63,175
138,136,53,75,689,611,61,186
161,148,55,72,677,599,69,241
149,139,55,76,653,592,75,254
154,138,54,77,640,581,85,267
153,138,60,76,618,568,87,270
163,121,51,74,634,575,92,271
144,112,49,77,619,565,90,225
137,103,50,77,615,556,90,218
126,106,50,78,610,561,84,204
139,113,50,78,607,560,87,209
131,132,53,83,589,547,78,183
135,146,56,87,608,556,72,184
140,170,62,79,598,533,69,181
140,172,62,100,596,531,68,170
126,175,58,98,619,550,73,232
156,175,70,126,603,546,92,278
160,188,78,125,586,539,109,301
163,184,73,133,579,557,123,330
163,185,74,120,589,550,129,360
171,187,75,119,561,529,134,342
146,178,66,105,570,529,122,304
149,154,58,112,560,514,119,334
142,134,52,106,551,495,103,296
152,139,56,107,530,483,95,267
152,146,56,110,519,459,89,296
141,140,51,103,503,446,88,307
124,140,49,96,512,459,77,250
147,159,54,95,509,460,81,268
139,157,49,89,509,462,85,285
144,138,49,92,527,492,85,265
139,137,49,80,528,499,84,260
146,137,47,84,520,483,82,264
129,125,40,81,554,507,75,259
130,135,49,86,552,507,73,239
124,135,45,88,555,521,67,225
141,168,47,83,592,555,82,259
148,181,53,84,594,578,88,275
158,209,59,90,569,566,91,268
167,197,51,90,573,585,97,299
174,200,55,88,565,564,92,298
168,209,72,99,570,554,82,274
159,205,72,92,576,545,76,265
177,176,68,89,591,545,77,261
198,197,75,85,589,530,69,235
191,210,78,87,584,541,71,235
192,171,64,83,546,522,71,238
195,163,65,94,559,519,67,228
165,155,64,100,554,531,67,246
136,135,56,102,557,527,69,245
133,109,53,101,570,518,76,263
130,125,60,99,599,537,72,256
141,123,61,96,624,564,83,256
160,137,66,93,634,569,92,269
171,137,72,97,649,590,102,290
188,151,70,93,661,605,101,285
185,145,61,91,648,597,101,275
209,167,62,86,622,593,133,451
208,165,57,82,636,603,127,442
205,159,52,88,628,590,122,434
187,151,55,103,618,589,122,428
192,155,58,104,614,585,142,474
167,139,54,100,600,565,114,332
151,136,56,105,577,550,115,329
138,140,54,96,576,557,131,361
140,148,53,101,572,544,130,357
130,159,52,103,579,554,112,302
110,160,55,106,611,573,104,289
122,159,55,111,606,558,105,292
116,152,57,106,616,558,79,220
116,147,53,80,647,582,76,199
131,144,53,82,651,573,76,217
128,141,55,84,653,580,76,195
111,141,50,72,693,603,71,180
136,142,50,80,674,577,74,205
145,138,51,81,652,550,82,246
135,125,55,74,657,553,78,244
152,119,46,77,635,514,80,251
157,117,51,75,595,489,79,249
133,117,50,74,616,503,80,240
119,120,53,81,585,479,73,204
134,158,53,85,551,452,78,235
118,160,57,85,547,445,87,258
118,169,52,85,535,445,92,260
127,169,50,83,496,435,96,281
132,197,61,77,528,464,93,280
149,180,66,94,551,482,91,268
168,178,62,85,538,492,103,288
180,180,66,99,577,505,120,355
178,186,70,109,599,518,115,352
182,170,62,108,587,506,130,407
158,160,56,113,593,505,136,406
143,160,59,115,592,499,125,385
139,150,58,107,585,500,116,358
170,154,57,108,585,504,118,344
261,155,66,130,611,568,109,295
330,159,68,120,673,628,123,341
334,154,66,125,695,636,117,327
333,145,67,143,654,602,108,279
319,153,68,134,632,578,106,274
250,150,62,116,584,498,99,260
162,158,59,118,459,408,65,155
176,175,63,115,380,360,84,273
176,184,61,93,379,360,87,309
178,182,59,94,400,381,101,368
201,172,54,102,421,392,107,379
220,173,56,103,484,433,108,386
202,166,52,96,550,485,106,332
222,164,59,89,559,493,103,317
222,149,57,108,556,481,90,253
198,149,58,99,561,487,81,241
176,138,64,107,520,435,81,225
177,130,68,113,462,384,68,221
157,148,64,116,475,385,82,234
160,146,66,100,451,378,79,227
169,151,74,121,431,376,92,253
163,148,67,107,433,383,99,284
160,145,63,128,426,378,97,290
166,123,59,136,419,384,89,270
177,161,70,152,473,410,92,290
169,155,61,151,474,402,84,276
165,167,65,147,463,393,93,309
164,167,70,135,485,414,96,304
141,174,72,141,490,417,91,304
148,153,61,127,439,388,119,407
168,165,61,110,467,399,119,396
180,163,61,125,464,398,105,347
188,166,59,117,460,399,101,334
228,193,71,112,454,397,109,376
213,185,75,111,485,423,77,241
191,175,72,113,470,431,86,303
174,157,69,112,484,449,109,382
171,153,63,110,484,443,111,389
114,117,57,110,499,447,107,351
111,117,51,114,498,436,105,359
148,114,52,111,503,428,98,305
173,156,48,107,476,402,92,272
191,182,59,108,459,393,100,305
204,177,52,97,438,374,103,327
198,179,55,116,407,368,104,322
186,173,57,122,398,354,108,339
191,154,61,134,424,387,100,285
170,129,56,132,469,411,90,249
152,119,54,134,500,424,89,224
159,127,62,110,546,489,97,234
149,132,59,105,557,508,91,223
118,135,62,83,583,514,95,246
137,140,59,91,587,523,95,253
139,149,63,92,559,515,98,259
135,138,53,97,532,465,102,273
135,151,57,104,523,451,115,292
149,137,50,102,481,423,115,299
137,131,54,111,465,421,115,287
154,131,52,121,504,460,116,303
155,144,54,122,514,470,111,311
167,129,52,122,541,492,96,282
160,135,50,122,572,513,90,282
153,136,47,106,575,526,108,305
136,132,47,92,591,533,101,278
143,131,45,92,604,530,98,281
127,137,45,81,562,504,105,300
126,138,51,87,575,519,106,280
140,144,58,98,588,511,90,257
133,141,57,94,554,494,100,307
125,137,59,101,574,520,110,309
135,130,60,105,650,574,104,295
127,131,61,101,652,579,97,291
117,130,63,110,714,638,117,350
152,141,62,115,743,643,110,305
157,140,60,108,730,638,96,268
167,144,61,117,724,643,93,260
170,136,61,117,721,631,94,254
172,139,54,135,634,551,80,230
151,132,54,152,624,553,92,262
142,131,56,150,620,528,105,308
138,136,65,143,566,474,106,315
144,135,71,148,573,476,107,324
139,121,69,117,608,493,93,274
168,123,76,120,603,501,75,239
173,115,72,125,645,559,55,184
184,135,66,126,710,616,85,285
174,126,55,140,729,638,85,286
174,131,55,142,759,702,91,285
142,132,46,130,789,740,95,316
154,140,49,124,773,722,98,321
153,114,45,126,765,714,81,252
157,134,57,105,760,707,82,239
165,135,63,102,715,642,89,281
165,135,61,92,676,599,86,247
160,124,60,88,667,586,94,263
148,122,63,88,636,567,86,242
151,116,52,97,602,551,90,250
148,111,45,117,624,561,87,231
149,118,48,122,647,569,86,245
155,125,51,127,631,561,72,204
142,132,51,141,617,548,94,278
155,121,52,131,625,555,93,285
153,133,56,118,606,553,86,282
162,129,55,118,564,526,100,344
145,127,54,118,561,530,109,358
146,120,53,103,566,552,95,310
121,124,50,103,567,546,93,307
123,107,46,106,591,566,94,312
129,133,49,101,617,595,84,236
135,134,49,107,655,618,80,233
133,142,50,107,678,619,77,242
142,167,56,107,671,621,89,300
136,173,56,97,660,611,89,280
133,153,51,107,659,587,84,284
136,154,53,96,636,585,80,282
149,144,45,89,590,559,83,286
145,117,41,92,580,556,66,205
159,116,43,91,554,550,74,217
146,124,44,71,539,557,72,195
148,150,57,81,517,539,71,204
139,158,61,92,531,550,69,183
141,154,61,85,558,567,71,193
148,167,61,86,595,587,87,221
186,160,61,89,619,618,94,235
193,135,45,79,651,632,97,226
195,128,43,65,666,635,97,226
200,132,45,83,680,645,104,237
188,126,52,80,669,635,93,233
170,131,51,81,643,602,95,251
157,133,53,96,622,582,94,245
170,132,52,98,608,580,97,257
160,134,53,95,579,562,89,242
155,130,51,106,580,564,79,202
139,129,55,105,595,576,65,161
148,121,52,94,602,593,66,150
128,133,52,94,597,593,61,155
134,125,51,95,662,665,59,160
135,138,55,83,668,666,75,188
124,128,51,82,659,664,76,200
118,134,56,87,652,662,78,211
116,137,57,87,645,653,75,195
120,150,63,73,586,573,79,209
132,129,55,86,587,575,68,196
141,144,55,93,582,568,73,215
130,159,50,87,590,571,76,249
128,153,51,83,633,608,85,252
143,150,42,87,638,614,82,245
131,161,44,75,647,612,76,235
168,163,45,79,678,621,72,213
181,150,49,83,678,610,65,174
186,144,46,86,663,583,60,176
171,150,51,97,655,575,63,174
177,141,46,97,640,556,73,203
145,146,46,93,615,545,71,206
127,151,43,87,595,530,64,197
138,155,45,83,584,515,62,191
149,155,45,70,605,522,74,209
154,162,52,86,600,535,73,207
160,154,53,86,614,549,78,213
175,145,52,89,641,575,81,214
181,137,50,93,657,587,79,209
166,115,44,104,647,581,62,178
164,103,38,100,672,593,61,181
165,100,35,105,664,579,67,210
150,110,39,104,648,559,78,223
126,127,42,111,633,556,82,234
148,130,44,99,599,534,85,241
162,142,44,93,572,513,80,223
157,138,49,89,566,509,76,187
165,158,49,90,551,506,72,181
198,173,50,80,531,482,68,164
193,177,49,83,566,510,70,175
173,171,60,95,545,491,78,180
184,180,59,93,520,474,71,167
200,156,59,93,544,486,73,181
167,133,58,90,550,499,76,191
165,132,58,88,535,486,73,175
205,121,47,75,552,495,64,190
194,102,46,72,569,505,64,201
186,111,48,77,524,473,64,198
191,107,45,86,531,474,64,203
221,110,47,94,517,466,77,269
187,118,48,93,499,458,88,279
196,133,51,93,491,459,90,279
196,127,49,91,516,478,83,261
196,125,56,95,524,485,79,251
160,120,56,85,538,500,73,199
167,126,56,90,577,536,63,172
151,115,51,101,597,549,64,175
141,112,55,102,611,577,70,175
145,117,49,89,618,597,79,199
146,119,47,89,634,614,77,192
160,115,44,85,617,611,77,186
155,126,48,72,612,613,79,223
151,130,46,81,594,589,71,230
142,134,47,83,579,574,66,217
151,130,46,82,551,555,61,205
123,123,49,85,549,541,59,205
126,126,46,87,540,534,57,157
124,131,44,71,584,567,64,179
117,129,46,76,592,578,62,178
121,140,50,81,598,595,63,226
130,142,49,78,621,615,62,240
139,126,48,82,634,617,58,243
153,116,47,84,601,586,51,225
174,115,47,91,599,565,54,228
161,115,47,88,622,566,61,204
156,124,48,91,597,542,64,192
154,119,46,90,613,547,63,186
161,119,51,89,612,540,66,189
160,120,49,92,597,529,74,214
156,119,48,96,559,492,66,201
155,131,49,96,538,464,71,199
155,140,51,90,497,442,76,217
147,153,53,95,520,438,84,255
141,157,52,95,511,443,81,243
146,154,51,89,549,471,84,242
166,145,49,87,589,515,85,236
163,154,50,85,587,511,84,233
158,145,46,84,597,535,79,187
146,131,46,73,655,567,79,187
149,135,43,77,658,565,82,213
139,127,42,86,651,546,77,217
136,124,39,99,706,586,82,218
132,121,41,96,677,563,76,229
135,130,45,100,635,533,73,235
134,126,47,105,624,527,66,206
134,129,48,93,607,517,63,202
144,130,48,88,527,459,58,235
150,137,50,87,551,480,71,246
158,128,45,76,546,476,75,242
151,129,51,79,531,470,80,264
153,123,51,82,545,489,87,277
152,122,57,86,562,503,82,242
142,128,54,89,563,502,76,237
133,134,58,91,585,519,73,219
134,162,54,91,592,522,75,190
124,172,54,95,620,532,69,165
144,162,48,89,665,578,69,155
181,180,54,90,651,574,68,125
177,182,52,94,662,575,66,128
176,160,48,82,662,570,55,134
172,158,56,76,634,547,56,159
146,158,57,66,602,507,56,177
106,131,49,65,595,488,48,173
115,120,49,60,570,469,51,178
134,114,49,62,655,556,59,188
139,108,44,69,678,593,58,178
161,123,56,81,654,588,59,163
169,118,56,83,651,585,64,185
182,125,53,80,628,566,60,176
185,147,59,77,527,473,66,175
177,148,59,73,456,403,73,202
159,145,53,62,438,384,75,203
160,167,54,60,437,405,74,183
145,192,58,64,428,406,73,210
125,179,59,77,454,437,73,216
152,181,54,80,512,457,69,197
149,178,65,88,525,463,71,205
134,159,64,100,534,453,75,224
153,157,65,104,547,448,77,204
173,149,58,99,519,413,68,184
161,140,59,96,479,383,76,194
167,156,44,93,476,359,73,180
169,160,43,75,449,360,68,154
180,124,40,70,433,354,71,158
188,131,44,83,453,373,76,177
184,131,49,93,427,369,63,151
181,118,46,91,423,393,64,155
175,110,47,90,429,376,70,166
190,145,47,95,436,386,84,186
197,154,53,86,426,395,83,176
201,170,49,96,442,404,82,170
201,171,48,95,452,392,82,171
204,171,47,96,447,396,77,163
159,150,46,91,439,401,57,129
139,171,52,89,416,373,60,145
138,167,51,82,409,371,72,173
134,165,55,82,416,387,71,181
130,176,56,88,418,388,79,199
147,194,65,85,437,400,82,203
141,167,58,87,458,419,75,194
140,157,59,77,467,423,73,215
161,157,61,82,455,407,76,201
186,153,62,76,482,417,66,178
177,149,54,75,494,413,72,179
165,152,52,78,471,415,74,166
166,150,50,73,475,420,68,111
152,138,44,74,481,434,67,129
133,158,46,78,461,424,70,143
147,156,47,78,444,421,59,134
162,155,46,69,506,439,56,139
154,167,46,73,497,434,69,205
146,175,44,63,503,441,78,244
138,155,40,59,531,470,76,239
140,141,41,67,546,479,76,235
119,142,44,72,565,492,78,238
127,125,46,73,624,539,71,213
139,115,48,79,630,549,56,161
132,117,54,79,618,533,56,158
117,119,53,72,639,542,69,234
127,122,50,75,590,512,69,232
122,133,52,82,540,475,65,211
107,136,53,76,540,460,68,209
110,134,53,82,523,462,70,213
132,145,55,89,525,479,59,134
139,143,57,89,568,509,56,131
139,150,58,80,559,508,49,115
155,150,60,80,593,532,51,129
181,146,56,81,625,551,48,155
164,130,55,77,586,505,46,152
153,140,58,69,581,516,51,160
149,131,57,77,615,538,54,171
136,127,53,81,570,523,58,178
113,126,51,80,567,518,58,176
121,144,52,93,602,558,68,187
121,127,46,95,616,560,74,203
120,127,48,88,614,558,77,210
144,145,58,85,629,553,75,202
137,149,58,81,631,555,72,182
140,138,59,68,627,569,65,172
143,164,63,72,640,549,55,145
148,156,61,85,620,533,50,134
128,139,52,86,643,558,42,150
139,141,50,95,636,566,46,173
144,141,47,91,626,553,57,192
151,110,42,87,597,551,68,218
157,113,41,83,614,560,72,225
163,116,42,84,633,601,85,235
198,126,49,69,660,624,87,227
190,124,50,68,698,634,85,221
194,151,52,70,725,678,81,209
189,157,52,62,769,718,79,214
217,162,59,72,781,705,70,184
190,156,55,74,792,692,67,170
200,160,52,85,789,701,60,160
203,136,47,94,767,665,58,146
207,131,48,93,728,630,60,152
169,121,39,90,679,615,65,175
182,128,47,89,654,617,70,185
186,123,48,85,651,603,70,195
174,127,50,71,652,620,67,208
176,127,49,68,657,620,65,195
182,134,46,62,687,618,59,181
155,118,37,65,693,610,56,177
128,122,37,64,681,607,61,169
128,129,39,73,685,598,62,169
119,123,39,76,687,608,69,175
113,131,47,79,661,597,66,172
133,133,49,84,649,594,62,175
163,130,48,77,637,592,63,175
173,138,45,69,635,612,63,167
170,145,50,71,648,633,61,200
170,133,43,74,653,645,66,205
162,150,44,68,656,642,67,201
156,145,46,77,673,644,65,197
153,121,47,92,653,620,67,191
155,144,53,86,633,595,57,131
157,158,58,87,624,578,60,140
170,140,57,84,621,583,65,169
146,143,58,78,599,572,67,184
168,189,63,67,575,542,65,193
180,178,57,78,557,523,70,200
178,166,55,74,551,525,65,185
171,171,55,78,534,509,65,175
177,167,54,101,535,495,62,163
155,141,51,103,558,544,70,165
151,144,58,100,585,579,70,177
164,178,57,100,595,592,77,199
158,182,58,100,626,623,77,211
182,182,58,80,666,661,78,219
177,165,55,81,684,651,73,206
165,159,45,90,670,626,74,203
156,143,56,88,678,617,81,251
149,134,54,86,660,593,81,232
133,139,56,91,635,572,81,237
137,141,58,88,598,546,84,268
144,149,58,76,599,549,87,282
144,128,48,80,597,556,85,247
154,117,48,85,601,569,81,243
140,122,46,82,601,557,82,233
132,152,52,78,628,604,80,210
131,159,55,87,639,603,74,179
136,160,53,82,643,600,62,149
171,166,58,97,635,588,73,192
168,176,59,98,617,589,70,188
176,156,57,105,619,555,70,173
171,138,57,102,589,540,73,181
168,148,62,104,590,545,76,186
131,147,55,84,609,553,72,158
130,131,63,81,621,576,76,159
126,126,60,73,623,582,81,204
130,139,63,76,670,651,77,199
135,124,59,83,645,647,82,203
138,128,61,88,647,811,80,196
179,143,59,91,643,914,83,221
202,146,55,89,638,977,79,204
203,143,55,86,594,977,80,199
218,156,59,95,625,1006,91,230
240,155,61,88,610,884,95,239
211,142,54,85,603,765,99,243
200,151,52,85,596,682,100,234
203,182,68,82,601,626,102,251
186,188,68,70,576,576,84,223
142,188,67,73,584,565,76,220
154,194,70,75,598,574,72,199
147,185,71,80,606,560,70,200
168,143,53,87,618,562,68,185
161,118,47,83,625,561,69,197
172,144,51,87,619,546,79,227
168,155,51,89,609,531,75,229
153,150,51,85,574,511,71,223
146,149,47,76,559,497,77,233
162,146,49,71,549,485,77,218
168,122,48,82,551,494,79,213
159,99,43,79,531,494,82,213
166,106,41,81,545,509,85,208
157,124,43,89,564,525,79,193
151,153,54,89,547,515,76,199
139,145,50,73,533,505,67,168
145,145,53,75,550,500,58,147
144,141,53,79,567,510,55,164
145,142,57,77,550,487,51,165
145,116,45,81,561,492,60,194
138,146,50,84,563,485,60,201
139,152,49,84,559,497,61,210
137,156,50,79,555,486,66,204
133,155,59,93,554,489,73,211
123,167,67,91,565,503,67,186
129,146,64,87,569,513,63,166
156,162,64,82,565,495,60,154
160,159,66,102,546,484,55,150
154,145,54,84,560,492,46,152
149,131,43,83,539,471,51,139
157,138,44,87,536,500,53,147
144,116,45,87,549,530,55,148
158,116,42,69,563,549,54,160
166,121,41,76,537,550,63,158
183,131,46,90,561,561,64,161
178,144,47,88,558,536,73,193
172,142,46,97,536,503,76,205
170,143,42,92,548,503,80,197
156,151,43,91,567,508,77,189
136,148,53,77,560,519,80,206
141,130,50,84,587,545,83,202
149,123,53,90,615,571,80,194
133,123,54,88,600,568,89,211
137,117,63,82,615,576,96,232
140,115,55,85,609,567,93,223
127,130,56,85,575,540,84,202
109,142,57,75,577,539,82,201
117,159,63,73,572,530,76,196
122,192,61,90,584,546,68,184
138,192,60,95,616,572,70,197
149,189,66,89,623,579,75,228
153,194,61,94,605,569,79,248
153,185,57,99,633,589,73,250
154,165,54,88,588,550,71,246
141,170,54,76,574,529,70,228
143,159,48,94,608,543,70,216
152,149,52,96,613,536,72,197
148,153,54,92,596,532,73,172
143,135,52,93,655,581,80,230
151,126,49,99,658,582,85,249
140,132,53,101,649,578,80,234
122,128,51,95,685,606,75,232
129,122,57,94,712,611,71,237
131,119,54,92,665,573,66,185
133,126,56,95,676,573,56,155
148,142,51,77,652,549,59,161
146,153,59,67,588,502,66,187
155,181,62,65,591,501,70,180
158,194,65,71,574,475,64,167
147,193,69,62,563,474,66,166
126,195,72,59,576,481,66,162
146,188,63,77,581,476,63,130
142,170,54,82,565,465,57,124
135,165,55,78,610,502,59,133
136,159,50,80,575,478,71,176
146,164,53,79,569,468,75,180
144,166,54,62,581,479,70,182
146,176,55,62,558,466,70,212
141,168,51,67,531,443,68,206
139,174,53,61,550,459,55,174
149,182,55,66,541,465,45,171
139,180,56,72,529,464,46,179
129,170,59,67,513,451,48,153
139,180,64,62,492,441,57,160
138,182,65,71,479,439,64,178
113,173,66,74,457,418,68,185
115,181,65,68,462,418,72,198
110,169,59,75,599,565,73,194
111,172,64,76,836,835,67,207
126,179,63,73,847,840,61,188
154,159,58,68,859,853,65,180
152,156,57,78,853,855,63,152
161,158,60,74,748,756,72,173
156,145,51,77,439,415,71,152
156,125,48,74,352,338,70,153
134,124,42,81,274,264,60,134
133,106,43,84,193,201,72,199
134,111,44,84,435,443,62,183
153,129,43,78,558,612,66,192
139,136,48,76,663,702,69,194
145,137,53,69,718,754,70,199
155,142,52,59,753,783,57,134
142,130,49,55,671,703,62,145
131,119,47,54,625,594,61,145
140,111,40,56,559,533,58,151
135,101,34,55,518,491,57,156
119,96,28,52,511,471,58,158
115,94,26,51,487,437,50,152
110,87,28,56,456,422,47,137
106,94,29,53,427,393,44,129
128,105,36,56,432,379,45,124
135,126,37,64,416,358,42,118
145,134,37,75,417,360,44,108
140,138,36,72,413,359,44,104
144,132,38,76,435,369,45,95
136,148,41,79,438,369,43,85
161,176,43,82,456,396,45,106
160,175,44,72,472,402,47,127
168,175,44,78,521,428,46,130
172,175,43,84,521,416,46,132
170,158,37,78,524,421,50,133
156,104,34,75,514,418,47,121
155,96,33,74,502,398,49,100
156,86,36,72,452,366,48,95
148,80,35,78,458,395,53,92
142,70,36,83,491,436,51,96
146,75,37,77,522,455,49,85
144,75,36,78,534,478,56,85
125,66,35,97,524,482,56,90
151,76,34,88,547,497,57,98
157,77,31,82,515,467,68,149
150,88,32,86,495,453,69,151
154,90,36,97,498,453,60,152
161,89,33,71,523,459,62,155
150,84,34,67,515,454,59,153
143,91,37,73,538,468,49,127
135,82,37,72,545,477,50,133
136,91,33,57,570,505,50,138
137,103,35,82,590,522,47,136
124,118,38,93,553,488,47,134
133,114,39,94,529,468,45,104
148,122,51,99,533,458,46,113
144,124,53,111,486,412,49,129
159,131,55,104,440,377,51,132
175,131,53,105,489,414,52,136
182,139,53,100,467,411,55,139
171,129,44,96,446,412,52,135
173,125,42,89,488,440,53,117
172,117,39,89,485,449,52,111
152,114,39,80,457,437,53,120
135,102,36,84,503,464,48,120
141,103,31,94,506,468,45,105
157,119,34,93,519,472,41,98
137,111,33,82,543,478,42,102
148,99,34,90,557,495,42,86
146,101,37,90,573,516,43,89
156,109,38,79,606,526,51,114
130,90,37,81,592,522,54,115
136,90,37,91,619,546,54,109
124,87,37,86,640,559,49,104
133,94,32,82,654,550,53,104
115,85,34,86,673,578,48,88
172,84,34,83,695,597,46,112
177,82,32,73,690,593,46,113
200,86,32,72,673,578,48,115
197,86,39,78,659,578,42,111
203,83,36,72,629,550,42,112
175,82,33,68,622,546,40,91
168,85,38,82,623,545,46,88
137,98,37,77,658,569,45,91
131,91,32,71,658,578,46,91
139,110,39,81,666,585,52,83
121,116,44,84,682,612,56,89
134,117,40,74,679,621,56,102
147,112,43,72,686,621,61,106
161,115,44,102,692,614,61,108
142,102,41,103,675,600,60,121
142,95,40,102,657,558,58,113
129,91,42,99,661,541,51,103
129,83,41,99,617,517,51,95
113,75,40,74,657,584,49,89
137,65,38,73,681,604,45,80
148,97,32,72,670,625,43,83
153,108,34,78,670,644,43,78
144,128,36,81,710,670,37,81
160,164,42,74,652,612,39,79
145,175,45,63,628,599,36,67
157,178,47,58,642,593,44,90
159,171,44,51,619,578,47,91
156,158,44,54,584,550,48,90
148,133,39,70,588,540,47,96
143,117,37,78,602,544,49,96
155,103,36,87,607,551,42,71
147,111,36,89,659,573,39,88
156,118,37,98,662,584,36,89
157,116,58,92,673,603,35,84
194,152,58,88,668,605,38,87
166,141,60,96,647,589,38,91
170,139,60,101,606,574,39,74
182,137,58,91,594,560,45,82
178,127,35,85,562,533,55,90
158,98,36,86,535,518,53,86
160,102,32,79,502,504,52,83
163,111,40,74,488,494,63,100
143,135,45,87,484,506,64,117
136,137,49,91,488,506,57,115
138,131,48,89,515,517,55,114
148,145,51,91,558,537,56,114
141,143,48,91,665,631,47,100
145,119,49,102,714,674,64,153
159,120,45,101,766,727,68,162
179,128,44,120,795,759,69,163
174,108,41,114,806,768,70,170
172,108,43,122,725,690,69,180
172,108,34,102,672,637,51,121
195,109,37,103,624,588,47,109
161,108,35,81,580,553,48,118
155,109,37,86,543,534,45,108
164,101,35,71,539,540,45,95
159,98,37,76,544,552,39,86
130,109,36,81,566,567,39,88
134,98,37,87,575,564,49,103
133,105,40,80,604,588,55,106
123,108,43,82,634,598,59,106
121,116,42,80,656,600,59,120
107,99,44,84,632,587,58,119
103,100,45,77,629,581,48,98
129,105,41,79,626,563,52,102
127,103,36,81,619,558,54,112
134,95,36,87,613,549,55,96
134,103,30,75,638,570,53,96
130,103,29,81,663,612,53,96
143,109,31,80,642,603,46,93
154,105,31,85,634,601,39,85
152,104,29,74,622,600,39,91
173,112,37,88,580,561,41,89
172,130,44,85,545,510,42,96
151,135,51,85,533,504,49,109
155,144,55,84,504,491,46,105
166,145,56,89,516,493,46,107
155,141,52,75,528,503,48,107
156,127,47,74,534,511,49,103
159,108,41,80,556,512,40,85
141,126,36,76,583,540,40,91
128,126,37,75,650,621,45,115
119,124,40,74,658,627,46,119
115,130,40,75,655,629,42,124
132,140,41,76,642,631,45,124
153,132,43,72,643,622,46,119
149,131,43,69,567,537,42,93
152,127,39,67,558,534,48,119
180,120,39,65,567,528,53,119
168,114,39,53,566,517,50,119
152,92,36,48,531,489,52,117
156,94,36,43,513,471,51,116
163,100,37,42,500,449,45,82
135,105,40,61,482,436,42,74
123,98,36,77,473,425,41,68
119,102,38,83,476,411,38,68
126,103,41,90,490,419,38,67
116,101,41,98,484,416,34,61
166,122,45,91,548,483,32,74
168,127,45,79,605,528,35,87
170,132,44,74,603,531,42,101
166,129,41,71,613,544,42,104
162,121,40,68,642,566,47,110
113,93,35,81,580,506,56,104
118,81,34,76,540,473,56,99
136,79,37,76,551,470,55,89
139,96,39,78,532,446,61,91
141,102,39,78,550,465,61,91
132,110,41,64,572,488,62,104
146,112,43,64,563,494,61,104
144,110,43,74,593,524,61,102
145,109,44,85,605,548,56,95
151,107,44,86,585,557,55,103
158,98,39,84,597,579,51,105
141,101,43,85,612,591,50,102
143,95,44,88,583,591,46,101
143,109,43,77,599,600,53,117
145,133,47,81,596,578,58,107
142,130,48,82,591,561,54,90
144,136,47,88,614,589,54,93
125,142,44,83,627,591,60,105
128,132,42,80,630,587,62,91
131,120,39,72,650,613,63,89
130,134,42,70,638,612,65,88
129,136,42,71,603,567,67,93
131,135,43,67,605,569,64,90
125,124,41,66,579,555,55,85
109,128,43,69,555,522,52,89
113,116,43,68,572,529,55,97
112,104,41,70,580,536,56,89
120,102,41,64,569,515,53,78
129,110,42,64,603,533,52,80
129,93,44,79,607,528,62,98
122,97,45,80,586,502,56,94
176,147,53,73,606,511,56,113
197,149,53,82,605,508,59,124
190,160,61,87,571,486,59,123
198,178,59,75,581,495,43,108
201,179,58,83,584,514,46,105
170,143,51,82,575,517,42,80
149,150,52,78,604,547,41,65
155,137,40,71,617,566,45,79
144,110,37,71,641,579,47,88
154,118,37,65,669,597,48,92
138,113,34,68,641,582,50,111
137,98,33,67,630,563,47,110
134,99,34,69,633,552,46,101
141,108,36,82,608,538,44,91
137,116,34,78,584,514,43,92
136,118,37,80,610,517,41,91
125,125,40,80,602,511,45,89
124,124,41,81,592,506,43,87
113,118,38,69,593,509,43,94
98,102,37,69,592,506,40,84
91,102,35,61,593,514,41,63
101,93,33,70,598,524,37,83
90,86,33,68,602,525,51,109
97,98,35,60,606,530,52,106
98,92,36,60,625,546,54,109
97,99,40,79,627,548,53,108
91,100,42,70,641,555,54,106
86,104,44,79,649,561,42,88
87,98,43,86,640,544,43,91
105,97,44,92,617,518,41,89
123,95,40,77,615,507,40,87
140,105,36,78,592,476,41,75
147,131,42,70,565,454,39,72
150,132,41,67,554,447,39,68
152,137,46,69,553,441,40,76
148,140,45,70,532,428,44,73
147,138,51,78,611,516,42,75
153,108,43,75,651,568,43,73
148,103,47,77,635,570,49,76
146,108,39,72,627,565,48,80
139,109,40,70,615,561,49,84
128,103,37,56,506,482,50,78
154,120,36,61,446,409,50,76
159,135,32,59,449,413,44,80
151,128,33,57,435,425,46,77
160,123,32,62,471,447,46,79
175,127,27,68,506,453,49,94
145,118,32,70,501,456,50,101
138,105,30,63,542,459,49,98
137,112,33,61,558,449,50,108
132,111,36,59,535,426,48,107
119,136,38,52,513,404,51,94
114,135,35,54,501,401,49,88
117,148,39,52,455,366,45,87
127,146,43,59,438,360,49,69
120,143,43,63,414,354,49,70
98,122,43,72,397,352,50,83
98,120,46,75,420,353,54,97
98,100,44,74,420,380,54,92
95,91,38,69,426,389,52,100
96,88,37,66,456,407,54,105
97,75,32,57,482,430,46,96
102,66,29,46,506,457,46,94
112,58,28,54,514,453,53,104
124,66,27,57,497,435,58,95
120,73,29,58,496,426,57,86
136,105,36,64,476,399,59,100
137,111,40,63,431,358,54,88
135,115,44,62,448,362,49,77
114,118,45,63,463,359,40,97
120,132,48,61,460,363,45,110
101,109,44,66,494,385,45,97
92,104,40,69,505,396,45,95
76,101,35,65,489,387,46,99
72,90,35,64,518,416,44,80
70,65,31,68,507,432,36,65
92,81,33,56,457,408,43,80
97,85,35,60,471,419,48,87
134,97,41,70,447,402,50,97
139,97,40,67,411,402,55,100
135,97,38,65,441,398,55,97
136,94,44,77,481,420,48,89
139,99,44,74,503,443,43,87
109,91,40,67,559,495,42,74
113,104,42,82,558,477,40,71
114,104,44,90,571,485,39,76
107,94,36,83,591,497,47,93
108,84,35,86,579,479,49,91
104,99,34,92,526,430,51,99
93,89,31,90,554,456,53,105
100,90,30,87,523,415,54,103
91,98,34,96,482,429,49,87
94,96,34,101,466,431,48,88
112,79,33,91,482,448,48,87
110,84,33,85,476,453,41,83
107,85,33,85,485,478,44,86
118,78,30,72,498,461,42,107
108,94,34,60,533,485,43,111
91,108,40,66,564,507,39,105
101,101,41,66,550,489,38,99
97,99,39,56,558,498,35,98
110,105,41,57,596,526,36,94
120,95,40,57,576,498,39,119
129,72,36,61,556,482,39,127
133,79,38,74,602,523,42,134
136,77,41,87,613,528,48,150
122,77,41,92,607,515,54,145
117,82,38,90,621,517,50,132
105,86,41,112,664,547,50,124
118,79,37,106,659,548,48,115
128,81,33,94,666,535,40,102
126,77,34,91,666,546,39,111
125,73,35,109,673,571,48,108
128,72,34,90,640,546,52,108
107,73,35,86,639,533,54,111
91,75,36,88,636,545,57,107
93,74,37,90,634,550,55,89
101,81,36,73,655,545,50,76
114,92,35,72,670,589,46,73
113,101,36,77,701,634,44,71
114,108,37,74,748,676,42,66
116,104,35,70,766,686,36,65
126,97,36,68,772,700,33,73
111,108,33,62,813,696,32,80
111,102,31,63,792,663,39,110
116,98,34,66,779,642,39,120
108,100,34,64,772,631,45,121
100,100,34,67,737,617,49,117
98,82,33,78,679,593,51,116
98,85,35,81,683,584,52,121
96,110,34,84,652,586,51,112
127,123,34,89,636,579,49,117
128,132,35,85,678,598,47,119
132,128,35,76,694,615,50,139
136,128,35,78,701,656,47,117
133,104,32,75,732,658,49,122
112,93,32,80,736,666,51,121
123,90,31,81,722,671,55,123
128,89,33,78,710,657,55,105
121,86,30,73,713,678,54,100
122,84,37,101,676,659,54,102
113,89,40,99,667,651,56,108
82,82,40,98,634,624,52,102
81,89,41,99,630,622,48,92
86,95,42,97,614,567,50,98
95,97,38,67,601,566,47,106
109,98,35,65,595,572,47,109
122,95,34,72,631,585,51,127
144,101,31,83,622,578,53,135
158,98,30,84,597,567,61,131
154,103,32,95,588,558,59,117
145,91,31,92,577,545,55,101
139,93,33,86,563,549,52,80
161,105,31,77,578,564,49,82
151,108,35,78,583,575,34,92
150,100,31,65,618,600,34,96
162,104,36,66,661,631,35,100
162,106,37,83,675,636,34,101
122,84,37,82,692,657,41,100
124,81,32,78,715,662,47,97
126,88,35,81,716,654,51,101
123,93,32,88,679,627,52,100
123,91,29,71,643,593,53,108
129,95,38,93,621,551,49,99
122,97,41,98,587,531,46,91
140,95,39,96,546,502,43,87
133,85,41,110,564,504,45,102
130,83,44,114,566,524,46,100
117,98,40,99,553,516,46,103
128,101,39,97,550,507,47,110
120,97,41,112,573,528,47,109
115,97,38,98,556,513,43,95
119,102,36,100,563,503,44,84
115,84,37,104,566,537,43,92
101,86,39,112,567,555,41,83
79,106,44,98,573,566,39,78
99,148,55,104,599,592,37,84
122,147,55,122,807,761,37,92
125,155,56,116,1246,1161,49,94
124,160,55,113,1427,1226,50,102
127,152,50,114,1476,1288,59,116
125,114,38,100,1470,1290,63,133
104,111,34,86,1375,1210,67,149
95,97,31,85,1015,835,57,142
99,86,29,75,751,739,58,146
98,107,36,82,643,627,50,143
86,113,42,86,618,595,46,129
85,132,46,81,604,576,43,122
92,136,47,81,556,555,59,158
119,135,51,82,533,546,71,186
120,113,48,76,535,527,74,186
119,126,44,75,571,548,73,182
118,119,43,85,552,539,73,174
129,124,43,85,566,535,71,174
104,129,46,86,588,535,68,157
100,147,47,93,602,542,69,158
108,131,51,94,590,535,76,169
113,123,51,93,612,556,76,171
97,123,58,102,653,598,68,139
104,116,57,103,742,708,59,120
111,95,56,98,741,729,59,117
112,94,53,102,744,744,58,108
105,97,53,92,733,732,56,99
102,89,46,88,678,684,53,94
111,98,48,84,516,519,51,83
112,100,47,80,429,427,55,105
115,106,48,74,336,325,52,121
116,105,47,67,233,225,52,127
126,102,48,56,157,153,55,126
128,85,49,89,321,355,68,138
125,115,69,100,544,553,64,153
128,129,67,100,665,658,62,140
142,133,68,100,791,780,62,133
152,140,66,111,859,844,63,143
138,140,61,85,857,818,54,138
138,133,41,76,787,736,48,102
125,135,47,78,737,681,50,104
113,133,48,81,644,584,54,110
95,131,50,70,619,542,52,117
104,134,54,83,601,528,57,132
125,118,53,84,579,521,62,136
137,96,46,87,593,535,72,158
137,86,47,97,589,536,78,164
132,85,44,94,559,527,80,164
127,82,39,92,568,508,76,163
122,87,40,96,793,773,74,161
104,89,42,90,829,811,62,142
127,101,41,80,843,822,63,165
137,114,46,86,862,836,63,169
143,127,46,93,861,853,66,167
134,125,47,103,639,622,63,172
138,124,51,122,523,574,63,170
116,114,50,140,472,646,63,169
117,102,49,159,545,843,73,194
127,84,49,155,783,1082,72,200
122,86,49,149,1060,1284,74,197
120,85,46,136,1203,1333,73,192
117,92,42,115,1238,1289,66,173
108,101,46,83,1268,1232,50,139
94,118,42,81,1172,1050,48,125
104,112,38,63,974,827,45,119
118,111,36,62,841,765,45,130
126,116,42,63,820,787,58,182
134,115,50,60,720,690,61,192
134,102,50,55,675,663,61,186
147,114,51,63,657,645,60,187
135,116,51,58,649,623,61,183
133,105,48,67,647,606,54,145
120,95,32,70,665,613,53,132
127,101,38,68,785,783,51,132
119,100,37,91,858,949,61,157
122,102,41,110,1130,1281,75,181
119,102,44,126,1339,1493,70,168
123,102,45,128,1533,1636,70,160
136,112,42,131,1652,1666,71,163
135,100,46,114,1640,1595,66,169
149,105,41,104,1481,1359,54,150
147,105,38,77,1326,1150,58,148
147,103,46,74,1086,935,60,158
134,85,47,74,774,721,68,185
138,110,48,75,723,670,65,158
122,101,47,69,684,630,65,158
141,101,54,64,629,571,67,170
142,99,45,59,629,555,64,171
147,98,45,54,645,559,56,140
132,90,42,67,629,546,61,143
145,89,41,62,637,555,64,146
131,107,43,67,635,571,62,136
129,113,44,72,633,569,59,126
119,113,44,73,627,567,59,125
124,115,53,66,637,579,59,138
113,114,54,67,619,564,54,124
111,100,48,68,618,554,55,132
125,102,48,64,625,600,61,135
124,108,54,67,851,868,63,146
116,94,46,64,871,898,58,135
123,108,45,70,879,906,59,139
129,103,44,72,864,900,57,131
118,103,46,79,838,857,57,136
115,99,43,79,556,546,53,120
119,108,42,78,440,423,53,124
105,96,46,73,350,344,60,134
113,101,47,69,270,264,68,163
112,100,53,69,182,176,66,165
106,110,48,66,503,507,69,167
111,99,48,67,726,729,70,161
115,111,48,71,816,819,62,147
106,107,48,70,890,889,53,125
101,113,40,60,931,935,55,113
95,105,43,64,835,836,55,114
101,102,41,61,693,683,54,116
101,86,37,55,633,612,61,131
90,90,37,53,572,554,59,128
120,79,33,56,550,506,59,156
141,75,30,47,519,462,58,167
133,86,35,50,491,433,60,170
132,87,33,52,463,406,58,178
146,96,37,56,443,368,61,172
123,96,36,52,423,359,58,157
114,97,38,54,411,348,58,144
125,95,35,53,398,340,54,142
132,109,37,56,397,336,50,116
123,96,32,59,397,338,55,132
122,92,34,63,408,358,57,126
110,88,30,65,462,413,63,133
111,102,34,74,513,480,67,135
106,83,34,84,889,902,71,159
106,97,38,104,1131,1233,69,154
130,106,40,121,1321,1463,71,163
126,106,41,119,1310,1458,66,158
112,89,38,115,1295,1446,61,152
115,100,37,105,1109,1258,58,125
119,86,33,82,874,956,64,136
95,85,34,53,541,535,63,127
97,91,37,60,533,525,61,124
105,88,39,57,557,538,60,124
99,77,37,56,487,474,59,130
88,78,37,53,451,435,51,106
91,70,33,53,487,469,45,99
95,60,31,58,509,479,46,95
93,73,30,56,484,452,46,106
86,88,32,60,487,444,45,112
98,94,34,68,525,462,41,118
95,91,39,70,499,437,40,111
104,102,38,61,470,419,42,122
99,102,42,62,503,447,42,118
108,100,44,68,508,462,44,117
110,99,43,60,504,468,46,117
130,118,43,70,580,581,50,118
129,110,43,73,839,856,49,127
150,111,41,71,868,872,50,130
146,106,43,66,866,870,53,134
138,103,44,81,964,972,56,126
133,84,38,71,932,911,51,131
132,104,38,71,776,734,59,140
115,103,40,72,788,772,56,138
130,107,37,72,864,840,54,126
143,112,43,56,796,799,51,134
131,120,45,57,875,891,50,126
130,107,45,66,823,833,42,96
126,99,43,77,754,760,45,95
107,89,40,81,647,664,43,96
105,87,36,97,560,562,45,105
115,79,37,109,381,443,48,119
127,91,39,122,360,492,51,126
130,94,39,134,462,709,55,151
132,96,42,140,655,963,60,153
139,96,40,134,964,1192,67,148
147,108,40,125,1204,1270,68,147
135,97,37,105,1255,1294,68,152
138,100,38,96,1250,1210,70,149
144,98,36,81,1218,1073,67,146
126,94,35,74,1026,822,61,138
118,82,35,76,796,713,57,136
113,87,35,76,766,673,59,138
116,89,36,56,788,687,52,107
103,94,39,59,753,636,50,106
96,92,39,56,742,635,49,112
78,89,38,47,730,609,60,135
117,81,38,50,719,591,61,138
107,78,34,49,670,562,60,151
112,72,32,46,671,583,60,151
112,77,33,55,705,606,60,156
135,75,30,60,702,617,57,133
124,97,30,59,712,634,51,121
120,95,30,60,753,659,52,109
116,95,33,58,783,732,55,117
129,97,33,52,972,948,62,116
113,100,33,51,966,954,54,112
96,88,33,53,932,931,56,109
103,92,34,68,880,898,53,107
126,96,34,80,800,796,56,106
126,97,33,87,439,433,46,91
118,91,34,90,314,307,51,123
126,90,38,93,238,232,56,129
132,87,37,86,290,287,60,131
108,91,32,77,564,513,58,146
97,85,32,78,712,661,70,166
111,85,31,72,797,752,73,164
107,83,29,74,888,845,74,167
97,83,29,67,923,872,71,163
105,80,29,66,813,792,74,150
116,81,29,61,764,739,63,135
106,76,28,59,724,684,61,113
98,83,27,51,652,610,54,108
96,78,42,51,622,585,56,111
91,82,55,52,649,600,48,104
103,92,65,63,625,583,50,108
121,95,69,67,639,601,51,152
123,101,68,65,681,621,53,153
144,99,62,66,677,610,51,156
144,96,53,69,697,699,52,161
130,91,44,70,926,932,59,173
127,92,40,76,942,958,62,152
128,77,43,88,907,943,60,144
107,83,44,88,886,932,60,137
113,89,43,84,828,835,61,134
115,87,40,79,487,498,66,123
103,84,42,80,349,357,62,101
126,97,41,81,279,287,65,111
128,91,38,97,262,347,65,119
123,87,38,97,517,541,70,144
120,106,40,95,656,677,70,153
119,120,43,86,797,819,72,153
96,114,45,74,898,903,76,167
97,119,46,51,940,912,75,169
106,115,44,51,858,844,74,149
99,99,45,49,802,769,69,161
99,84,45,50,716,658,66,166
110,102,40,54,645,597,60,151
115,99,40,61,617,573,65,148
120,108,43,61,608,560,60,143
126,117,44,62,614,587,53,119
132,124,40,61,626,609,52,127
124,113,45,67,643,620,50,134
109,117,43,62,668,647,46,133
102,115,41,60,705,710,48,137
98,108,39,63,824,801,48,142
93,107,37,84,847,924,53,153
105,109,33,103,855,1109,58,156
113,109,34,119,996,1300,67,158
111,105,37,130,1181,1493,65,163
111,102,34,130,1308,1592,65,159
112,96,40,119,1286,1521,58,133
130,94,40,98,1276,1396,51,113
133,90,38,78,1167,1228,41,119
135,97,38,70,959,946,47,125
139,103,40,61,647,663,47,137
143,105,36,63,643,650,52,145
126,104,35,61,646,639,55,151
118,103,35,58,639,597,55,149
141,117,36,56,653,594,63,174
134,114,32,62,642,574,68,167
126,118,33,60,657,583,68,161
113,123,32,59,648,567,69,172
136,125,32,68,652,573,69,170
113,109,27,58,657,582,61,138
119,105,27,54,679,602,53,123
117,102,26,53,688,604,53,147
124,89,29,58,718,631,71,185
106,93,26,52,714,623,68,188
101,87,30,53,694,626,70,189
104,89,30,51,724,702,74,192
105,77,29,55,749,745,78,185
102,100,27,54,717,735,70,162
96,90,29,60,710,740,75,160
96,90,28,62,690,711,76,161
110,95,29,68,596,587,72,162
124,97,32,73,471,463,69,156
125,82,33,75,389,374,79,138
139,84,35,70,281,268,76,142
154,82,37,71,186,181,72,137
155,82,38,65,134,134,75,168
151,88,43,54,252,261,78,179
151,79,44,48,520,542,59,167
149,79,45,45,699,705,60,163
134,83,43,42,809,813,67,165
121,88,45,49,886,887,71,177
116,89,38,51,911,904,68,167
112,92,40,52,849,826,68,175
103,90,40,51,752,735,70,179
107,92,40,56,673,648,69,187
102,81,39,49,610,577,62,142
103,73,41,49,582,542,57,132
111,84,44,50,532,487,57,130
137,96,44,51,521,463,56,128
132,93,45,51,529,469,48,109
138,95,46,57,542,489,49,107
136,95,48,57,545,509,52,121
130,81,42,60,573,524,54,124
99,73,42,65,719,701,55,135
111,77,42,65,770,754,57,140
115,82,41,71,782,777,57,161
120,82,37,87,791,778,69,188
128,90,37,103,790,828,73,192
128,86,39,119,691,796,72,182
128,92,40,127,734,925,76,181
123,100,42,138,913,1139,79,168
116,102,42,134,1141,1361,70,132
107,99,49,124,1318,1437,68,120
115,101,45,107,1366,1433,66,123
106,94,48,94,1346,1360,63,129
101,78,44,72,1260,1204,60,147
100,93,46,61,1059,947,60,156
102,94,38,62,838,793,61,155
90,93,39,60,730,682,64,170
87,88,34,65,864,811,62,160
84,100,37,73,833,784,60,146
87,94,39,77,819,774,58,130
85,96,40,71,804,764,59,165
103,97,41,75,811,781,65,160
133,98,39,74,561,540,88,186
140,85,36,76,470,449,88,183
144,86,33,90,403,386,89,198
149,94,35,91,570,563,90,176
148,91,34,88,679,669,87,161
125,97,52,87,795,775,63,137
115,113,55,77,884,862,65,136
106,112,55,54,924,891,71,123
98,111,54,54,834,793,71,135
85,117,59,56,841,816,68,129
80,121,52,63,774,758,73,144
112,115,61,67,708,694,71,151
112,107,96,72,692,692,72,161
110,94,111,73,670,672,68,156
135,95,115,77,495,486,71,179
151,105,114,72,408,398,65,176
143,94,109,76,336,327,66,171
143,95,81,73,249,242,55,155
145,104,59,69,240,239,64,158
137,107,50,62,517,503,63,144
116,87,49,59,648,649,60,125
113,93,50,54,768,762,64,141
119,95,69,52,833,825,68,152
119,88,66,51,865,856,58,144
108,78,66,55,796,785,54,151
116,77,66,53,736,709,54,151
106,77,70,53,683,635,51,136
100,78,47,58,671,612,46,123
111,81,50,61,650,584,45,114
104,86,49,60,611,539,46,104
99,96,56,66,611,541,59,141
100,94,47,63,571,523,63,146
109,90,51,66,571,511,65,152
103,97,54,67,564,517,66,158
108,100,51,66,551,582,70,157
118,99,43,60,817,865,60,132
115,107,45,67,828,876,51,122
119,114,41,68,814,877,55,147
141,106,39,77,818,899,65,157
137,98,39,93,817,886,63,167
135,91,37,107,499,607,63,166
132,80,41,123,490,729,70,175
121,84,45,137,628,932,67,155
113,97,40,136,908,1166,59,138
119,101,42,129,1155,1269,54,119
112,96,47,121,1277,1298,54,126
118,96,42,102,1316,1274,60,146
124,97,39,75,1283,1165,66,145
104,91,41,68,1106,916,65,144
103,86,41,68,841,728,68,150
115,86,38,62,676,666,68,158
137,118,42,58,598,567,67,153
135,117,41,65,511,467,65,159
145,114,40,62,495,419,66,166
151,123,56,62,485,404,68,174
144,127,56,69,464,384,65,159
122,100,56,68,466,370,59,149
115,108,57,64,492,386,55,139
107,118,66,69,512,410,53,134
99,117,53,59,536,436,48,120
99,117,56,51,571,474,49,117
103,117,57,50,583,499,44,102
119,107,56,49,570,489,47,122
119,89,45,45,536,467,45,117
111,84,46,53,585,578,45,105
105,86,41,59,794,827,45,112
127,82,39,72,798,834,49,113
130,77,43,79,836,880,50,105
129,89,44,79,873,917,54,119
127,95,43,76,871,892,55,126
138,94,41,75,677,675,58,147
114,102,45,65,674,668,60,150
99,105,42,57,668,685,60,157
99,107,40,56,884,914,60,156
105,99,42,65,869,885,61,162
99,99,44,74,854,872,57,141
106,99,39,92,826,858,58,166
105,97,41,106,808,859,52,152
100,86,43,121,521,673,54,144
106,90,47,133,566,863,58,147
111,96,44,140,844,1132,62,164
117,99,56,129,1081,1330,61,144
118,106,54,120,1322,1352,64,152
122,105,52,105,1365,1322,71,164
131,99,46,80,1340,1197,66,156
120,95,48,52,1280,1052,63,143
130,87,38,50,1129,851,60,131
126,87,36,41,859,808,55,119
127,101,36,41,804,793,42,96
110,102,37,44,802,806,48,89
111,95,41,46,647,660,53,95
118,100,40,45,576,579,51,89
127,96,42,46,525,512,53,85
126,86,44,45,487,483,51,89
132,82,45,59,498,492,47,90
147,86,39,58,524,500,50,87
119,83,37,61,561,524,50,84
113,82,37,63,563,527,51,89
121,87,39,69,600,537,51,92
123,91,35,62,583,510,54,103
105,89,37,61,586,513,46,93
111,87,38,58,598,500,52,113
114,84,36,54,664,620,48,119
100,71,30,54,952,901,51,119
102,70,33,58,972,934,49,133
106,71,31,63,957,927,50,138
99,68,31,76,922,912,48,136
92,75,35,81,847,810,49,135
91,81,36,79,430,428,48,140
81,84,35,75,317,306,56,144
71,82,35,75,484,493,56,138
81,85,37,62,631,625,55,130
82,76,32,56,775,764,59,135
109,69,31,51,833,821,65,135
108,59,31,51,885,881,64,133
109,54,28,49,847,821,61,139
114,62,26,48,810,767,63,143
112,58,25,47,738,683,59,132
86,56,25,50,750,676,49,129
87,55,25,44,768,649,43,112
91,58,27,41,743,620,43,106
88,44,26,42,705,601,41,103
104,43,26,45,705,587,45,137
127,59,25,40,681,552,52,137
130,63,26,45,656,566,50,130
136,69,26,45,652,568,52,129
156,85,31,52,627,548,63,182
158,97,32,59,616,549,70,177
145,93,37,70,620,563,71,186
149,99,42,85,628,548,75,199
160,101,45,89,649,565,76,216
156,94,49,95,716,614,86,246
167,89,53,98,715,620,114,336
197,107,70,121,703,623,131,359
257,157,70,113,719,630,136,373
321,178,84,140,711,637,154,422
349,273,126,147,669,609,156,398
344,290,133,142,648,579,135,329
336,294,131,125,634,564,122,309
292,272,136,137,601,554,115,291
213,259,128,112,578,508,96,232
183,159,84,95,584,503,92,265
206,133,73,100,602,536,97,293
198,120,63,97,634,551,103,331
217,122,48,88,632,550,107,347
222,124,49,90,635,578,106,341
201,126,49,98,636,579,119,320
171,130,45,101,625,566,114,299
182,144,45,105,598,560,116,291
165,140,49,104,576,546,114,278
165,148,47,96,561,527,113,277
204,150,53,104,535,524,93,270
216,140,54,113,536,548,91,250
199,113,53,116,575,582,85,235
203,107,50,120,585,601,98,283
205,88,52,127,610,620,107,289
186,75,47,135,653,650,110,306
189,69,52,134,642,639,113,322
193,72,52,129,629,619,108,304
203,80,52,138,666,622,110,271
196,89,53,144,724,700,100,251
185,113,53,128,709,678,105,260
206,162,56,139,719,673,114,282
218,174,62,156,711,673,129,323
208,172,60,147,669,661,125,339
216,170,60,147,575,549,125,335
200,153,59,148,558,534,118,362
190,127,49,126,548,530,118,366
187,119,41,108,531,513,111,329
188,122,42,117,559,535,133,339
181,127,40,104,614,581,147,370
179,131,42,97,651,620,151,339
147,105,41,101,677,630,145,310
127,92,40,96,715,670,143,317
110,88,38,81,709,661,114,273
86,73,38,85,687,634,99,257
97,63,34,84,648,606,94,253
101,65,35,78,618,586,97,268
137,110,34,71,566,535,92,255
138,114,35,68,555,526,94,263
175,141,32,58,537,523,94,251
193,147,35,76,551,528,97,235
192,152,36,88,576,549,94,222
167,126,34,96,596,567,91,214
168,120,34,96,618,588,95,209
129,86,38,98,653,624,92,218
99,76,37,92,650,624,92,247
96,70,36,86,655,622,90,246
93,64,35,88,666,612,94,250
104,67,33,91,657,595,92,237
118,76,32,91,665,586,89,212
113,73,33,87,663,590,72,142
121,78,35,95,663,586,78,153
144,81,38,85,670,597,94,227
136,77,40,79,672,600,95,244
120,68,40,98,641,586,93,244
130,71,39,100,655,592,101,276
132,63,37,91,637,586,97,280
116,63,36,100,612,562,81,227
113,64,36,106,610,554,74,206
130,77,33,83,590,519,86,218
127,82,32,85,556,486,83,200
122,80,36,104,553,478,91,194
112,83,35,95,557,484,98,209
124,83,33,86,540,479,101,243
116,82,38,108,559,512,95,248
112,73,37,107,560,534,89,230
108,71,34,98,559,545,76,205
129,67,38,106,573,555,71,228
122,67,39,108,575,554,74,197
118,58,38,106,582,544,71,191
118,60,38,106,605,537,72,190
119,59,38,100,596,519,71,188
95,60,33,93,556,489,60,119
102,70,33,98,547,476,65,159
98,73,32,72,524,469,62,143
97,71,34,71,476,437,70,156
91,75,35,69,471,441,80,170
115,71,38,77,493,461,112,310
126,62,40,77,476,455,113,299
143,72,36,87,470,452,112,298
143,73,37,84,482,449,108,295
144,69,36,81,479,441,100,290
137,81,36,89,474,443,66,152
134,86,36,83,494,484,58,154
127,75,36,81,521,506,62,161
126,76,34,80,543,560,74,178
126,76,34,89,584,604,83,202
118,63,35,96,607,619,83,190
96,62,35,96,642,634,77,166
112,57,34,96,654,642,76,179
121,65,37,103,651,613,77,177
121,64,35,99,633,592,69,154
122,65,33,81,623,581,68,152
126,65,35,83,586,541,70,151
121,67,35,77,562,525,68,138
112,62,32,70,576,541,52,117
110,67,33,83,565,529,56,119
108,69,32,78,561,525,67,125
110,66,30,78,588,543,68,160
98,63,29,83,588,541,69,156
95,64,30,79,575,543,72,157
96,60,32,77,605,558,70,153
116,80,41,89,611,577,76,236
114,79,42,93,622,595,76,242
133,100,43,90,653,614,79,258
143,98,43,100,669,614,77,255
143,97,42,100,663,620,87,273
126,83,33,90,674,636,88,230
122,83,29,82,662,607,88,215
122,64,30,83,632,580,83,197
117,69,31,84,634,572,86,206
129,72,30,69,607,532,77,200
152,74,31,74,586,495,59,172
154,82,32,85,582,501,60,164
133,78,33,85,572,493,62,159
132,84,36,92,547,493,65,168
139,84,36,92,598,534,63,158
123,79,35,101,593,517,68,161
135,78,38,94,590,514,64,158
139,81,37,93,621,535,64,163
154,88,36,81,611,514,66,161
145,90,36,83,585,489,66,159
137,89,37,74,615,519,63,155
128,88,36,85,621,522,67,164
137,103,35,90,597,516,70,169
124,91,31,86,630,536,65,153
121,95,34,90,634,554,66,140
125,96,34,89,602,543,68,142
118,91,31,73,611,550,64,122
101,73,31,66,607,539,61,109
98,73,38,87,609,545,62,118
122,62,36,88,607,527,64,118
120,69,35,87,607,514,68,134
124,67,36,95,610,520,83,177
127,62,36,94,630,533,82,174
118,58,26,77,594,524,87,176
85,61,29,79,601,530,89,195
96,54,31,77,613,537,88,211
122,68,32,69,578,503,75,178
127,70,32,70,574,502,74,184
130,77,34,69,587,504,67,175
135,76,31,65,618,556,66,170
122,75,31,65,661,611,64,138
98,63,31,63,667,624,66,141
102,65,31,63,654,609,70,136
110,64,33,63,631,588,81,158
124,84,34,55,560,512,74,135
125,82,35,48,462,403,72,138
120,84,34,52,432,368,73,153
112,86,34,52,405,362,74,169
108,86,35,63,436,376,60,155
104,71,38,78,424,377,62,161
102,70,39,99,444,406,69,159
111,70,38,103,480,431,67,160
114,69,39,107,482,433,67,152
121,69,36,101,456,421,72,155
110,68,34,94,488,425,75,166
122,75,34,84,480,406,80,202
117,76,35,80,448,391,92,229
133,72,36,79,454,387,91,228
136,78,36,79,430,354,87,227
139,82,33,77,427,365,94,245
135,80,35,68,453,394,92,220
136,77,35,67,445,382,76,174
115,79,37,85,433,372,78,189
106,72,37,82,480,409,86,213
97,63,37,85,478,398,73,189
92,58,34,84,453,371,64,183
95,71,33,84,464,374,69,211
104,76,30,66,482,381,71,201
103,74,29,66,444,347,69,202
105,74,31,62,403,322,68,198
110,78,33,67,411,326,66,202
112,72,31,63,389,344,62,186
143,67,31,60,364,356,64,190
147,78,33,61,382,370,61,166
146,87,31,68,400,394,68,176
155,91,29,64,414,425,80,173
163,86,28,76,445,432,86,177
131,86,28,75,458,427,85,172
125,75,27,82,485,454,84,167
135,68,26,79,516,463,82,165
127,58,28,79,497,433,81,177
111,63,31,90,486,418,75,174
107,63,30,90,497,424,72,172
121,75,32,88,462,396,72,168
122,77,38,97,444,392,77,194
123,79,38,111,481,415,68,182
127,76,41,96,475,410,70,192
126,75,44,98,449,401,66,191
126,67,44,96,487,421,71,199
113,61,39,86,480,414,69,172
112,59,38,72,456,405,66,171
104,55,32,70,510,447,66,151
114,57,29,70,523,449,67,159
102,53,28,68,514,456,60,141
104,55,31,68,541,474,52,124
94,53,32,66,542,473,57,132
93,57,35,85,544,483,58,155
86,55,34,86,586,517,55,140
105,58,34,98,601,532,55,144
116,55,33,98,636,551,66,164
127,66,31,95,669,573,69,178
128,78,30,80,643,545,66,161
130,78,30,81,623,532,67,162
119,73,29,70,652,532,80,179
113,76,28,66,591,496,74,165
105,72,30,65,574,502,78,164
116,64,33,82,580,500,84,184
117,64,33,77,559,474,89,188
117,66,35,71,522,460,80,182
112,67,40,78,594,548,83,187
109,61,40,81,602,547,78,173
132,70,38,62,642,578,69,140
160,75,37,69,676,617,66,146
157,75,38,72,701,650,67,155
156,72,32,70,712,635,68,160
179,76,30,74,729,636,75,180
158,67,28,80,701,625,80,193
120,65,27,79,723,636,78,179
129,69,25,83,725,609,76,168
134,78,25,81,687,584,86,186
110,74,24,76,676,597,76,159
113,81,27,71,695,589,78,172
123,78,29,70,680,584,84,190
124,79,31,70,683,620,96,205
114,70,31,76,693,605,91,190
119,71,33,81,711,606,97,198
121,60,32,82,732,643,91,174
112,61,32,84,726,627,89,161
103,56,31,80,697,588,76,133
108,60,31,76,694,611,65,130
105,63,28,70,670,595,65,136
105,61,30,81,637,574,64,144
116,59,32,82,624,575,64,153
113,62,32,90,655,599,66,159
110,63,33,87,686,623,65,155
100,63,36,96,694,640,63,157
91,67,36,95,716,656,68,165
82,65,33,93,768,694,71,152
80,69,38,98,754,691,66,147
83,64,36,103,729,661,67,143
86,69,34,95,717,635,64,151
81,67,35,87,701,620,63,140
78,66,37,85,661,585,63,142
84,59,33,67,647,565,77,167
101,66,37,57,626,549,81,190
127,73,37,53,618,569,95,212
130,73,36,57,615,572,97,228
140,82,34,52,579,554,96,249
139,82,33,50,577,558,100,269
134,76,30,57,624,598,96,252
139,68,30,55,627,590,81,215
140,65,28,58,616,569,78,198
132,60,29,67,625,574,76,180
128,60,28,69,625,574,53,113
121,62,26,70,576,548,57,113
98,63,25,78,572,542,56,114
94,66,26,82,577,562,59,124
105,63,27,76,601,587,61,139
110,72,26,74,599,580,66,160
107,69,28,95,611,586,64,160
94,63,28,88,638,602,62,163
104,68,30,85,646,605,56,150
95,68,33,100,639,584,50,128
95,64,33,102,643,602,49,103
102,77,33,92,645,594,46,99
125,79,34,98,633,590,68,159
118,73,32,93,599,567,73,172
118,76,31,79,579,571,83,172
121,73,33,86,560,548,81,176
118,60,32,74,555,546,82,188
107,63,33,69,561,547,70,139
114,65,34,82,590,567,66,122
123,66,35,91,637,598,62,128
117,60,33,93,706,682,73,179
116,61,35,99,722,699,73,166
137,66,35,97,730,700,71,164
137,77,33,88,732,690,72,175
129,70,31,84,723,673,73,191
135,72,36,79,663,591,68,154
135,72,33,69,631,555,73,158
104,70,36,80,612,547,72,166
96,61,35,85,591,547,72,156
103,65,36,94,557,521,72,142
116,70,31,89,568,524,71,130
119,69,34,91,583,549,65,124
118,63,34,84,611,559,64,137
120,61,34,77,631,565,70,158
113,64,31,66,669,597,69,168
95,60,33,86,681,603,64,165
106,74,33,90,701,611,65,172
113,80,29,87,681,593,83,202
120,80,32,97,671,582,84,210
117,75,32,96,679,580,79,190
116,78,35,89,666,568,78,190
148,74,33,91,645,547,79,183
158,75,36,96,640,554,62,138
152,86,35,95,639,560,70,127
156,89,37,95,597,529,79,150
160,89,33,84,587,548,91,202
118,81,34,82,574,547,92,207
111,75,32,80,556,530,97,213
115,65,34,72,558,523,85,205
135,63,31,68,557,520,77,191
148,63,34,80,549,483,77,175
161,72,33,82,569,488,87,188
154,67,34,82,561,487,86,192
152,67,31,80,541,482,91,202
129,72,34,91,564,512,95,223
109,71,33,82,579,536,85,202
104,66,32,76,563,555,72,195
103,70,31,72,599,637,71,191
111,73,34,76,613,679,66,173
127,72,32,60,585,670,63,165
128,77,33,61,579,664,60,153
115,76,32,56,581,630,67,155
125,84,35,64,543,541,70,174
122,84,33,74,525,489,73,181
109,79,33,73,540,473,71,168
107,70,31,76,558,478,74,171
107,69,33,76,544,476,69,162
99,64,33,75,556,481,59,133
96,60,31,62,563,466,54,134
93,60,33,64,548,476,61,135
118,64,34,58,527,461,68,157
139,73,35,64,534,473,75,173
134,63,31,59,544,486,75,167
132,68,35,60,579,527,76,157
131,68,35,71,591,550,68,164
114,67,35,80,608,603,71,182
85,58,32,77,638,630,65,166
94,64,38,83,657,647,65,184
86,58,39,88,630,628,63,188
93,68,40,82,650,618,69,188
101,71,39,78,634,567,67,175
109,78,40,85,597,538,65,172
105,75,36,83,576,506,75,170
133,78,34,89,578,500,84,179
132,73,32,87,547,484,82,165
125,78,33,82,556,484,73,141
123,75,32,77,570,480,84,189
148,86,29,76,546,472,77,180
130,81,27,67,549,480,80,185
124,78,25,68,551,481,84,201
126,72,27,83,539,487,94,230
132,77,27,84,558,514,87,201
101,67,30,85,570,524,90,204
98,68,30,80,579,545,82,189
103,69,31,89,623,578,81,183
105,69,29,86,626,581,71,141
115,70,34,86,625,575,74,170
114,72,33,89,670,606,74,173
138,83,33,91,647,574,70,172
159,86,35,86,610,537,74,180
155,88,38,82,624,541,82,196
140,79,35,80,598,526,75,166
145,77,34,76,553,483,79,169
128,74,36,85,591,509,82,165
105,68,35,87,589,514,74,148
102,62,32,83,570,502,79,183
127,69,31,85,606,525,85,205
144,87,33,89,611,530,81,201
145,78,33,83,575,504,77,205
146,78,37,85,598,512,102,236
154,87,38,92,603,510,99,210
138,84,39,89,566,480,101,198
117,70,39,82,590,505,102,192
109,71,39,79,600,513,110,203
101,76,35,87,617,528,89,164
100,68,34,87,632,530,79,164
101,69,33,88,635,534,70,157
96,67,34,90,626,521,68,162
91,70,35,91,647,534,53,149
92,71,34,73,606,497,56,175
88,71,32,64,620,514,58,156
95,69,32,63,637,530,63,160
109,76,30,72,627,526,73,166
116,76,30,70,609,509,78,178
145,75,30,72,615,510,79,181
153,75,30,85,587,484,90,190
147,78,30,88,580,468,85,186
136,68,26,77,562,451,92,209
140,67,25,78,562,462,91,197
114,85,28,77,571,477,92,172
106,92,31,66,557,482,82,169
107,89,31,62,630,554,82,172
115,91,33,66,701,623,64,138
112,88,33,64,709,631,61,141
106,68,32,74,681,612,60,148
127,58,31,71,672,596,61,145
133,60,32,71,588,518,62,134
136,61,32,73,476,423,65,133
131,63,32,72,439,383,63,126
135,67,32,86,427,376,61,124
136,72,30,88,442,393,66,136
146,87,31,89,419,383,71,143
141,89,32,88,439,389,65,152
146,91,35,98,459,385,71,175
144,88,34,79,455,382,70,178
118,80,34,76,429,353,67,171
94,63,29,78,439,357,68,183
99,57,27,79,428,342,75,183
137,85,26,74,439,401,76,176
144,90,25,79,455,396,76,164
145,96,26,77,456,394,74,158
147,98,29,75,457,397,83,166
147,98,31,84,462,403,81,161
107,78,32,78,424,350,76,145
121,83,30,75,423,370,75,147
119,82,31,83,449,394,75,155
120,82,33,84,467,394,70,176
114,84,33,72,484,401,68,169
112,86,31,77,498,406,75,188
91,76,35,77,510,408,87,213
112,77,35,67,486,382,95,222
115,73,33,67,464,376,87,186
133,72,33,68,437,359,88,183
142,65,35,69,419,348,88,167
135,60,31,65,393,338,76,130
119,53,30,65,398,353,67,135
112,55,28,60,405,363,65,131
95,54,30,69,447,397,57,122
81,48,28,70,484,427,52,127
91,53,30,72,498,454,62,157
93,55,32,77,518,480,58,129
103,66,34,78,551,496,62,149
107,61,31,74,520,475,69,164
116,65,33,68,474,439,69,174
142,66,30,68,477,424,57,148
144,66,30,75,451,392,81,200
148,55,31,76,406,370,80,194
150,59,30,69,434,392,76,203
148,61,28,70,445,393,76,190
127,60,32,74,445,416,77,199
123,60,30,60,497,450,59,156
112,58,30,60,505,463,65,181
104,57,32,78,516,463,65,169
110,53,32,78,557,495,65,177
126,45,28,72,535,453,70,179
134,47,29,76,505,430,63,169
155,48,28,75,565,469,53,144
157,57,28,63,531,448,58,147
162,65,27,65,534,492,61,151
159,67,30,77,593,546,60,142
155,67,31,75,589,554,70,160
135,70,29,80,568,524,82,172
153,64,31,84,607,547,85,185
165,59,33,92,587,503,91,191
151,58,33,85,571,476,87,200
162,57,33,88,603,482,86,199
179,69,34,86,570,464,78,188
167,72,30,79,557,452,87,187
159,79,28,69,553,434,80,197
156,81,26,65,535,417,82,196
149,83,28,68,520,445,81,189
144,73,29,69,526,457,81,199
137,70,28,68,525,474,71,190
125,63,29,72,572,517,70,163
128,60,29,76,603,548,71,165
129,58,27,71,631,555,75,179
123,59,24,68,696,608,75,166
127,60,24,76,734,620,76,161
126,60,23,77,723,614,79,173
141,62,23,78,722,614,80,174
137,58,24,76,712,599,73,162
131,64,24,76,667,562,78,165
132,62,24,66,665,592,71,160
149,67,25,59,658,575,76,159
135,70,28,56,654,578,79,161
143,74,29,62,657,592,77,161
139,66,33,72,660,593,67,150
134,65,33,70,661,579,66,165
116,71,35,76,668,601,61,175
130,71,35,73,658,586,73,198
117,74,34,71,657,557,73,195
132,75,30,61,653,576,74,205
146,77,30,67,639,565,73,189
155,75,29,63,658,571,72,185
146,85,27,67,660,587,58,157
149,85,29,77,686,623,60,169
135,83,28,72,725,638,69,187
127,80,31,76,733,651,88,224
103,70,33,77,730,660,89,218
106,57,34,81,752,669,87,209
118,72,32,76,736,661,88,195
115,79,33,82,699,627,83,166
109,87,31,91,675,586,66,117
124,92,28,87,645,570,66,128
142,104,30,80,619,551,77,157
131,92,33,77,598,539,74,161
128,87,33,82,579,543,72,162
138,80,32,64,575,564,69,168
135,76,32,67,590,560,69,149
108,62,31,74,572,558,56,125
107,61,27,71,574,562,68,135
119,65,25,67,618,567,73,144
120,65,25,74,632,595,84,160
112,66,30,74,623,603,81,157
116,59,29,75,634,600,79,160
116,61,29,76,651,606,66,150
101,56,33,75,618,599,68,150
83,61,34,69,593,560,59,136
86,60,32,77,586,548,59,141
102,84,33,67,586,567,64,134
133,99,34,63,577,559,75,142
161,105,30,63,571,558,67,138
167,104,27,61,601,588,67,130
162,101,25,49,619,602,71,149
154,89,28,52,620,599,66,147
127,81,28,54,632,605,54,137
100,83,29,60,658,611,59,139
91,83,29,60,648,594,57,166
92,83,30,69,622,569,50,141
93,76,28,68,617,553,51,147
97,71,28,66,590,541,53,152
105,62,27,55,595,565,54,156
105,59,28,56,572,552,57,131
105,61,32,55,600,569,60,134
95,63,31,54,623,587,60,134
89,52,32,59,618,577,57,127
65,45,34,60,592,547,59,125
69,42,37,58,601,554,56,122
67,40,33,46,565,531,55,120
81,45,33,48,562,519,65,148
81,49,34,56,542,515,72,163
99,55,31,55,543,518,65,164
94,58,29,53,565,531,65,163
94,63,27,53,567,531,64,163
88,62,31,58,547,520,55,129
92,64,29,44,577,523,48,114
74,61,30,45,596,549,55,121
86,66,30,44,657,630,61,139
95,69,30,47,810,813,60,134
91,67,27,60,845,862,57,133
87,66,25,76,839,870,55,123
94,72,25,89,827,872,51,132
86,67,26,105,794,894,39,113
82,67,31,125,772,992,41,118
87,71,31,124,983,1185,46,129
90,73,33,121,1203,1336,50,142
94,74,33,112,1347,1372,51,118
96,74,32,100,1351,1338,55,113
117,75,30,81,1291,1178,59,115
112,77,29,69,1114,939,57,104
110,72,28,62,874,717,61,110
108,71,28,60,631,635,68,124
124,70,29,61,625,622,65,126
109,67,27,51,749,757,60,127
110,61,30,57,754,772,58,127
115,66,31,69,740,749,51,113
115,62,34,75,727,738,35,90
104,60,36,73,677,700,37,87
106,56,35,83,477,484,40,88
111,66,37,91,404,413,42,93
108,72,36,100,508,535,40,96
119,71,35,97,670,664,43,93
116,74,32,96,742,732,42,92
120,77,34,85,784,779,44,86
117,73,29,75,831,820,53,96
120,75,31,55,784,757,55,92
109,73,30,55,670,647,51,92
105,73,32,58,633,581,53,96
99,74,35,68,608,535,51,93
96,68,35,66,591,512,37,78
92,57,33,62,591,488,48,91
83,62,33,58,549,458,49,96
90,72,36,58,513,434,50,91
95,71,33,47,508,419,51,96
99,79,35,52,482,396,56,127
126,87,35,52,468,393,53,131
134,83,32,56,475,393,54,130
143,79,27,53,470,403,52,129
134,79,30,73,529,494,52,129
134,75,28,70,592,563,49,116
107,64,30,76,611,613,49,101
110,71,32,74,659,660,51,104
101,62,31,76,679,677,50,103
103,59,29,61,652,646,49,112
123,68,28,60,632,625,50,103
129,68,25,51,640,595,49,101
116,61,26,49,599,574,47,104
121,69,28,46,597,579,53,127
119,68,28,42,587,559,52,118
100,55,33,53,580,548,52,114
104,60,33,51,576,553,45,112
108,59,31,52,584,537,48,101
98,55,32,57,558,510,44,74
100,52,31,57,574,546,45,69
100,53,30,54,557,540,42,60
96,72,32,54,547,533,43,60
98,74,37,58,590,562,42,66
103,83,36,56,603,569,41,79
106,83,36,55,638,572,38,89
99,83,36,49,693,604,40,87
114,70,34,59,710,630,45,93
127,78,34,64,673,605,51,99
129,69,34,64,697,615,55,102
129,72,36,70,644,571,53,102
135,73,34,69,579,524,53,105
129,67,37,72,563,475,51,103
118,57,34,64,570,469,44,94
112,58,33,63,518,443,46,87
122,64,32,60,549,479,51,112
123,67,33,62,550,477,54,115
107,66,31,52,540,489,52,113
110,66,32,53,558,507,54,114
119,70,35,60,574,509,48,113
106,64,38,69,598,508,42,83
103,71,39,71,648,545,38,80
104,74,37,70,659,553,40,79
102,75,37,77,671,561,42,84
93,69,33,78,707,583,44,91
88,69,30,70,669,569,45,92
90,64,29,65,672,573,47,101
92,61,32,65,684,569,46,108
88,55,34,57,674,558,47,112
104,61,36,52,633,527,50,120
109,65,39,55,645,523,52,120
107,63,41,66,605,490,51,114
113,67,41,67,592,494,53,114
144,80,41,67,577,498,52,108
131,77,40,64,586,512,46,84
131,74,38,62,589,527,44,81
132,71,36,52,601,539,48,91
135,68,34,48,596,530,49,83
101,67,31,49,606,518,50,81
100,66,33,59,614,519,51,94
95,64,28,53,599,499,54,94
96,73,33,53,584,482,50,84
111,80,33,53,580,463,45,81
120,85,37,52,643,553,41,80
123,85,34,41,674,601,41,64
121,85,37,61,697,622,38,63
120,81,31,59,681,611,40,62
94,79,32,61,647,597,45,72
84,68,27,61,558,496,48,81
73,69,34,85,484,415,45,80
83,70,31,76,416,369,45,86
90,67,33,78,404,367,44,85
99,60,33,78,436,388,45,88
101,57,35,82,419,401,47,91
104,58,32,61,426,403,48,93
102,61,35,68,458,409,49,86
98,68,37,75,466,412,48,88
101,82,37,81,455,404,49,85
106,101,39,76,456,384,48,77
105,100,39,75,455,382,47,81
101,100,38,74,442,371,47,85
100,100,36,72,432,355,53,92
100,96,37,68,426,345,58,102
106,73,35,69,456,352,56,108
107,71,35,69,460,341,55,108
110,75,36,59,460,349,61,103
125,70,33,51,479,381,62,99
117,64,35,49,495,402,53,97
102,73,35,49,478,409,53,89
98,76,32,50,474,416,55,86
96,76,29,48,459,407,48,91
77,75,32,52,480,436,44,96
84,80,31,76,457,423,43,89
94,73,28,75,433,406,44,94
104,76,32,75,418,402,50,92
143,92,38,79,426,405,54,95
160,121,35,76,390,355,55,88
176,130,37,48,432,377,54,82
177,133,40,50,466,402,56,93
176,136,37,48,493,433,53,106
156,127,34,43,555,483,48,101
156,113,35,49,555,485,42,106
140,103,34,50,575,507,52,108
130,99,33,48,606,519,52,98
143,99,33,50,601,501,51,86
135,96,32,59,537,459,52,86
115,82,31,57,556,465,54,76
106,77,32,61,502,421,46,79
125,77,32,61,443,390,41,84
108,66,31,59,452,400,40,80
119,59,32,58,460,395,41,92
130,61,34,62,467,405,43,97
138,62,33,57,508,434,44,98
132,63,33,59,504,423,43,94
131,66,32,57,492,428,45,104
118,70,30,48,550,475,47,107
116,83,35,56,531,472,50,107
125,108,34,54,533,475,53,107
122,112,34,56,568,500,62,122
124,121,37,61,574,501,60,115
120,120,38,60,545,486,58,103
120,118,31,45,565,484,51,98
104,90,32,47,543,474,48,97
100,84,31,45,540,481,39,81
99,69,30,38,533,467,46,90
107,69,29,42,529,473,45,92
106,61,30,43,524,486,50,102
113,69,30,44,536,492,50,96
108,68,30,46,506,471,51,93
104,65,33,53,511,484,46,85
96,68,32,50,522,484,47,80
97,64,33,49,512,473,41,68
90,64,30,49,522,475,46,72
103,67,32,45,559,515,45,77
106,68,27,40,588,535,45,77
118,72,30,45,611,537,41,84
115,70,29,45,653,575,45,88
117,77,30,47,700,619,46,98
107,73,26,53,731,643,57,113
108,75,28,50,740,643,60,121
103,77,28,54,791,692,62,118
89,74,27,53,775,672,59,114
88,66,25,52,723,623,55,113
97,72,27,50,709,593,44,99
115,80,31,51,694,579,43,111
112,71,31,45,615,509,41,114
109,71,32,48,647,532,46,112
108,66,34,56,678,567,47,103
122,67,34,50,663,563,43,99
110,58,29,48,691,574,44,80
109,62,31,57,714,620,50,83
112,69,32,60,689,611,49,86
109,78,33,61,685,601,48,83
82,74,32,64,681,603,50,78
91,85,35,69,664,603,47,66
103,86,33,72,712,655,53,76
109,82,36,74,708,656,51,84
115,75,34,72,728,696,51,92
130,78,34,70,783,737,54,94
129,71,32,65,787,751,53,97
117,67,31,53,746,685,43,87
114,65,29,46,776,690,42,75
116,75,31,40,759,653,46,66
100,75,32,48,712,608,44,74
93,71,32,50,688,572,43,67
96,74,34,57,651,549,47,85
101,80,33,55,605,535,47,87
96,74,33,58,575,518,43,89
113,72,35,59,540,503,42,83
120,77,36,58,554,535,41,86
129,76,33,52,566,548,39,76
123,74,32,52,562,546,44,92
118,72,33,50,607,585,47,97
103,67,29,44,650,625,55,102
93,61,29,53,665,630,58,106
88,62,29,55,710,671,57,105
92,61,31,57,724,684,55,105
96,59,27,59,703,664,53,102
101,58,30,64,687,638,48,100
101,60,30,56,664,620,48,103
101,54,29,59,603,565,51,100
115,64,32,66,582,543,48,95
112,65,32,65,580,542,50,94
113,67,33,65,577,537,48,98
112,63,34,70,576,557,44,98
113,66,33,67,593,566,39,97
104,58,32,62,623,590,41,86
103,58,34,63,623,603,44,90
104,71,34,58,621,608,45,88
107,75,33,67,633,594,48,85
101,72,33,66,618,585,52,91
93,76,29,63,594,568,52,90
107,78,29,62,585,544,49,81
111,78,37,67,589,549,54,94
120,78,37,52,588,556,52,96
117,77,36,54,605,575,51,90
114,70,37,54,622,588,50,91
113,71,39,56,638,601,52,94
105,59,32,50,649,612,48,116
103,62,31,48,660,620,52,123
104,63,36,63,668,622,48,122
110,65,37,66,674,614,48,123
122,65,35,68,662,614,44,126
121,62,32,67,635,591,53,95
115,58,32,68,615,572,51,75
122,60,27,66,591,551,55,75
115,57,28,61,563,546,54,92
114,56,26,55,567,532,53,93
116,60,29,54,577,545,53,86
112,57,30,54,598,552,51,90
104,52,29,40,600,553,50,104
102,54,29,51,621,571,49,89
81,59,31,50,638,587,55,106
78,55,30,52,655,583,54,125
80,56,31,54,641,563,56,140
78,62,33,59,643,562,56,135
90,69,35,59,637,544,56,135
95,63,33,59,615,533,53,124
102,61,32,59,590,522,50,132
100,65,32,62,622,598,48,117
104,67,32,58,631,604,49,115
105,61,31,54,624,598,50,118
105,66,30,56,633,597,49,132
98,70,29,53,640,615,58,126
101,68,30,52,598,558,59,130
97,65,27,50,582,544,57,130
87,64,28,45,566,534,56,127
72,59,29,49,569,526,55,108
80,55,35,66,564,500,45,79
81,59,33,71,566,478,57,101
84,61,35,75,578,478,61,116
84,59,34,74,593,493,63,129
92,66,35,81,611,517,65,131
86,69,31,70,619,528,63,139
96,64,34,66,619,544,50,118
99,60,33,65,620,556,46,108
105,66,35,74,626,553,47,110
105,62,33,68,591,522,51,121
106,60,32,66,597,523,52,113
93,63,31,61,583,505,53,111
90,70,32,58,561,475,55,119
95,66,30,49,552,471,58,119
111,73,32,48,547,466,57,123
111,71,34,53,514,441,53,120
114,68,34,60,531,455,52,125
112,65,31,63,534,461,51,111
116,71,33,69,510,446,50,100
96,59,30,68,533,468,50,79
97,65,32,70,552,486,50,84
134,73,32,72,543,496,52,73
138,74,33,69,585,560,49,67
128,65,32,62,607,587,48,62
137,77,32,62,600,596,41,62
145,85,27,53,601,608,38,61
125,95,27,43,600,596,50,73
124,98,32,46,558,556,64,85
133,103,33,48,551,543,63,90
130,97,35,46,537,522,63,91
121,90,37,54,519,496,69,102
104,78,36,56,519,498,60,109
107,70,32,55,512,489,46,111
106,71,33,61,496,472,53,110
104,68,30,61,508,478,52,106
104,64,30,62,503,484,45,96
113,60,31,63,489,470,46,103
112,69,30,61,508,491,55,105
110,77,31,70,529,512,49,102
102,75,30,72,527,513,49,101
98,77,35,73,577,543,50,104
103,77,35,76,605,571,65,80
102,75,35,76,605,541,59,66
96,60,34,62,623,561,58,60
98,63,36,57,627,558,59,74
118,65,30,53,620,543,61,88
114,70,30,49,624,541,74,128
109,66,31,55,626,559,76,134
117,66,31,59,612,533,79,138
125,71,29,60,625,557,81,133
118,71,28,57,608,546,81,133
112,70,28,52,594,531,55,99
120,73,28,54,606,531,51,89
118,73,27,52,610,537,44,81
113,76,30,64,595,519,41,86
106,76,32,63,606,548,48,94
115,78,33,72,622,565,48,135
115,79,34,68,624,560,52,140
105,79,34,71,641,570,51,140
101,71,33,71,662,571,60,148
105,67,31,76,667,563,64,147
91,55,28,72,667,555,65,113
77,47,29,76,669,559,62,106
99,48,28,77,627,526,67,116
102,60,26,70,612,512,62,113
103,68,27,63,584,471,53,123
104,69,28,59,583,463,47,118
113,77,32,63,567,451,53,126
95,77,34,56,593,456,49,119
94,68,34,52,591,464,57,119
91,62,34,56,592,478,59,99
95,61,36,69,577,469,62,106
96,52,32,63,573,454,64,118
114,51,29,61,582,463,66,138
126,62,32,63,583,463,59,141
136,60,34,67,575,453,53,137
132,68,31,55,572,453,51,132
128,77,29,48,595,488,45,119
113,77,30,49,564,468,43,97
95,66,28,49,583,491,38,78
76,65,30,51,606,520,39,74
74,60,32,52,667,591,37,96
94,53,33,59,713,628,34,99
101,60,34,60,706,630,33,104
113,63,36,65,650,583,37,137
110,63,32,64,619,546,42,139
110,64,32,65,530,462,46,144
94,64,32,62,399,373,50,145
90,57,34,62,388,364,52,148
81,56,33,57,406,385,51,119
95,61,33,52,420,407,52,124
91,57,30,48,424,396,49,106
92,54,29,46,448,394,46,97
93,55,28,49,453,400,49,88
94,64,27,50,477,400,47,90
84,58,25,49,457,387,46,82
97,69,28,56,465,404,51,77
104,69,29,57,466,413,50,73
102,69,28,65,475,406,51,74
114,64,29,64,454,399,53,91
115,65,33,63,465,396,55,109
105,61,32,58,457,388,52,120
96,58,34,58,445,375,55,131
99,59,32,41,448,380,53,132
77,56,33,46,452,382,53,123
73,55,34,57,467,403,50,108
78,57,33,57,485,404,50,93
84,56,30,59,468,386,48,106
82,57,31,62,492,403,47,115
86,55,28,63,511,401,46,121
104,61,27,58,477,366,46,127
111,60,28,58,477,375,49,136
112,63,28,58,501,384,48,118
108,64,30,57,459,368,46,112
128,69,31,61,468,391,49,110
123,75,30,65,492,397,49,105
115,69,29,63,508,439,46,100
110,71,30,60,534,474,48,97
118,75,28,60,545,476,49,99
98,78,26,52,566,518,46,94
88,68,25,37,581,541,45,91
87,68,27,45,541,488,42,91
92,77,25,48,492,453,41,88
88,80,27,49,495,452,48,79
88,75,26,47,425,367,48,89
96,81,29,51,398,352,50,88
96,83,28,46,442,386,53,90
107,74,30,43,442,383,56,95
98,63,27,38,423,378,50,109
96,62,29,48,488,429,52,105
91,55,27,49,486,412,49,109
93,51,28,49,474,424,51,108
85,55,27,49,510,444,46,107
101,62,31,50,528,455,44,106
101,60,30,41,505,435,44,107
96,59,27,35,508,446,43,105
96,59,29,42,482,405,45,102
93,51,30,44,497,424,56,102
82,45,28,45,486,419,59,92
83,47,32,55,468,404,58,83
82,44,34,62,561,564,61,78
83,48,35,88,886,884,56,76
93,66,32,115,892,898,46,85
97,66,32,120,920,931,50,106
99,64,31,118,943,962,57,121
107,66,31,117,918,896,58,131
113,66,31,103,640,614,62,136
108,58,32,78,645,617,72,142
115,63,36,73,642,593,69,131
123,66,34,71,626,584,67,145
133,68,34,73,605,595,73,149
138,69,34,73,642,610,78,171
132,63,34,75,713,724,70,163
123,58,33,82,921,953,75,172
118,53,35,105,1139,1272,76,163
105,53,38,126,1397,1544,80,170
96,48,40,130,1547,1705,81,167
94,58,44,135,1526,1665,83,209
97,59,44,131,1433,1568,81,204
100,62,43,126,1298,1337,78,195
105,63,42,109,1023,1002,70,186
107,64,38,113,762,682,64,172
104,56,34,113,738,674,58,141
99,54,33,118,702,632,54,129
95,54,35,111,649,594,58,142
89,50,33,106,656,592,57,158
93,55,32,89,654,589,57,197
92,58,30,80,642,570,62,182
91,56,30,80,630,546,69,200
89,58,29,76,650,561,68,203
97,60,29,78,634,574,69,190
89,63,30,85,640,591,69,148
95,58,32,82,656,591,68,152
99,59,31,80,658,609,63,147
91,57,30,82,673,620,61,134
101,66,29,98,725,628,67,144
97,61,35,102,721,621,70,162
94,65,37,109,721,621,71,161
92,64,40,118,736,636,72,147
99,65,46,120,701,609,72,155
79,56,47,115,642,587,64,147
91,57,43,107,625,571,62,131
89,56,42,122,585,546,62,131
96,62,40,118,580,549,62,151
96,61,34,113,571,553,58,137
112,78,37,107,547,534,60,136
106,75,37,113,546,542,66,164
110,80,38,88,593,578,85,222
124,82,44,104,574,552,91,235
127,85,43,116,601,541,93,250
114,71,40,120,647,588,98,271
121,74,41,120,658,594,104,294
135,72,40,122,653,596,90,251
119,70,35,104,701,646,86,225
113,67,37,93,725,682,84,214
127,67,36,81,697,663,87,194
123,72,33,75,677,654,84,141
114,71,34,76,651,644,78,144
111,73,33,70,571,570,81,199
110,73,32,67,522,540,83,217
100,70,34,75,526,534,79,214
99,68,34,86,526,537,73,208
96,63,34,83,567,559,79,210
94,56,32,86,596,580,71,166
100,61,32,86,603,590,70,152
104,65,30,90,637,603,76,165
97,58,31,79,667,625,68,161
92,60,35,94,660,625,63,174
92,58,36,96,654,621,69,186
109,59,35,104,659,619,68,179
104,54,35,96,644,629,53,158
107,56,34,95,641,619,56,157
109,60,29,78,629,598,55,140
117,62,27,74,633,615,55,110
114,59,28,62,640,617,59,104
110,67,33,77,651,618,61,111
105,68,35,93,656,631,58,104
109,78,35,95,665,644,60,113
105,79,36,97,673,631,58,124
86,75,35,104,660,613,60,155
91,68,30,95,623,578,57,148
97,65,29,87,615,548,57,153
99,65,29,88,594,529,56,147
97,63,28,87,570,517,54,155
94,67,27,75,560,514,52,136
88,69,29,80,576,531,57,154
92,71,30,75,568,546,55,145
79,56,28,72,599,565,55,145
88,57,28,73,625,584,55,133
92,57,31,77,642,609,60,126
100,58,28,69,673,628,67,130
107,72,28,71,687,625,74,154
112,73,27,75,661,604,74,165
102,71,28,82,652,594,74,163
110,75,28,78,650,583,72,167
110,74,27,76,631,568,61,152
102,71,25,75,610,551,57,152
97,68,29,77,612,556,60,145
99,69,33,72,621,549,67,161
113,67,33,88,593,524,70,166
107,66,37,91,578,517,69,166
102,55,43,89,579,513,69,149
101,55,41,83,559,497,72,155
97,54,38,76,547,499,70,143
67,45,40,81,548,511,63,142
60,45,36,79,545,511,64,138
63,44,31,80,553,528,61,135
63,46,32,84,605,570,56,128
80,59,32,88,593,558,52,127
79,58,26,69,601,549,53,117
86,57,28,68,588,527,64,139
102,58,27,64,610,547,79,172
104,61,26,62,590,522,78,174
98,48,27,70,624,547,81,188
98,54,33,88,634,547,78,188
94,53,33,94,657,574,74,179
86,59,32,95,636,551,62,152
88,68,34,102,623,527,62,140
82,72,35,94,603,510,55,117
81,69,36,90,598,514,62,119
84,72,34,85,569,486,56,107
75,68,36,86,559,482,52,108
85,72,39,87,550,487,60,113
93,71,40,89,520,461,62,111
97,79,39,79,516,462,58,111
94,79,39,85,517,465,57,114
101,78,42,87,519,457,59,108
91,62,38,76,537,487,55,112
90,59,38,79,546,512,53,107
91,50,35,77,546,526,54,93
91,48,36,84,573,559,57,105
91,46,32,85,574,578,57,113
86,57,31,86,564,561,53,111
85,59,31,82,584,560,57,138
84,59,33,84,583,562,59,142
91,59,34,77,576,545,63,158
79,61,33,71,593,559,63,164
84,56,34,74,602,571,66,161
80,53,33,87,574,561,64,151
84,59,29,86,582,549,58,152
75,62,32,93,581,537,55,130
85,63,33,103,577,510,63,130
86,60,31,103,579,509,62,131
86,70,31,94,606,537,59,114
81,66,35,97,618,550,58,108
88,66,32,87,658,637,54,115
82,64,31,81,667,655,41,95
83,63,34,109,685,659,38,105
82,54,34,116,687,661,41,110
104,52,31,113,668,646,46,139
106,56,33,112,618,555,59,154
107,57,33,115,584,528,59,161
103,57,31,87,600,532,57,156
118,57,32,75,593,510,58,167
110,55,33,71,597,507,57,161
101,52,31,68,622,519,62,133
99,52,33,58,632,529,67,138
98,55,33,54,587,503,77,147
88,55,31,56,603,514,90,170
76,53,33,75,609,519,92,166
81,50,33,78,601,529,81,167
88,52,31,79,631,548,78,163
91,51,28,79,623,550,78,173
98,53,28,81,623,546,68,172
95,52,26,69,646,569,68,176
93,48,25,69,667,572,68,184
88,48,26,68,652,559,67,186
95,53,28,73,674,564,61,171
81,51,28,70,639,538,57,148
84,53,26,64,622,530,55,135
93,54,28,64,600,524,58,129
92,52,29,75,584,504,56,124
79,43,29,72,570,497,56,119
79,46,31,69,602,538,50,103
80,48,30,73,587,509,49,100
81,51,31,77,590,505,45,93
81,48,28,63,596,534,53,87
92,50,29,61,582,525,52,84
96,50,28,63,572,508,56,89
94,54,29,75,594,530,85,174
87,53,27,71,578,510,85,174
90,53,24,72,584,498,87,186
89,54,24,78,621,527,92,195
80,52,27,77,628,527,102,202
89,51,28,63,624,514,80,133
94,50,30,72,630,518,82,139
98,55,32,74,620,507,83,141
101,59,31,68,700,581,85,168
115,64,30,68,691,591,74,166
109,62,30,74,668,584,75,167
106,61,30,71,662,584,82,166
102,56,29,68,635,557,80,169
95,57,29,71,495,435,72,131
89,57,29,71,453,383,68,120
102,55,27,66,423,361,67,126
108,55,28,66,408,388,59,125
115,57,28,64,428,417,53,109
112,55,31,67,443,437,55,114
105,46,30,74,478,458,54,113
94,44,31,73,495,465,57,111
103,51,33,72,496,431,54,147
108,55,36,83,507,427,59,171
117,55,35,80,500,401,54,177
121,65,36,71,475,397,53,178
127,69,36,85,485,397,50,177
114,66,35,85,474,385,58,173
107,60,30,73,435,357,53,143
94,57,32,77,435,368,51,129
86,50,33,108,443,341,54,130
88,47,33,99,443,353,54,133
90,49,36,99,463,377,50,102
85,50,41,104,496,411,46,105
84,55,37,99,496,426,48,110
93,54,34,65,509,450,47,112
88,52,33,69,508,447,43,108
92,48,27,64,480,434,55,143
86,48,24,57,465,423,67,157
96,50,27,69,454,392,76,161
89,51,29,69,428,402,76,159
87,54,30,63,423,404,82,160
83,60,30,64,429,407,74,128
92,60,28,64,442,417,74,130
89,58,27,65,477,450,73,125
95,60,27,75,485,426,74,126
87,56,27,78,498,425,68,122
80,49,29,81,536,447,70,125
77,50,30,89,536,440,66,101
71,44,29,80,500,432,58,101
64,41,30,71,492,442,67,111
66,42,32,71,468,425,68,106
68,41,33,68,417,397,66,97
72,39,34,62,395,383,62,97
94,44,33,60,407,378,65,112
98,47,33,67,414,381,60,110
103,51,32,70,441,408,63,127
112,55,30,79,470,494,71,183
125,62,29,74,505,521,75,204
117,62,29,74,556,553,76,204
112,62,30,86,561,554,76,212
108,58,28,89,545,539,79,210
104,62,31,81,551,486,90,228
84,60,31,85,537,467,89,220
73,60,34,89,481,427,85,216
96,75,36,81,481,432,86,217
115,87,37,73,505,459,80,213
119,93,37,74,491,449,58,139
120,94,37,72,539,495,54,125
121,95,38,76,576,530,57,117
108,85,34,66,583,526,62,124
96,74,37,65,611,536,66,122
102,65,35,64,634,545,72,141
107,61,34,70,582,493,77,146
107,59,31,59,572,485,75,160
103,55,32,62,591,500,76,152
106,57,29,65,556,478,82,172
94,56,27,66,559,483,80,156
87,55,28,57,598,522,77,158
101,62,30,66,608,527,76,165
115,62,29,63,634,541,67,147
115,63,30,73,666,569,68,144
116,57,29,71,688,587,68,160
115,55,31,76,718,638,66,164
114,48,28,69,726,640,67,148
113,54,29,67,681,612,73,161
105,51,31,59,689,611,64,148
104,59,31,67,673,603,56,140
111,71,32,82,622,531,60,127
116,89,31,80,612,520,66,141
112,87,30,82,649,537,60,138
115,87,29,81,612,516,66,151
113,83,34,89,611,514,74,157
102,75,33,74,653,569,73,161
84,55,34,82,671,589,65,152
87,52,34,82,711,590,65,142
82,50,30,80,758,641,61,131
83,56,28,71,769,662,51,130
91,53,27,75,771,658,47,119
88,51,27,71,780,648,65,128
94,58,28,71,734,657,67,128
92,59,29,72,705,632,63,120
93,57,26,73,701,620,61,105
100,58,25,71,684,602,67,121
110,57,25,69,657,620,76,162
96,49,29,68,697,638,86,183
93,47,31,68,697,636,86,179
90,44,33,63,678,623,87,184
82,54,33,60,709,620,86,172
66,53,34,65,699,598,64,119
85,54,34,81,662,583,49,93
102,60,35,81,645,559,58,145
105,62,36,78,635,550,63,149
105,56,37,77,590,549,64,156
109,57,37,86,610,566,65,156
96,60,35,71,604,562,63,152
96,59,34,71,629,610,53,109
105,54,31,71,651,646,50,92
106,55,33,71,683,671,46,87
103,56,33,58,695,677,52,106
101,51,33,64,713,671,55,111
90,46,34,63,754,699,56,110
81,51,34,72,737,666,53,113
78,49,33,75,704,639,56,121
79,51,33,73,648,604,52,113
92,54,33,68,609,599,50,110
91,57,33,77,517,508,51,107
86,53,34,69,505,507,52,107
88,53,32,65,489,494,47,92
86,51,28,61,523,501,59,95
78,49,27,67,544,515,61,102
79,48,23,55,556,553,63,106
81,50,25,53,599,581,66,135
76,53,25,54,642,608,65,145
87,52,27,54,665,630,50,144
95,55,27,54,667,626,51,138
97,57,30,71,669,611,46,134
111,62,27,68,648,591,54,130
110,58,28,67,612,574,67,133
113,67,28,70,571,547,67,126
113,67,31,85,569,549,65,126
121,78,28,76,568,543,66,123
131,76,28,77,575,555,54,92
136,87,28,78,588,559,36,76
128,78,27,77,613,575,39,80
121,75,26,58,606,564,40,75
113,63,27,56,595,561,42,87
103,58,27,59,577,545,53,124
100,43,27,62,565,526,64,147
97,42,28,73,547,513,69,145
104,46,26,68,546,528,73,156
103,43,27,71,561,541,72,155
88,51,28,73,576,550,65,140
107,64,30,89,623,585,63,127
111,69,30,78,667,613,58,133
106,68,31,84,703,624,52,125
115,66,32,88,733,643,59,142
113,67,31,95,753,664,67,170
91,54,27,86,744,659,68,172
91,54,34,98,702,624,75,174
83,55,33,96,665,591,77,172
75,58,32,94,635,561,80,180
81,55,34,91,606,530,78,153
101,69,34,85,563,490,74,149
112,68,27,79,593,518,69,146
116,68,29,76,583,536,66,162
112,65,27,72,585,540,61,147
113,65,26,66,592,549,62,151
101,51,26,65,597,554,57,146
89,51,27,60,576,544,59,138
91,55,25,61,615,551,61,124
102,63,25,61,605,540,59,121
111,65,25,58,606,537,54,115
110,66,26,56,633,531,51,114
113,67,26,52,631,541,54,135
116,64,29,56,594,522,58,145
125,66,29,55,598,524,56,137
114,63,30,58,583,504,57,132
122,61,32,66,533,489,59,132
118,57,31,64,532,465,54,113
114,71,32,70,519,442,47,93
100,68,31,78,483,428,49,93
108,81,30,78,468,442,44,91
107,92,29,75,460,447,52,112
116,93,30,74,471,439,51,132
113,83,29,66,541,523,55,135
131,81,30,56,560,527,60,145
129,72,31,64,587,522,75,153
126,57,30,62,603,527,68,150
127,57,32,70,583,524,71,145
134,55,31,67,521,436,76,152
118,68,32,74,531,449,79,145
119,64,30,69,527,474,70,150
122,65,30,70,516,474,74,157
109,62,27,63,531,479,69,154
111,66,28,64,550,489,61,149
128,68,41,72,526,458,59,151
126,66,41,63,730,700,53,143
117,68,43,69,760,727,49,138
119,72,46,80,761,747,51,133
130,73,45,87,776,775,60,143
108,67,37,86,790,795,52,138
100,71,40,93,566,556,57,143
99,72,39,92,487,483,74,150
103,71,38,84,419,410,77,149
83,70,40,82,308,302,78,136
78,64,36,72,191,188,77,133
82,75,33,69,123,123,77,149
97,83,35,64,468,504,63,141
105,84,34,67,666,687,68,154
105,82,33,61,762,788,71,157
107,79,32,59,812,839,77,171
102,67,32,57,848,877,75,158
105,62,31,62,763,776,78,165
109,59,31,58,634,650,73,162
107,54,28,59,570,562,63,160
111,56,30,64,560,543,65,148
110,56,30,60,561,527,66,161
107,55,29,56,545,498,68,165
107,56,35,58,568,535,69,167
110,66,36,59,554,532,70,175
111,74,37,64,532,511,68,178
116,75,39,68,550,529,65,165
115,77,42,72,564,562,75,162
101,82,38,69,709,714,75,162
94,75,39,75,733,730,73,155
88,68,41,75,756,750,74,173
104,64,38,78,743,756,77,170
97,60,37,108,770,774,77,166
95,56,39,118,649,693,72,150
107,59,38,131,746,887,76,158
107,59,38,146,940,1126,81,136
97,65,39,150,1194,1352,83,142
97,66,36,129,1371,1433,73,125
115,64,32,124,1469,1484,85,140
103,62,38,108,1476,1427,83,133
103,63,38,87,1380,1268,73,123
93,61,41,80,1193,1046,72,127
95,64,42,76,962,903,69,138
102,65,41,67,795,751,53,138
110,66,39,65,685,653,55,147
113,62,34,55,619,592,61,165
115,58,33,64,557,516,69,168
112,44,33,66,568,533,67,156
104,50,34,69,552,535,78,169
107,49,31,76,544,524,82,171
105,52,32,77,573,542,84,171
108,56,31,71,586,555,83,180
105,60,33,71,625,559,84,180
102,57,35,78,660,577,89,180
100,57,34,69,651,565,99,194
96,63,35,67,656,567,97,186
99,63,35,62,657,574,91,165
97,61,34,64,570,589,96,184
87,59,31,53,858,887,90,180
83,60,31,63,871,910,72,164
87,52,31,72,860,906,70,164
85,51,30,78,852,898,66,164
87,51,28,82,862,866,56,158
94,56,31,94,501,500,60,160
95,51,31,92,418,411,59,149
97,51,32,88,332,335,59,146
95,56,31,80,250,255,58,140
93,55,34,82,161,162,71,159
81,48,31,76,492,488,68,139
74,52,32,73,615,631,67,138
73,52,32,78,757,783,66,138
75,44,31,85,822,845,76,174
75,47,29,81,853,869,66,143
77,51,28,77,749,756,65,146
83,53,29,79,689,669,70,154
81,58,28,102,569,502,74,158
77,59,28,104,507,419,65,117
75,60,31,109,490,403,64,121
75,60,32,106,468,412,63,125
79,65,35,112,430,389,66,154
84,63,34,85,408,390,66,149
81,69,36,79,430,410,66,167
90,72,34,74,424,414,69,168
105,72,33,73,413,408,66,170
107,67,31,62,457,441,74,181
113,66,31,59,487,453,75,191
116,64,32,70,465,433,75,179
110,54,30,64,484,443,76,184
103,49,31,64,542,490,76,180
92,48,37,91,830,874,62,142
90,50,37,114,1119,1245,66,134
89,53,37,127,1312,1482,74,150
99,57,38,127,1309,1483,70,153
90,61,38,127,1289,1472,72,159
90,60,28,112,1142,1294,69,150
94,64,35,100,863,972,61,156
92,56,30,70,552,590,66,175
87,55,32,77,558,587,77,171
93,51,31,77,546,560,75,167
101,56,35,89,499,521,85,182
91,47,29,84,483,457,88,178
95,53,30,83,468,410,80,155
95,52,30,78,457,408,77,149
96,51,33,80,474,454,77,143
90,48,31,65,471,443,69,151
103,53,31,53,489,463,85,179
107,52,29,56,527,485,85,179
114,53,28,59,557,499,85,197
109,55,25,55,576,500,92,212
109,58,25,53,612,533,92,198
94,51,25,55,588,513,77,170
110,52,31,63,605,613,82,204
102,52,29,58,821,843,78,196
104,53,30,62,844,845,67,179
123,50,29,63,841,847,68,182
131,56,31,71,854,858,65,197
123,66,27,72,807,767,75,173
124,66,28,75,532,457,73,156
133,66,27,79,433,381,73,151
128,69,31,86,326,280,72,163
133,79,29,81,232,194,73,142
122,68,30,76,167,143,62,121
121,67,29,73,391,409,64,130
131,68,29,64,636,613,67,138
145,72,27,51,730,713,70,148
139,58,27,52,791,772,71,159
135,59,27,49,881,851,67,156
145,61,31,62,855,798,66,157
134,58,30,66,746,706,66,157
108,49,30,66,749,657,62,128
105,50,30,65,755,662,56,121
104,45,28,68,734,635,53,125
95,43,25,58,756,643,57,130
90,42,27,59,761,624,57,137
89,45,26,58,710,603,53,139
92,43,26,59,698,598,53,141
105,52,27,62,667,580,55,138
104,54,29,61,694,685,52,153
108,58,27,59,902,896,52,148
107,57,29,65,931,931,54,146
105,60,28,66,912,909,62,153
100,60,29,59,891,887,60,148
95,60,30,63,803,767,57,114
95,63,31,78,481,458,58,119
92,60,29,80,351,352,58,131
90,55,30,100,301,390,57,120
89,51,29,112,239,448,56,119
102,52,31,127,338,680,66,143
92,46,31,125,506,842,71,146
94,49,31,121,664,905,70,131
94,50,32,106,782,967,64,121
94,51,30,92,870,986,70,128
92,47,27,74,889,889,60,102
95,48,27,66,854,788,53,94
96,50,26,66,813,763,58,105
97,52,28,66,767,702,55,104
94,48,30,75,722,667,48,103
93,53,27,70,736,666,56,122
90,51,25,66,733,654,57,129
86,48,26,70,702,637,60,126
82,48,24,66,670,592,62,126
80,46,22,55,656,576,62,118
66,41,24,53,673,644,64,111
73,41,23,52,979,968,62,101
87,46,23,76,1015,1092,61,110
100,45,24,97,1171,1347,66,115
106,50,30,118,1339,1561,83,181
110,57,29,126,1526,1706,87,198
110,58,30,127,1429,1608,89,193
100,56,31,113,1452,1558,88,198
94,58,29,97,1343,1371,86,200
92,57,24,72,1182,1135,79,179
88,56,23,56,896,845,69,155
81,56,23,52,740,702,64,152
86,55,21,52,622,611,59,131
93,65,23,51,587,587,76,169
94,66,23,62,572,578,84,179
111,63,28,67,565,586,83,178
116,63,30,66,597,611,85,182
122,66,32,67,630,640,90,200
120,60,35,65,653,620,78,190
135,69,37,60,711,669,60,157
124,70,34,59,723,660,62,158
122,70,32,57,733,668,60,157
111,63,31,52,725,668,53,137
102,55,26,49,703,667,43,98
71,43,26,44,661,627,39,86
63,44,26,39,663,661,48,110
64,41,26,41,878,889,52,114
82,49,26,51,891,905,54,116
88,51,28,60,889,901,55,127
99,51,27,67,877,889,57,140
101,46,27,70,847,850,51,121
97,52,28,76,553,544,50,124
102,56,30,72,455,439,48,128
109,60,28,73,383,366,54,132
99,58,27,67,291,273,54,126
101,59,26,64,201,183,56,136
102,53,27,68,153,141,55,129
96,48,26,69,457,491,61,122
95,44,26,62,696,711,55,108
95,44,26,64,820,850,68,129
89,43,28,68,911,948,71,121
93,43,29,66,987,1007,76,151
84,43,28,71,948,942,74,155
76,46,28,78,851,835,77,156
77,52,29,82,796,743,68,136
80,52,26,82,748,660,65,141
77,58,25,86,685,603,59,112
72,55,25,85,642,562,57,109
67,54,26,78,623,550,53,111
73,50,25,72,589,530,49,112
72,49,27,77,569,519,46,97
66,41,24,65,591,535,45,98
65,49,25,59,600,551,44,106
62,42,25,59,739,755,48,114
82,51,25,64,776,795,56,120
110,58,30,83,780,806,57,123
114,60,31,97,769,809,57,121
114,54,31,114,752,801,56,112
119,57,31,128,615,668,55,108
103,54,31,140,616,750,52,93
89,56,30,135,737,946,52,95
88,59,32,139,991,1190,58,106
103,65,32,128,1236,1347,60,124
99,62,32,115,1367,1341,65,133
108,64,31,96,1416,1351,61,144
109,61,29,81,1407,1268,61,144
116,58,28,55,1259,1067,60,150
109,51,28,52,1044,876,59,150
114,56,30,54,851,835,52,140
105,53,32,60,749,723,50,127
91,51,29,67,644,626,52,134
82,60,31,68,590,557,45,120
76,64,33,68,558,528,46,103
69,63,31,69,554,517,51,102
84,66,31,66,511,474,54,104
91,72,31,68,517,473,50,95
90,64,28,67,536,492,59,104
91,64,26,67,521,481,61,112
91,62,26,60,527,498,55,114
78,55,24,57,541,494,57,125
78,49,25,48,550,490,57,125
86,52,27,51,543,482,50,112
86,51,26,56,570,499,47,111
90,56,29,57,555,496,52,126
95,58,30,68,684,659,54,132
94,56,30,72,712,703,56,141
88,56,29,76,745,737,58,148
90,56,29,79,746,741,56,142
94,51,28,84,746,729,55,144
96,55,29,78,594,564,51,132
91,53,28,79,493,464,50,119
87,47,30,78,378,350,45,110
84,52,33,76,265,245,47,106
77,58,33,72,173,164,47,112
83,70,30,68,292,314,52,128
82,69,31,60,559,564,52,135
91,72,29,57,697,705,53,133
92,73,25,51,795,812,53,146
96,74,26,51,864,874,53,129
84,57,28,55,878,882,45,112
92,58,28,65,799,800,45,109
89,57,28,63,732,715,49,125
88,53,28,63,675,644,56,128
85,55,26,62,655,612,55,122
97,56,26,61,643,596,60,138
101,57,24,51,618,579,62,137
105,68,26,51,629,598,60,125
105,70,27,53,611,585,65,137
107,65,28,56,587,573,73,152
101,64,27,56,597,568,71,138
86,64,32,71,552,551,68,134
77,59,31,73,739,733,68,131
89,53,30,84,773,764,58,111
84,50,30,95,787,775,57,96
83,54,29,109,776,776,53,91
90,57,26,119,882,955,55,94
92,51,27,133,796,988,58,104
100,56,26,136,986,1206,57,101
106,61,27,133,1197,1380,47,98
115,70,27,128,1370,1500,56,101
109,65,27,109,1361,1428,56,103
110,67,24,88,1332,1332,60,113
93,62,25,68,1191,1127,61,117
95,59,25,60,981,906,60,109
90,49,24,41,733,706,52,108
89,50,23,47,648,641,72,138
91,47,23,51,640,611,77,145
95,50,22,57,637,602,78,135
95,57,22,54,614,584,78,135
89,55,24,57,617,561,83,158
90,56,26,65,643,579,72,166
95,62,26,61,620,570,64,152
98,73,27,57,635,575,62,153
89,70,27,58,669,611,72,182
83,69,25,58,652,613,71,180
85,70,25,47,664,602,67,154
83,66,27,49,669,602,65,152
78,59,27,54,647,583,65,151
85,61,27,55,620,626,56,152
89,60,29,57,851,873,55,150
105,69,28,64,835,874,51,144
102,68,27,81,826,873,50,147
107,65,27,81,813,872,53,163
111,61,27,86,786,800,53,134
116,75,29,90,463,450,48,111
107,69,32,89,382,370,49,128
110,69,31,80,294,285,51,149
108,71,32,76,201,194,46,135
102,72,29,70,364,378,43,130
103,63,29,72,650,643,59,160
103,57,23,69,762,742,62,163
95,57,25,61,849,833,59,149
89,61,25,67,908,899,59,150
94,64,26,65,872,855,66,176
94,58,26,54,737,715,59,155
108,63,28,51,671,631,64,149
111,65,26,51,589,524,64,145
112,65,27,42,532,439,67,148
109,65,27,47,522,410,59,122
118,65,28,58,468,359,58,123
101,62,28,61,409,343,52,119
98,61,30,60,410,342,60,143
108,58,31,68,392,319,58,141
110,54,32,72,390,320,60,147
94,56,30,65,418,348,60,147
99,55,29,62,449,360,55,147
99,52,27,64,456,381,48,125
92,43,25,58,468,392,51,120
89,48,23,53,471,397,55,114
92,50,23,51,462,401,51,101
86,55,24,58,518,495,51,92
90,59,25,67,807,786,50,78
85,64,25,98,1106,1158,59,92
102,67,29,116,1341,1409,57,110
100,62,28,119,1351,1426,59,112
96,58,28,119,1351,1417,61,115
94,58,27,113,1213,1295,64,127
96,55,27,95,957,987,58,128
90,52,23,65,629,597,59,128
93,59,24,64,621,554,57,126
99,68,27,61,599,513,56,119
98,66,29,66,554,452,58,150
105,63,28,55,522,425,56,143
101,66,29,66,464,408,53,126
99,64,30,64,427,392,58,128
93,54,26,61,401,383,60,137
106,62,27,58,457,406,65,137
120,70,28,62,489,432,62,140
111,67,27,56,522,447,66,142
116,68,25,55,574,482,66,145
117,73,27,64,587,523,79,160
107,85,25,71,614,567,80,159
89,81,27,66,647,586,83,175
90,78,28,62,648,652,82,180
79,75,28,67,888,906,83,192
86,80,27,63,902,912,75,210
89,68,28,58,930,958,69,204
78,65,26,59,926,961,65,186
92,66,26,61,915,913,66,182
105,71,28,63,679,677,65,175
109,63,28,64,678,680,68,141
110,56,27,65,650,639,66,109
110,54,26,70,837,824,65,110
103,54,27,73,853,831,64,131
116,58,26,68,829,803,60,122
109,56,26,72,789,759,47,115
104,52,26,78,719,683,46,124
107,52,27,91,400,392,55,135
121,76,24,104,357,426,55,145
99,70,22,117,427,550,61,161
98,70,27,141,534,740,67,164
115,76,30,144,748,997,71,169
126,80,29,137,1035,1234,64,173
113,60,30,128,1238,1272,61,150
110,61,31,118,1243,1230,56,131
114,64,25,83,1238,1172,53,131
103,59,21,64,1156,1008,55,152
89,59,22,62,955,735,57,143
88,58,22,62,708,667,60,141
107,59,22,59,707,688,61,142
105,63,24,54,665,625,63,160
111,65,25,56,669,597,65,158
110,64,24,51,667,604,65,153
118,64,24,51,659,595,67,158
111,70,28,55,666,600,76,165
121,68,26,54,769,714,76,143
115,64,27,63,926,878,70,126
151,65,27,89,1002,1084,71,141
149,71,28,105,1135,1297,71,150
145,63,28,119,1294,1519,67,147
138,63,30,128,1513,1711,63,158
152,68,30,129,1600,1744,62,149
147,82,32,111,1560,1629,62,140
146,76,30,95,1489,1496,58,127
149,75,28,75,1366,1286,53,123
156,74,27,56,1068,967,54,112
148,82,26,43,790,777,53,113
122,67,26,45,787,763,52,116
121,67,27,47,778,725,51,115
121,65,26,47,755,719,49,111
111,68,27,71,768,708,46,108
100,50,26,70,764,687,50,113
94,49,23,73,759,678,53,111
97,54,25,71,733,638,52,113
96,60,26,70,710,594,52,120
94,54,25,48,690,584,54,121
105,65,27,54,680,568,53,116
101,64,28,51,680,581,70,132
90,59,27,49,646,594,71,134
83,55,26,50,689,636,74,139
79,61,25,52,746,742,76,148
62,51,23,52,889,914,78,154
72,57,22,54,903,940,61,148
83,60,22,62,902,932,59,143
82,59,25,66,855,901,56,151
83,55,24,69,766,789,57,144
89,60,26,69,517,535,55,152
88,57,27,70,384,397,54,141
78,58,27,67,307,317,54,162
91,62,29,63,218,229,54,150
95,62,29,63,295,298,52,153
84,57,28,58,526,532,61,152
82,59,28,55,677,689,61,150
85,62,29,54,799,808,58,125
79,61,26,52,904,920,55,116
78,62,26,48,947,941,57,123
90,64,26,49,893,887,46,110
87,58,25,48,838,828,43,112
88,55,24,49,763,746,51,124
94,58,24,49,684,651,52,126
97,53,24,50,645,620,48,111
95,54,25,53,615,576,52,139
101,55,25,53,607,554,57,149
101,65,22,50,624,566,54,146
96,61,24,55,637,591,51,143
100,63,24,58,680,658,56,144
105,65,25,57,696,714,54,112
108,66,26,63,840,866,52,109
101,50,27,60,863,900,52,111
99,57,25,59,858,890,53,115
107,58,26,64,802,838,49,119
103,55,24,76,768,775,54,120
99,62,22,85,547,569,56,105
125,70,24,101,426,527,56,106
125,65,24,119,413,645,76,163
115,67,26,129,515,829,85,169
124,69,27,135,788,1078,82,164
125,69,27,128,1071,1269,82,170
112,63,27,119,1264,1329,84,170
109,67,27,99,1306,1281,69,118
104,63,25,83,1334,1234,59,105
99,60,25,58,1226,1060,61,124
94,63,26,59,1023,854,63,135
85,60,26,56,834,765,62,138
92,57,26,61,777,747,63,144
110,56,27,58,660,634,63,141
96,53,28,56,630,594,67,145
105,40,29,51,615,569,63,131
105,50,27,48,572,537,63,147
102,55,28,48,561,523,60,139
91,58,28,50,562,516,59,142
102,64,26,52,561,506,54,123
95,69,26,51,571,497,53,121
122,63,26,55,584,515,49,84
121,58,24,51,600,546,53,89
117,59,23,58,615,558,49,92
126,58,26,63,605,557,43,94
137,59,24,62,629,585,41,106
116,64,27,60,743,705,43,108
121,64,30,70,761,729,39,110
128,60,30,67,773,761,44,122
121,60,29,62,794,801,43,117
109,63,31,62,798,809,46,111
115,70,32,62,694,708,49,123
119,73,29,54,679,680,51,142
114,77,28,54,656,645,46,135
105,73,27,53,640,603,46,134
116,71,26,56,589,549,47,125
122,74,23,56,641,567,43,127
113,68,24,60,638,562,42,117
108,64,22,52,630,547,43,113
111,67,24,56,623,535,49,119
102,63,22,53,649,539,49,123
96,58,25,67,578,483,49,109
100,58,26,64,556,457,45,93
107,60,27,64,547,439,43,98
103,63,30,61,514,421,42,94
108,68,32,76,508,441,37,88
97,59,29,69,499,431,39,98
88,62,33,71,485,447,41,96
107,67,35,70,511,473,46,102
120,64,34,72,526,489,47,115
119,64,36,62,498,472,51,125
127,72,36,60,517,484,53,118
140,76,38,89,521,481,53,117
126,82,38,90,488,463,55,128
133,83,37,99,503,467,56,119
148,84,35,98,519,473,56,116
173,90,39,108,497,469,57,115
178,93,45,106,506,468,60,134
187,100,46,108,525,481,65,124
179,109,48,102,509,464,61,127
169,106,55,107,505,456,63,136
148,118,60,101,509,465,60,135
138,128,55,83,527,488,58,118
148,120,55,89,567,530,53,123
155,129,56,89,596,555,59,127
170,153,57,97,615,579,63,118
168,143,50,93,645,586,64,121
180,164,50,98,622,583,63,123
174,167,49,91,604,584,63,106
173,161,51,89,622,611,62,109
154,142,43,78,608,601,54,107
145,143,43,77,595,603,51,108
142,119,42,72,620,594,51,106
129,115,41,80,612,552,60,109
127,107,38,83,595,528,57,96
132,108,35,81,633,538,56,99
135,107,36,85,631,529,57,96
124,94,34,74,609,520,57,113
125,98,40,79,633,554,46,125
126,102,36,78,656,570,44,126
128,106,35,75,613,549,53,118
128,105,36,73,642,571,54,122
132,110,33,75,652,563,52,103
128,115,29,77,654,552,53,83
133,113,30,74,654,535,53,75
136,107,32,87,653,536,50,74
146,119,32,85,640,533,53,67
140,110,37,97,650,547,54,66
152,99,35,90,620,520,58,85
158,95,36,91,597,508,59,101
159,93,34,82,611,500,62,118
150,85,33,86,604,504,65,119
154,87,28,69,595,498,66,122
143,93,29,67,603,495,60,118
154,94,27,67,597,507,60,109
161,101,29,65,616,538,61,96
168,88,35,74,610,524,58,96
167,101,34,78,609,516,67,101
179,103,35,75,604,524,77,100
194,123,36,76,597,497,80,105
193,124,35,81,569,483,76,132
192,127,33,71,585,492,77,137
196,121,34,74,574,504,72,135
183,125,32,70,565,501,62,129
148,101,34,74,567,508,57,126
143,94,32,66,649,584,56,100
140,98,32,68,642,590,55,88
127,94,32,67,655,596,49,84
132,85,32,76,655,592,54,92
115,82,30,67,627,569,54,97
100,85,37,76,514,457,51,97
120,95,34,76,478,403,44,98
132,102,34,83,445,373,50,103
127,103,40,82,413,369,44,107
153,112,43,100,442,423,50,109
163,123,39,106,493,457,57,115
155,123,39,105,501,466,59,129
145,120,44,110,498,451,52,124
145,123,39,107,518,439,58,119
132,121,39,95,501,392,56,129
116,110,39,85,457,357,48,124
95,92,40,88,449,380,51,125
107,95,37,75,455,375,54,130
124,105,37,82,434,372,54,130
122,102,34,80,422,366,52,123
135,101,35,87,417,356,56,121
135,102,34,89,397,308,59,107
160,106,33,96,390,326,56,106
159,87,31,92,403,331,56,106
156,102,31,90,437,350,61,100
154,99,42,112,471,381,70,110
156,105,45,109,481,394,69,108
127,109,46,119,497,380,70,103
133,131,47,121,516,437,67,95
136,120,51,126,520,461,65,90
131,126,43,101,496,448,53,84
131,136,45,104,486,437,56,98
121,126,44,87,461,443,59,97
115,112,47,95,427,397,61,99
121,121,47,99,408,378,62,102
135,120,47,103,417,391,64,92
134,99,43,99,433,395,60,89
142,105,41,98,450,395,69,104
136,107,39,91,493,412,66,107
137,103,34,80,484,393,64,106
138,108,31,84,456,360,60,104
155,112,38,97,489,401,62,103
158,104,37,97,472,403,47,92
160,113,39,98,428,386,49,92
157,113,42,117,461,413,47,87
151,115,42,110,478,427,56,117
141,115,38,98,518,487,50,113
140,118,39,98,565,526,54,109
137,107,39,92,619,556,55,108
134,110,38,70,636,554,64,114
134,96,38,68,670,571,59,80
125,91,36,61,609,491,60,79
124,99,37,66,574,446,58,80
119,95,38,66,551,419,62,79
110,88,37,59,488,403,55,77
133,94,38,69,424,375,53,93
147,112,42,85,470,402,53,98
161,120,40,81,450,396,58,100
183,125,39,84,433,392,50,101
189,129,38,85,493,421,50,103
183,128,39,92,506,442,51,99
179,115,33,77,534,467,52,97
198,117,33,79,576,485,46,96
191,118,34,82,592,494,46,95
189,111,32,87,598,499,53,92
223,117,32,77,625,508,61,112
236,127,33,87,600,512,59,108
209,109,34,90,601,543,58,105
211,104,33,85,596,561,61,104
220,117,37,82,572,541,56,107
169,110,38,81,555,524,48,88
157,99,38,70,581,515,45,87
154,99,36,60,583,496,45,89
145,100,39,81,616,510,47,98
129,86,38,81,648,557,47,98
141,99,35,77,668,578,55,94
139,108,36,85,653,572,59,107
160,123,39,88,672,583,58,105
152,117,33,74,665,561,57,99
154,118,36,78,647,532,57,98
138,106,34,77,675,607,50,89
126,103,39,82,695,642,47,71
124,94,38,81,695,650,53,80
119,93,38,80,691,650,49,80
112,100,34,71,743,680,51,79
116,98,36,76,739,635,50,76
131,110,34,64,753,593,50,81
115,105,32,62,781,644,47,97
121,109,31,55,784,667,48,100
135,106,34,68,758,641,41,94
132,113,33,60,740,618,43,97
118,96,28,59,696,627,48,116
109,90,31,69,650,550,46,98
103,92,31,69,666,548,52,92
88,94,33,67,636,547,57,104
88,101,37,72,640,561,55,111
86,98,37,72,689,589,49,92
92,102,35,66,701,609,56,90
100,98,34,64,679,595,51,93
102,94,30,54,723,622,54,83
102,81,25,52,716,607,56,76
123,84,24,54,687,603,58,79
129,80,25,71,672,598,57,84
138,83,28,73,653,591,56,86
135,78,30,81,636,575,51,81
139,80,33,82,669,601,48,88
118,82,35,80,654,578,53,130
123,100,37,62,650,562,46,127
107,106,36,61,674,592,45,123
115,114,35,57,661,599,42,127
120,108,34,52,631,585,47,132
143,104,33,56,655,608,42,84
133,88,34,72,679,632,45,84
135,91,33,71,663,609,44,92
143,87,31,71,641,588,44,96
144,96,34,73,633,591,41,77
123,100,35,74,609,588,41,78
130,110,34,63,578,577,45,87
139,100,37,64,556,565,53,80
125,106,37,58,586,583,54,74
133,105,37,64,605,591,54,92
129,97,32,59,616,589,54,95
122,89,30,55,637,581,50,91
109,87,29,65,695,630,51,99
115,72,29,72,702,638,54,107
93,64,25,71,686,627,53,98
101,76,28,72,663,599,55,109
115,73,29,74,671,608,54,103
125,81,27,69,614,552,52,103
122,82,28,61,579,531,45,93
127,90,30,58,564,523,47,100
125,80,28,55,576,550,46,105
113,81,28,51,558,550,51,110
108,84,34,50,574,562,54,112
102,88,33,47,589,569,56,116
99,78,33,53,632,586,53,103
95,78,34,59,650,588,52,83
111,84,35,56,650,596,54,87
113,71,31,67,652,599,51,75
123,68,31,72,666,602,53,73
124,72,29,70,643,591,54,73
131,77,30,67,627,578,60,100
122,68,29,69,641,578,59,93
118,73,32,68,653,582,61,95
106,81,31,60,668,620,61,91
116,94,33,69,660,604,63,118
114,92,31,84,664,622,61,125
118,111,39,100,650,618,59,135
129,129,39,99,637,611,69,158
150,126,42,101,609,569,65,159
144,115,41,96,606,563,63,143
150,113,39,82,623,550,60,121
160,103,32,70,594,527,58,112
163,82,28,61,591,524,42,103
148,81,26,74,585,522,46,108
143,89,25,75,589,541,49,106
131,92,29,75,571,537,46,102
125,89,30,72,617,564,44,98
101,82,32,90,644,582,43,70
98,79,30,81,665,583,45,60
103,72,32,77,685,592,41,57
108,72,30,77,692,592,44,68
98,60,27,75,666,564,46,69
108,60,27,63,645,558,45,79
118,61,30,63,608,544,41,79
123,62,29,62,589,530,44,81
118,61,32,78,571,510,44,88
106,69,33,85,558,509,42,88
101,87,31,79,544,476,45,75
101,84,29,86,540,462,42,75
104,91,32,97,544,463,41,81
108,89,33,90,541,472,47,82
121,95,34,87,549,481,52,81
131,114,46,103,563,507,51,101
129,120,46,97,577,502,58,103
144,128,45,86,557,492,56,96
149,136,45,84,581,496,52,83
139,128,45,90,586,490,47,84
136,104,35,77,592,471,46,73
131,107,35,77,611,504,38,82
124,91,39,91,615,514,41,86
119,86,37,89,597,507,39,89
127,84,37,75,601,511,45,101
124,85,39,68,582,510,44,101
126,76,43,96,549,491,44,93
106,72,37,84,562,505,50,93
103,64,37,85,554,515,51,104
112,75,37,85,547,513,51,108
116,67,33,93,570,552,49,111
112,67,29,67,580,562,52,109
120,69,31,73,564,555,47,107
123,73,32,76,579,565,44,104
126,84,33,81,577,570,44,100
114,87,32,72,556,551,47,91
115,94,32,73,573,565,45,93
109,96,36,80,573,587,49,105
131,95,37,83,575,586,59,139
113,82,36,79,591,605,56,135
116,77,38,79,594,601,54,134
114,66,36,75,583,575,53,135
113,62,31,60,592,550,49,130
107,63,27,53,576,532,44,96
108,66,28,52,557,508,43,88
122,71,31,71,571,525,44,88
133,81,32,74,559,524,45,91
145,84,33,74,558,518,51,88
125,85,33,81,581,530,46,73
124,87,36,80,580,522,50,77
124,87,33,71,577,504,46,75
140,86,34,67,597,515,47,80
123,89,36,74,599,499,39,79
124,88,42,67,568,487,40,81
133,85,45,69,588,523,34,87
131,80,46,67,576,519,39,95
107,72,45,67,578,515,36,96
124,67,46,61,598,548,45,104
127,62,40,58,621,557,48,114
148,64,34,59,636,540,49,116
139,76,34,68,669,565,47,112
139,76,33,87,665,569,51,104
143,72,31,89,670,565,45,98
143,77,34,95,684,570,48,94
140,81,38,105,664,564,52,88
139,76,35,102,640,539,59,86
145,75,35,95,655,542,57,86
140,86,35,90,639,531,58,93
151,84,53,89,612,509,52,77
130,76,51,77,619,506,53,100
135,75,52,72,619,519,49,102
124,79,55,62,597,514,51,104
119,69,54,65,601,511,51,102
112,77,37,59,609,516,50,104
118,86,39,63,602,533,44,83
117,85,38,60,605,538,45,83
121,88,33,56,612,548,46,97
125,88,36,59,608,557,46,99
130,89,35,62,618,557,49,100
123,85,32,56,616,542,51,96
122,85,36,61,601,512,61,102
136,82,36,65,607,500,65,92
121,87,34,67,605,497,65,83
118,90,36,69,586,491,67,83
124,84,34,70,588,481,66,88
128,83,31,64,598,477,55,77
124,80,32,62,568,455,47,67
129,89,35,56,559,429,48,71
118,79,33,51,655,530,42,74
128,91,38,55,676,590,50,85
130,91,37,53,676,605,55,87
119,94,38,56,667,600,61,129
127,84,34,57,635,592,61,131
130,84,33,55,523,498,62,131
110,80,27,48,450,431,54,121
103,81,29,59,413,417,49,125
126,89,28,58,429,423,45,90
114,87,27,56,460,438,47,89
107,86,28,53,471,438,46,86
110,79,31,66,488,425,47,84
141,91,32,63,494,420,46,81
132,84,32,63,492,423,44,75
144,80,33,62,497,411,45,78
154,85,33,66,476,387,47,79
159,101,32,61,471,379,48,79
133,91,29,59,477,363,50,72
139,93,26,60,456,334,52,92
141,99,27,64,424,336,54,92
134,95,32,66,429,352,51,90
135,83,32,60,419,353,48,96
145,81,34,63,413,365,45,103
130,75,36,63,454,395,44,87
118,73,36,69,476,411,45,102
115,76,32,65,519,436,45,105
119,69,32,64,560,487,53,109
110,75,31,59,547,474,57,104
109,86,29,57,546,476,56,100
117,91,28,47,583,479,51,77
125,99,29,56,532,442,55,86
117,108,35,62,517,399,54,93
129,110,37,70,527,402,55,109
126,98,37,70,504,383,53,110
151,102,39,83,483,382,56,113
150,98,41,81,502,404,54,110
162,92,37,88,477,389,47,104
150,83,34,81,511,415,44,89
166,89,33,81,507,411,47,92
148,87,30,67,461,390,41,92
158,82,25,66,495,397,49,104
155,77,21,47,486,402,58,120
158,88,28,60,439,375,58,120
151,85,30,61,475,400,56,116
136,77,33,60,477,400,54,113
133,80,34,66,461,410,51,98
121,87,35,75,521,448,45,92
121,86,32,69,523,459,48,93
130,93,30,68,518,457,52,104
136,102,29,68,596,505,55,130
136,100,30,61,574,485,51,130
136,104,31,53,530,443,49,113
134,106,30,54,563,454,46,110
117,103,31,75,545,443,41,98
125,91,31,83,450,408,39,69
115,89,29,89,459,428,44,68
125,81,31,88,444,432,51,71
136,78,34,93,408,420,51,70
149,93,33,90,409,424,56,74
139,96,33,81,439,416,61,67
151,96,33,74,472,432,58,67
154,101,31,75,543,480,55,75
158,105,28,70,580,513,55,78
149,89,27,57,604,536,55,87
148,89,26,60,665,578,51,86
135,87,28,58,669,579,56,94
131,89,28,59,637,548,51,82
113,81,28,54,623,520,49,81
106,79,29,49,623,509,43,65
117,85,31,46,571,472,41,97
123,90,30,50,554,453,37,98
127,87,30,50,569,465,41,102
128,85,31,49,573,496,39,104
128,89,31,52,561,493,43,111
152,88,30,55,588,512,43,93
155,88,31,61,617,526,48,87
145,81,31,67,617,526,46,83
146,80,31,69,635,516,48,81
150,82,30,72,651,528,46,71
127,77,30,77,643,507,50,80
121,87,29,70,664,557,44,78
113,90,30,60,673,579,43,78
107,101,29,67,706,612,41,79
98,98,31,68,749,634,44,94
99,97,33,69,764,669,54,93
89,91,35,66,755,654,56,107
105,98,37,76,784,660,62,122
110,93,39,76,762,634,64,121
125,99,38,78,730,613,65,140
119,117,37,71,717,587,58,130
116,110,37,73,712,611,53,121
104,109,37,63,666,582,52,110
102,108,37,63,664,614,50,116
83,99,35,54,651,621,55,78
79,72,39,55,643,629,49,76
80,69,37,53,660,591,51,71
81,72,34,54,674,616,52,67
91,75,32,50,676,615,60,73
98,84,36,53,721,645,57,87
101,87,29,49,745,665,59,87
118,97,33,49,733,672,61,96
144,127,35,46,728,661,59,98
136,122,34,45,699,622,59,109
129,118,30,41,659,584,58,106
131,119,35,48,629,562,56,116
125,117,31,55,598,534,57,120
94,82,33,60,589,548,60,128
95,83,34,66,625,583,53,112
97,83,34,67,622,591,50,110
89,86,31,64,618,582,52,102
83,88,34,60,662,621,49,93
81,76,34,74,675,624,49,98
78,79,38,80,647,615,52,95
88,81,39,81,630,608,53,88
91,74,38,84,616,604,57,96
97,68,37,84,575,577,62,110
96,68,34,71,553,551,58,110
103,66,32,59,548,536,57,111
97,65,33,60,550,542,56,110
101,69,36,58,583,546,51,105
114,73,37,60,606,579,54,100
122,79,40,62,630,625,52,82
121,85,39,61,667,644,54,88
131,90,40,60,702,654,54,91
130,93,39,67,682,660,55,92
112,93,38,62,662,626,47,83
111,92,35,60,667,597,49,86
118,89,36,59,638,582,47,78
107,83,37,61,607,572,47,79
95,81,38,50,609,563,45,74
96,82,42,56,600,571,44,75
91,104,48,54,573,568,48,68
76,120,71,73,593,572,52,69
96,139,72,71,592,554,54,76
97,146,79,75,602,579,57,85
103,147,80,75,641,599,57,86
113,149,90,77,664,628,56,93
113,145,79,76,668,657,62,108
102,133,91,80,682,667,65,106
111,124,84,79,676,655,65,108
132,127,82,76,637,626,65,131
126,111,73,73,620,605,65,128
130,112,70,56,596,590,56,128
128,117,55,55,574,590,56,144
137,118,56,52,565,588,59,150
112,121,64,62,567,612,63,135
110,144,68,77,543,580,66,141
118,149,71,83,535,546,64,136
134,150,66,76,532,536,61,120
130,154,71,79,597,619,62,101
142,154,64,73,754,833,59,100
144,130,56,68,796,868,57,100
138,128,48,67,794,869,58,102
132,120,54,70,800,874,62,118
121,126,49,84,741,801,60,128
109,129,55,93,541,527,67,135
117,142,56,107,444,458,72,154
121,145,70,132,391,485,76,149
118,154,70,147,414,644,75,140
144,173,78,155,559,869,78,150
160,170,74,153,872,1100,81,158
160,165,77,148,1085,1192,75,136
158,158,74,130,1181,1177,70,140
154,157,78,126,1211,1118,70,152
144,147,74,110,1184,1008,62,138
131,142,76,112,1021,795,47,124
125,146,78,110,825,682,47,122
121,147,68,105,731,708,54,135
121,139,61,101,656,666,60,161
104,119,62,106,616,599,62,163
102,117,57,97,578,575,62,159
100,105,49,96,560,548,65,161
100,94,54,103,548,527,60,157
112,97,62,103,546,533,52,127
111,90,58,96,531,511,53,126
104,88,59,123,554,517,53,135
116,87,67,129,617,555,46,138
112,87,67,124,611,542,44,130
103,83,64,118,640,546,44,123
104,83,62,121,660,576,45,120
110,86,66,94,625,541,50,156
87,80,56,75,574,494,64,163
99,83,52,77,561,483,70,172
101,84,45,81,514,451,76,172
108,84,48,71,498,429,75,171
104,84,44,84,509,433,70,132
123,84,46,108,469,412,61,122
127,81,51,107,465,431,53,113
143,81,68,104,457,449,42,121
138,98,76,108,427,431,47,123
139,97,88,105,425,448,50,123
131,118,110,88,460,491,47,122
121,118,111,94,459,491,46,109
92,122,106,95,505,514,48,87
92,113,104,93,527,533,45,93
103,126,108,99,540,525,43,111
101,112,83,92,553,531,47,118
99,106,77,83,567,533,48,122
98,96,89,87,522,496,48,133
113,97,87,91,524,501,53,151
102,79,70,81,503,494,57,145
109,89,73,87,455,447,59,138
116,91,77,100,444,432,63,136
127,99,60,90,450,426,64,127
137,108,55,85,452,416,59,123
145,107,71,82,480,441,68,124
136,134,89,77,526,484,68,157
130,148,87,65,570,536,67,163
122,145,86,81,639,601,67,168
96,149,96,78,676,633,68,157
97,162,97,74,694,645,58,154
108,133,91,73,701,656,53,125
121,121,93,69,708,642,51,129
122,120,94,56,689,629,53,150
126,108,87,59,677,622,57,167
127,104,79,63,652,605,61,182
133,107,74,61,634,575,67,190
124,101,82,65,600,552,70,215
135,110,88,71,568,518,70,204
135,112,86,75,533,476,62,187
175,95,87,77,515,450,58,180
167,97,102,79,536,461,51,167
185,104,97,84,544,466,44,125
207,104,93,87,573,469,39,118
203,102,93,82,590,481,44,130
161,109,87,85,624,505,38,114
166,106,65,94,627,516,38,115
172,103,63,89,666,548,42,111
137,102,85,79,668,559,49,120
140,106,88,84,703,582,49,115
150,100,90,78,725,597,55,118
154,98,86,67,714,588,52,133
123,99,83,59,683,563,52,138
123,93,56,60,680,570,47,133
120,78,47,71,634,537,43,118
117,85,49,71,603,515,38,116
119,84,71,80,620,520,42,120
120,92,78,80,602,499,43,146
116,101,84,82,606,496,47,153
123,103,93,74,628,517,50,157
124,104,92,74,609,512,49,152
113,100,75,67,588,497,49,135
125,89,74,69,602,512,61,133
142,80,75,71,582,491,61,157
137,83,65,65,554,485,61,159
147,88,71,73,574,507,67,176
149,96,78,80,624,584,70,236
147,97,74,78,692,643,77,262
157,122,70,81,668,630,77,263
170,124,66,89,654,603,81,283
169,121,62,95,626,567,88,309
167,123,61,100,549,477,89,297
162,126,65,99,418,386,79,270
179,108,69,104,455,414,92,278
181,117,70,107,454,425,114,310
171,119,67,100,478,443,115,288
178,111,63,90,503,448,118,265
186,109,56,93,511,430,117,268
146,104,48,86,505,421,112,277
157,104,49,93,506,417,89,233
162,106,50,96,477,394,76,225
163,111,50,104,459,378,67,229
159,116,52,110,449,365,63,223
196,119,71,110,416,338,52,180
181,109,72,95,416,331,50,161
186,112,101,105,416,334,49,160
193,115,102,99,405,341,61,167
200,144,118,94,444,393,62,158
181,163,143,92,513,436,59,152
200,169,145,97,535,463,60,145
198,249,158,78,576,507,64,136
190,259,183,75,617,538,57,101
181,296,316,97,596,546,56,93
210,300,353,124,595,564,70,103
236,323,412,150,593,565,71,101
247,268,453,151,556,535,73,124
239,268,457,155,529,527,72,136
239,243,416,149,534,510,86,158
226,257,442,134,467,475,85,173
181,246,431,106,460,462,96,178
158,278,425,133,439,452,106,179
207,319,487,133,439,435,110,170
217,332,547,152,515,529,122,147
233,322,557,153,538,538,154,151
236,332,609,152,536,565,159,146
272,316,627,140,588,605,161,125
259,381,733,180,629,678,172,121
319,377,693,184,552,595,179,142
298,378,697,199,552,588,163,124
299,374,694,217,557,577,170,143
330,387,674,216,548,564,187,161
317,287,524,186,489,471,184,174
261,263,514,169,512,502,167,183
344,281,451,149,522,506,159,204
385,261,353,117,513,477,148,211
382,234,307,107,505,462,115,231
404,222,253,107,510,469,106,239
424,211,199,97,528,486,105,253
363,163,204,97,523,485,104,263
349,152,188,105,511,491,103,292
313,141,191,118,471,474,115,352
289,156,192,131,484,474,109,359
293,175,185,131,488,459,108,353
298,195,148,151,528,481,99,337
271,191,124,157,577,498,85,322
292,190,105,164,636,567,76,360
294,184,105,151,662,587,83,458
267,163,100,153,669,582,88,487
257,143,93,138,658,580,97,495
254,171,129,133,670,604,130,544
205,165,129,121,678,570,135,512
205,170,125,118,650,555,140,505
186,178,123,123,641,544,154,569
184,182,130,119,668,560,174,608
169,165,94,135,631,522,159,560
187,187,118,143,579,502,160,581
173,174,143,156,610,512,165,564
173,177,151,144,607,519,154,488
170,168,154,155,586,492,131,439
201,201,208,135,603,509,139,529
194,201,216,138,653,569,131,473
197,211,225,127,671,590,128,482
188,201,225,140,700,606,122,483
185,213,258,147,677,603,124,490
135,177,228,148,671,598,114,398
120,161,223,132,671,574,116,442
118,155,225,134,654,562,116,454
136,141,220,145,647,592,132,449
161,122,195,133,699,611,128,435
160,119,183,136,725,644,123,455
174,133,169,141,729,654,138,466
175,125,148,165,727,636,143,420
156,143,159,152,748,626,130,414
124,165,261,147,737,643,130,418
130,203,367,149,735,639,135,407
97,190,375,144,699,613,125,348
78,192,390,116,692,629,114,313
72,215,441,119,673,612,109,289
73,239,455,108,643,584,111,275
93,256,411,100,631,568,103,250
98,294,460,98,674,608,95,238
112,307,489,104,682,620,90,194
117,308,482,105,700,657,101,202
123,302,476,123,783,699,115,210
104,283,477,130,799,728,128,209
125,297,508,139,790,717,137,269
149,323,520,155,830,756,137,294
173,322,509,152,802,729,130,292
210,303,463,143,734,695,118,294
234,341,550,152,711,671,104,289
252,303,485,150,677,634,88,223
281,272,451,146,605,544,82,214
294,251,428,144,588,533,77,203
317,255,437,143,582,543,72,200
319,181,285,123,578,556,66,182
306,175,303,122,603,578,62,176
289,149,271,100,632,624,65,157
284,153,298,115,629,604,78,174
244,152,278,123,621,593,76,165
236,153,287,125,619,587,77,163
240,148,244,140,609,601,88,196
216,148,233,143,582,573,88,223
204,134,196,127,584,584,78,213
183,117,180,123,578,564,80,215
167,98,151,129,586,564,81,228
146,127,149,107,600,568,70,202
141,130,172,100,613,592,59,165
114,134,156,99,635,612,63,165
123,132,143,101,649,637,58,170
140,137,128,96,640,632,54,167
138,105,127,88,644,622,54,169
132,95,94,87,643,601,58,156
124,82,83,80,633,591,53,140
125,70,80,58,609,569,52,121
102,43,84,55,599,556,48,95
112,51,88,65,573,553,45,77
120,48,81,66,568,555,40,94
132,53,81,70,565,550,49,128
141,61,75,72,595,573,53,150
137,74,67,68,624,588,57,155
146,72,52,70,645,594,58,157
185,84,54,68,651,594,62,210
179,88,49,68,672,616,60,208
167,92,47,68,673,607,64,209
166,84,45,67,658,603,65,218
152,80,49,63,632,581,63,216
105,70,47,61,620,574,66,209
114,64,52,59,601,553,63,225
114,58,48,60,572,528,59,214
107,55,47,58,571,528,59,207
151,64,45,51,591,552,59,209
146,75,49,51,608,570,49,157
138,85,47,65,613,563,46,104
144,90,46,62,641,584,44,111
145,93,49,65,670,587,42,123
123,90,45,64,683,572,60,169
121,78,39,67,692,579,60,175
127,69,39,56,692,584,62,178
139,59,39,60,678,572,59,169
143,70,39,58,669,569,58,157
131,70,40,74,651,563,58,174
151,80,44,84,648,560,64,172
153,82,40,90,655,582,65,172
133,81,42,87,665,584,66,175
146,74,44,89,658,578,65,180
143,75,45,77,667,582,49,112
118,66,45,78,642,550,51,120
129,60,48,67,623,523,50,128
132,65,47,68,606,519,49,132
119,63,42,75,574,493,50,126
128,67,49,77,569,531,56,142
142,67,49,68,578,525,58,180
139,69,48,71,571,515,61,207
138,82,48,72,554,505,63,223
145,81,55,61,583,530,66,225
166,86,48,72,581,486,65,246
161,94,43,67,573,508,56,213
161,96,44,69,599,529,57,190
165,84,48,79,610,534,59,180
166,86,49,95,604,537,59,197
143,78,51,90,618,566,57,167
139,70,57,98,605,554,58,178
130,65,56,97,572,524,53,170
144,70,56,88,571,516,51,159
146,72,50,76,548,484,51,152
132,72,51,69,509,437,56,150
149,81,46,70,520,444,58,154
147,88,53,72,514,447,58,147
138,91,51,74,507,440,55,140
150,93,50,81,515,453,48,114
152,94,48,80,521,453,47,131
144,87,55,70,510,439,43,112
148,79,49,67,543,456,41,120
143,74,48,71,564,504,48,128
139,72,51,64,569,520,53,164
140,72,48,66,587,568,51,164
