359,257,98,143,74,61,136,165
383,238,119,148,77,82,157,176
396,255,124,150,76,84,161,180
419,320,125,140,75,83,153,176
427,349,119,153,75,84,151,162
418,303,131,167,78,85,153,163
404,297,116,160,76,66,115,142
500,287,130,172,86,70,112,166
472,217,137,175,90,71,114,160
431,188,146,152,84,63,96,138
527,276,138,132,84,62,93,133
527,275,139,146,84,60,94,137
489,284,128,129,77,58,85,98
509,310,114,119,72,62,98,110
490,304,106,149,72,66,106,111
423,236,122,153,66,60,97,116
480,254,124,143,64,63,102,124
454,250,135,161,61,57,99,128
462,234,136,167,60,52,92,125
455,235,135,141,57,49,85,121
462,227,115,152,70,57,101,132
423,225,132,192,82,62,105,136
432,235,136,185,91,72,114,138
457,256,143,192,94,73,113,141
471,277,151,205,97,71,108,143
455,356,151,201,97,69,96,127
485,362,143,170,93,68,97,125
488,363,142,182,88,59,94,128
460,346,145,174,85,57,87,125
482,341,146,166,84,64,102,135
481,273,147,161,81,74,108,138
452,255,143,163,80,68,98,125
431,237,145,172,77,66,97,119
402,247,132,193,81,68,105,120
375,251,135,188,80,65,98,112
352,259,143,185,75,61,117,118
352,240,142,190,71,63,120,126
375,282,133,193,80,65,117,131
399,272,137,176,77,61,110,125
392,255,123,173,75,62,118,123
389,245,120,173,77,55,105,120
401,299,159,216,88,54,99,115
398,271,157,210,88,63,116,119
400,265,163,205,85,63,126,123
394,257,164,205,88,58,112,121
465,280,165,220,85,61,99,120
461,253,133,164,67,57,100,119
434,274,139,144,57,54,85,105
429,274,130,168,58,59,79,108
443,306,127,181,75,66,90,107
364,306,128,163,74,59,90,94
319,287,111,163,78,65,101,98
306,276,124,182,84,64,102,103
293,286,137,158,81,57,93,97
275,284,145,152,77,56,87,106
287,260,160,167,92,59,98,106
316,271,165,181,100,57,120,122
307,259,145,158,97,53,121,127
299,266,136,169,105,54,121,130
376,282,140,169,106,58,129,139
433,303,136,158,112,67,128,153
455,307,139,148,106,67,101,140
498,300,147,171,104,66,93,135
494,303,162,180,96,66,97,128
483,272,159,182,96,65,93,128
439,274,147,180,86,59,84,113
439,302,157,183,84,61,91,138
428,311,172,168,93,66,98,146
481,307,174,171,99,71,99,162
477,317,173,175,91,68,103,154
489,294,167,168,85,66,107,160
485,256,176,177,86,63,103,146
558,263,157,180,85,63,101,155
513,259,129,155,81,59,102,146
479,234,133,176,96,67,105,140
465,236,137,206,110,73,116,137
462,230,124,194,110,75,123,150
371,231,125,193,107,75,122,137
386,257,130,195,107,77,120,131
381,253,123,164,90,70,113,136
390,242,118,123,70,70,101,132
342,249,114,136,72,69,85,107
349,280,121,126,68,70,94,129
455,261,118,127,68,71,94,179
492,274,142,166,69,71,92,203
508,273,158,182,66,65,90,205
524,270,146,173,70,64,92,206
518,229,134,176,73,59,82,192
452,232,154,197,94,63,85,151
435,242,144,194,105,66,82,126
413,241,127,178,104,66,94,121
452,268,129,178,98,65,105,136
445,282,133,206,113,65,110,144
414,280,154,207,105,57,110,137
383,262,140,191,110,59,127,127
411,268,160,199,113,65,126,141
430,259,164,204,115,74,131,156
403,234,186,192,110,73,122,143
423,220,154,167,100,73,118,150
438,260,164,166,87,83,115,152
420,275,150,168,85,80,122,168
372,267,153,158,87,73,108,140
370,286,149,140,80,70,113,140
354,284,147,147,87,75,116,131
367,242,135,153,91,62,115,129
356,209,129,160,91,64,105,99
349,220,125,164,90,62,103,97
367,242,101,151,79,64,100,100
367,247,103,160,74,65,123,113
370,287,107,151,73,61,110,119
368,307,116,142,71,57,108,117
378,300,131,157,74,58,107,122
361,276,126,179,95,67,113,126
436,273,140,186,95,62,82,119
422,247,141,188,92,62,79,108
415,258,129,186,97,59,80,113
477,259,123,177,94,64,111,127
513,259,121,157,74,55,106,123
458,267,114,152,70,54,111,126
478,276,137,149,69,55,115,135
511,282,139,137,61,55,115,139
447,302,160,153,66,55,97,127
433,307,165,151,72,64,113,137
581,326,159,139,74,68,126,163
581,359,153,132,78,79,157,170
558,345,168,133,78,81,156,176
612,318,147,149,85,87,166,193
663,314,160,161,80,82,170,220
538,325,200,166,81,83,169,204
597,346,186,181,74,76,143,213
606,344,181,193,87,84,168,228
658,358,184,183,85,74,162,231
643,383,219,179,100,81,156,214
701,369,309,209,100,77,144,222
721,351,365,228,103,76,145,252
796,404,416,265,101,73,122,242
789,421,420,256,103,92,141,239
838,460,412,288,97,86,136,271
804,445,412,306,114,96,158,278
831,440,423,322,126,112,189,284
828,468,399,305,143,128,214,302
884,462,415,311,141,119,211,343
875,429,426,293,136,122,221,329
911,445,396,289,125,119,223,351
882,444,350,277,125,111,208,322
910,413,356,287,115,94,194,348
799,422,339,275,114,91,185,327
847,422,321,271,125,97,196,358
865,412,379,293,152,128,261,447
878,498,418,283,157,134,269,478
847,498,406,257,152,139,290,485
1007,545,445,288,167,148,310,525
1054,572,453,307,181,171,372,631
1027,590,418,306,169,156,334,565
998,522,387,293,169,158,337,544
1036,562,380,299,171,160,332,551
977,549,358,285,164,155,319,529
877,540,373,315,143,126,234,373
1018,613,340,276,130,118,231,366
1078,617,322,291,123,124,231,389
1003,585,351,321,139,125,226,363
967,585,323,340,135,123,217,327
957,592,305,297,141,130,229,359
868,518,265,279,140,130,224,377
785,516,328,285,149,114,211,383
785,512,349,256,125,96,179,349
768,471,355,218,123,94,188,362
837,444,335,198,111,89,176,360
800,435,369,216,147,109,209,354
886,476,344,255,133,112,209,352
874,446,283,264,147,118,215,361
803,466,285,267,145,115,202,335
698,441,285,283,151,113,190,279
701,473,280,271,118,94,143,260
657,416,279,269,139,96,138,219
657,395,270,263,147,111,146,208
678,358,254,268,147,110,144,218
689,356,249,301,161,112,149,230
730,312,208,321,168,110,150,258
660,283,155,281,148,106,153,251
737,362,181,292,140,93,152,284
802,365,186,303,146,92,162,300
812,361,228,272,140,85,157,291
791,364,247,271,133,82,163,290
770,378,241,254,124,72,159,293
749,321,237,239,112,62,149,270
701,324,242,226,100,67,155,240
718,367,206,229,85,73,167,275
653,396,194,258,102,73,151,229
675,382,190,269,111,72,139,224
737,395,184,264,114,73,138,223
718,399,185,266,117,73,128,231
651,355,181,244,109,69,119,191
658,303,159,195,92,71,129,205
720,334,157,210,97,85,140,200
600,300,180,220,91,82,136,175
610,287,166,222,106,97,161,174
647,294,166,235,109,103,160,172
634,272,193,239,110,100,154,158
542,247,202,234,107,92,154,170
555,268,192,223,105,93,152,183
536,248,202,233,89,72,112,184
527,247,204,269,92,65,104,186
531,267,189,256,90,66,105,189
518,272,189,250,88,63,93,167
577,326,187,252,89,71,120,203
591,351,217,252,90,73,127,198
594,352,224,237,97,78,132,203
574,350,225,237,99,76,134,206
609,379,246,247,111,80,135,212
526,336,250,238,109,74,115,179
578,326,219,216,111,80,122,171
620,374,220,175,105,84,133,171
673,370,217,194,102,86,134,190
718,344,189,173,87,83,133,201
731,342,216,195,88,84,140,226
689,368,210,193,80,78,130,226
619,325,205,210,77,70,112,223
615,340,202,206,83,68,108,201
527,319,207,220,97,76,119,181
564,345,162,207,96,78,115,135
521,305,160,208,99,75,113,141
526,295,147,209,102,75,112,141
539,300,184,225,105,76,107,147
576,359,177,211,93,66,89,143
538,325,174,226,105,66,82,153
568,332,172,229,109,75,119,173
661,352,194,220,103,77,124,177
631,317,165,210,94,74,121,168
587,265,167,214,98,86,136,178
597,310,156,223,109,93,142,183
590,308,172,237,120,97,128,160
558,297,168,229,118,94,136,176
488,304,175,236,121,94,135,170
487,313,169,234,117,86,122,170
486,269,173,201,93,71,119,163
487,272,160,191,77,70,122,172
420,264,138,196,82,76,118,160
448,307,120,161,87,83,120,178
500,305,143,184,90,81,117,173
471,298,154,203,102,87,117,166
462,292,149,195,100,80,95,152
475,296,162,202,107,73,81,134
457,274,167,215,96,65,87,139
417,272,147,187,92,73,97,136
511,278,130,188,90,68,89,145
522,268,151,202,91,63,88,147
551,262,179,211,101,70,114,162
588,236,178,210,110,77,119,150
602,235,190,231,118,74,111,149
521,221,192,229,110,77,120,137
565,278,187,224,113,81,128,159
528,276,161,203,103,76,105,144
480,282,152,192,100,72,88,138
482,272,144,170,91,71,106,156
484,308,158,161,90,71,106,152
427,312,149,149,84,68,102,125
471,316,169,185,80,75,128,143
478,342,179,192,77,73,143,141
461,365,191,189,76,70,133,118
508,384,183,201,78,63,128,127
559,359,187,199,86,70,139,141
486,347,170,166,78,58,119,128
506,320,162,167,84,59,112,131
541,338,159,175,78,57,108,143
513,366,149,156,77,59,113,140
456,357,150,162,71,49,96,122
511,370,147,169,80,61,101,127
519,371,147,164,75,59,98,121
485,325,136,154,83,63,102,117
456,240,149,166,88,70,113,119
489,269,162,174,91,76,133,153
482,273,163,182,88,69,126,151
448,270,172,199,93,73,129,156
458,286,186,211,96,74,143,163
481,289,174,204,95,70,136,183
423,249,154,198,97,68,120,156
398,220,150,231,106,70,123,165
408,217,137,213,108,71,119,167
410,200,120,200,110,69,101,157
416,179,120,196,115,67,102,132
404,178,124,197,109,63,103,131
451,213,119,154,104,59,98,128
493,211,128,149,92,54,98,137
466,207,154,165,84,54,99,136
490,260,166,186,84,60,96,149
573,317,168,189,86,61,86,152
560,324,167,183,88,73,116,141
524,332,161,196,98,69,114,130
543,341,122,181,96,66,112,131
517,323,163,185,90,63,113,111
473,274,158,172,95,69,124,131
417,298,160,166,93,58,96,126
421,290,155,164,85,59,93,127
391,288,172,170,91,61,99,127
387,287,127,141,91,63,114,135
453,308,124,143,92,63,114,160
475,272,152,174,94,63,116,169
486,301,149,180,99,67,118,173
538,332,140,182,99,70,128,178
599,333,166,227,106,68,109,175
551,319,180,235,98,65,111,138
560,318,163,217,92,65,108,133
560,302,163,215,87,63,115,132
516,288,170,219,92,72,108,132
422,270,154,169,82,67,113,133
395,276,145,166,85,68,105,140
421,292,135,175,91,71,111,164
382,266,135,155,90,79,110,161
422,234,138,164,87,72,110,158
410,223,119,162,81,71,102,156
396,217,112,147,77,67,96,145
337,179,120,143,68,68,108,122
407,203,132,148,70,61,109,129
378,226,125,173,72,58,99,127
428,237,133,194,91,61,96,122
506,255,132,207,106,74,119,147
507,255,120,197,110,76,109,142
458,251,180,218,123,74,104,134
437,223,171,191,119,73,107,127
415,213,171,172,105,70,124,128
343,202,172,157,89,58,106,102
353,206,182,166,87,59,116,104
344,209,124,141,70,60,119,106
358,247,130,131,66,67,132,116
379,258,133,132,70,68,121,121
388,278,141,146,73,68,123,119
426,295,147,164,71,65,112,135
566,302,168,194,75,64,109,161
579,295,169,208,85,65,122,161
567,289,190,224,83,66,122,172
542,259,202,222,95,75,127,170
536,274,207,228,96,72,126,162
436,286,186,203,87,72,132,143
478,290,187,193,82,79,131,185
465,304,163,188,83,81,135,183
516,346,154,185,72,78,137,192
482,327,144,165,76,84,142,195
447,307,160,166,89,94,155,196
409,311,157,179,95,88,152,149
425,306,153,181,95,87,153,148
384,275,166,192,101,81,145,147
424,263,157,190,98,74,136,145
476,270,149,187,90,68,124,143
442,263,155,173,83,59,100,138
527,288,155,165,89,61,100,138
534,283,143,188,81,76,144,152
539,331,142,179,78,84,158,150
526,340,149,198,84,78,151,137
617,330,141,206,82,85,170,170
556,301,140,202,76,83,166,162
595,307,128,177,79,72,136,151
584,260,132,191,80,63,128,161
680,310,120,174,78,66,130,197
622,310,129,168,73,55,104,173
635,306,125,167,71,59,110,180
607,302,154,184,76,66,123,191
583,299,153,178,79,67,122,178
444,218,158,179,79,63,118,146
480,256,157,174,85,66,123,158
433,270,167,169,85,64,122,156
395,258,164,158,80,60,116,142
398,273,167,147,79,59,111,141
456,290,173,156,77,66,123,167
398,261,205,219,76,67,122,161
455,291,208,223,81,66,116,174
510,316,194,211,81,63,107,183
545,305,188,222,104,65,115,207
533,289,173,220,107,62,119,201
543,281,123,164,105,59,114,202
529,269,146,166,100,64,132,222
483,232,152,166,95,63,132,214
474,229,157,159,68,63,126,198
445,242,159,170,65,63,114,184
472,233,166,159,69,67,117,185
495,212,133,150,73,68,106,157
511,204,117,145,73,67,101,166
519,221,139,157,71,67,106,166
503,224,154,135,72,68,103,162
543,267,168,162,85,69,112,170
519,249,169,177,94,66,107,167
577,259,170,191,95,67,110,163
607,240,158,182,95,66,110,165
609,260,160,202,96,74,119,178
534,223,148,191,85,79,117,166
552,255,147,182,77,75,108,160
492,315,160,201,80,74,108,161
559,344,205,214,92,87,123,196
576,318,213,243,90,79,117,187
624,334,218,257,96,81,117,220
592,335,220,263,91,84,125,227
632,278,210,245,89,83,128,223
523,241,185,229,81,75,129,195
556,280,161,184,78,79,132,202
562,296,164,161,67,71,129,187
592,286,188,177,74,73,133,185
555,340,205,204,79,78,128,197
583,353,215,211,76,74,112,214
587,339,228,225,82,69,109,233
600,323,234,256,88,70,131,277
698,327,216,236,85,64,125,290
706,325,223,239,98,77,139,297
696,339,197,251,105,94,174,305
712,368,196,241,105,108,194,310
654,352,192,227,101,106,183,256
612,371,193,234,103,111,192,256
606,323,171,201,92,102,187,240
584,293,184,186,82,84,159,218
522,252,186,199,77,69,142,205
541,316,194,207,74,70,144,211
544,323,213,232,82,67,137,193
579,335,203,248,83,65,136,182
615,371,192,259,96,74,137,176
627,383,177,253,106,72,121,149
647,383,150,225,111,72,114,168
570,343,111,192,104,69,111,170
527,341,127,168,108,79,135,177
501,319,121,156,98,69,123,168
554,297,138,152,83,65,124,172
552,256,144,159,76,63,124,173
566,306,149,157,74,64,123,163
590,293,214,212,73,61,106,223
608,290,218,217,81,64,116,240
602,311,204,206,85,64,112,238
598,291,209,203,90,66,109,225
596,257,211,226,110,81,166,292
606,300,149,178,101,73,158,255
610,338,163,167,99,85,168,240
534,350,174,200,102,87,175,244
528,352,174,213,99,87,176,238
551,378,171,189,82,74,131,167
535,352,170,188,81,76,132,163
508,299,148,177,81,69,119,180
539,275,168,179,107,78,118,177
585,317,188,175,110,76,115,188
559,285,189,192,108,75,101,184
563,278,207,210,116,77,103,184
602,339,232,225,119,82,114,187
596,367,249,199,96,75,124,191
569,330,228,180,87,74,130,188
547,320,243,172,85,77,131,181
533,352,237,177,76,74,134,181
487,326,213,154,63,65,125,163
556,343,169,147,57,64,121,212
569,373,185,154,61,63,112,224
561,368,162,148,64,63,115,227
533,338,158,130,68,65,110,227
527,325,162,147,78,68,104,224
463,272,160,146,78,66,104,181
406,254,170,159,90,73,120,160
515,287,178,203,95,72,124,179
533,301,176,204,95,70,125,173
533,306,173,204,88,67,131,171
518,316,173,211,91,64,115,157
518,329,150,203,87,62,107,151
473,308,146,170,94,66,111,137
470,310,158,185,97,66,121,188
559,364,193,196,109,68,127,201
550,346,193,205,108,72,141,210
546,321,201,236,106,73,153,219
629,347,198,224,91,66,151,238
630,342,203,232,97,66,139,203
584,327,186,223,83,66,133,198
678,329,188,216,85,72,144,211
672,333,183,180,78,68,127,207
538,307,190,192,78,68,117,166
634,341,174,156,68,71,126,187
637,354,183,175,77,71,123,197
578,378,184,166,74,62,104,179
583,366,176,170,80,58,103,171
626,392,165,164,86,64,107,180
589,383,152,185,86,62,105,163
536,310,125,178,78,59,113,151
521,277,119,179,84,65,117,150
515,296,179,183,80,66,118,153
465,282,196,196,81,65,129,145
380,264,230,214,92,93,173,149
415,314,228,199,104,102,183,151
446,344,235,208,103,101,178,156
469,368,213,209,103,113,200,164
542,432,197,201,107,118,202,183
543,442,160,178,107,105,189,201
530,422,156,180,96,99,180,209
518,427,157,186,97,97,178,229
524,396,134,170,99,86,154,229
459,304,142,169,103,81,152,223
434,295,139,179,100,77,123,203
465,314,154,184,105,73,111,195
501,307,161,171,105,79,128,193
525,336,157,180,100,75,129,187
536,353,150,174,99,81,132,183
543,351,147,146,92,78,138,189
503,324,133,133,80,78,136,180
505,331,141,144,78,75,137,198
477,322,147,137,80,78,133,198
466,352,151,137,66,69,118,190
470,347,184,179,74,68,110,181
500,344,183,191,86,71,121,193
406,341,202,232,102,74,107,143
450,474,201,243,114,77,120,161
486,461,216,249,114,78,130,180
743,525,190,231,112,83,141,266
732,541,210,265,110,88,147,291
751,537,175,247,109,95,150,296
721,492,174,252,107,95,152,291
732,475,164,253,110,91,143,289
517,444,162,261,104,86,138,212
516,425,139,231,107,78,124,161
543,407,133,210,96,62,114,153
577,349,136,194,84,62,120,142
542,359,122,189,88,68,119,122
562,348,120,172,90,66,111,136
575,358,169,184,92,70,117,151
535,358,166,177,89,72,121,151
513,329,165,183,89,68,108,153
500,384,192,213,101,76,140,167
540,358,189,203,95,74,147,189
552,376,158,181,86,71,147,180
556,396,198,192,89,70,142,174
540,453,199,191,98,73,137,177
529,406,199,156,79,67,114,174
398,387,196,157,85,67,96,128
386,396,188,154,83,65,91,143
401,387,155,148,100,78,113,158
397,324,148,141,97,85,122,153
437,298,123,148,99,78,108,147
482,328,148,172,96,80,119,158
495,357,143,166,101,85,129,155
509,341,130,179,104,83,128,165
497,320,132,213,108,74,122,160
471,368,131,211,113,79,126,157
441,348,111,213,121,80,119,147
400,298,115,225,119,76,112,128
410,317,126,217,104,72,100,132
436,327,138,188,93,70,105,144
452,280,139,182,81,65,110,149
425,281,137,154,67,59,109,149
445,277,146,139,66,61,104,150
398,257,141,138,68,56,130,131
368,247,140,135,72,60,137,123
414,329,179,146,72,62,139,139
475,347,189,148,79,69,143,158
555,336,191,204,108,78,157,186
576,339,200,219,109,77,130,181
600,347,197,227,109,74,114,191
553,300,157,227,111,78,114,187
572,285,150,237,107,77,118,177
488,274,142,188,80,70,105,148
439,264,151,187,72,66,107,146
437,268,162,192,75,67,114,135
489,238,165,188,73,59,108,130
477,246,157,174,71,55,120,157
505,245,168,178,71,55,123,182
533,286,151,170,86,70,131,179
533,281,127,140,82,68,130,179
478,269,149,155,87,77,139,169
401,274,162,169,93,74,121,140
430,289,160,166,86,70,113,152
441,248,161,159,87,64,101,164
430,249,162,166,91,75,101,162
460,277,134,164,89,65,83,173
504,266,126,160,92,72,79,173
457,245,99,161,96,73,70,128
463,277,87,162,90,86,130,151
448,278,84,167,88,84,139,154
474,267,110,164,87,85,139,152
513,259,127,161,91,83,144,161
486,276,132,161,88,81,144,162
470,249,129,148,79,61,103,136
461,289,183,149,85,55,82,127
424,335,180,169,95,62,95,129
366,349,175,186,105,71,102,132
382,335,177,202,115,73,107,134
371,333,182,203,118,75,102,128
388,299,148,203,111,76,103,132
364,252,134,179,107,72,93,114
334,254,121,158,88,60,80,90
325,269,116,137,74,57,74,90
329,324,121,142,76,51,63,87
298,322,103,147,75,55,86,86
290,312,101,144,67,49,84,85
307,309,103,150,66,47,88,103
320,317,149,226,90,55,91,98
311,291,141,226,94,60,106,107
322,280,140,220,96,72,114,117
326,264,143,213,95,72,123,119
318,242,151,249,99,73,119,106
309,227,118,184,80,68,121,113
303,213,118,190,72,64,109,101
299,230,114,211,82,41,88,92
310,251,135,231,86,45,87,95
283,253,123,201,86,47,88,89
276,265,121,215,94,51,94,83
300,254,127,212,91,63,126,103
332,236,135,195,83,63,122,94
340,230,143,204,83,66,121,94
384,268,156,216,96,72,136,130
387,256,157,203,90,72,134,135
368,299,153,195,89,66,112,134
354,303,148,207,104,71,114,146
341,301,125,241,110,67,111,149
317,276,130,250,117,66,87,124
348,268,115,248,118,66,93,118
328,250,137,250,118,61,82,111
343,249,146,250,104,57,89,102
362,240,143,202,102,113,89,94
343,252,139,164,83,131,93,99
296,262,137,161,76,135,78,95
333,257,121,157,74,139,85,96
386,263,119,130,74,142,73,107
370,283,121,117,61,105,74,105
365,267,113,150,56,76,68,97
408,325,127,180,85,79,81,106
391,305,125,185,96,76,94,100
309,302,134,189,99,70,94,84
311,320,142,189,98,69,96,87
317,339,140,167,103,71,107,114
268,279,132,152,90,56,107,109
266,277,137,154,82,59,99,116
303,289,139,163,88,65,104,124
297,276,133,153,88,62,100,124
321,254,128,156,78,57,89,110
304,250,142,165,70,57,84,110
276,245,166,186,77,52,82,101
218,241,166,204,71,44,79,92
262,219,171,218,72,51,100,105
230,194,176,239,80,56,107,92
252,189,170,237,92,55,108,94
259,207,148,232,89,56,110,92
275,225,140,229,92,61,115,90
271,238,133,220,99,60,115,92
289,251,127,193,98,57,109,91
292,246,117,177,87,58,103,91
294,245,118,163,82,54,101,94
290,253,110,136,74,50,95,96
324,244,113,143,65,46,69,83
319,250,114,140,60,49,82,101
339,262,151,204,88,57,84,96
346,266,152,211,103,64,86,121
363,228,149,204,104,67,94,146
342,253,147,204,103,66,99,148
365,260,164,207,103,67,89,140
409,314,151,159,82,58,85,158
416,306,139,156,63,50,79,138
411,312,145,159,63,47,65,107
401,288,150,166,66,47,65,105
422,289,136,193,94,58,75,103
352,249,115,238,129,77,80,77
339,251,130,241,134,80,88,86
378,279,128,253,136,80,109,113
390,285,120,248,137,80,107,125
327,263,113,225,120,74,100,124
335,253,154,189,81,55,102,133
371,275,146,177,80,54,105,138
317,233,142,160,73,51,85,117
287,226,140,178,71,50,91,107
294,229,161,172,81,51,93,106
290,214,136,183,96,55,92,91
263,190,140,187,113,64,92,79
287,199,141,185,115,73,101,92
300,206,140,171,115,75,100,84
302,226,124,213,118,70,96,81
330,231,127,188,108,72,94,82
333,216,117,176,86,62,81,97
345,243,112,178,85,58,80,95
343,251,140,202,97,59,73,109
352,246,149,171,92,67,78,110
335,261,135,166,89,68,91,111
326,254,146,182,88,69,96,99
295,226,152,198,93,64,86,93
316,281,135,184,102,64,93,86
346,272,117,188,97,63,104,92
385,255,117,193,107,63,97,95
384,260,111,193,110,67,105,109
386,273,137,203,123,74,108,113
358,203,134,202,106,72,112,103
369,208,136,196,107,71,111,118
349,204,139,206,108,65,108,119
360,198,135,220,112,65,102,103
394,195,118,204,95,62,109,121
388,212,115,186,95,64,105,134
350,195,115,226,109,64,104,125
339,212,123,229,118,66,101,127
331,250,144,241,119,68,107,130
321,254,130,243,121,69,99,119
318,236,130,289,145,72,97,108
315,245,138,290,158,71,82,98
293,245,151,282,150,70,82,94
288,234,129,253,146,66,82,99
268,223,151,270,143,65,86,90
271,235,170,226,120,62,80,84
259,255,175,222,91,64,86,105
285,237,158,220,84,62,97,111
305,231,160,221,85,58,82,101
307,228,168,217,88,51,82,105
330,234,165,253,93,55,88,108
342,242,156,239,99,54,96,95
355,254,155,234,112,68,106,91
332,237,163,278,133,77,114,100
331,256,157,285,137,82,110,100
353,261,153,252,132,79,113,106
354,274,150,240,120,76,112,102
316,266,150,251,115,62,91,103
370,276,153,212,112,60,91,103
349,257,144,175,102,58,96,97
308,251,137,184,110,63,89,97
312,204,134,189,119,68,83,102
330,194,169,214,113,73,99,98
315,222,161,215,90,72,106,101
332,224,147,218,98,75,110,103
374,208,147,211,98,74,116,118
365,214,153,214,102,68,111,111
359,256,118,173,103,67,114,122
346,237,121,162,99,60,107,120
372,265,135,164,89,52,99,121
352,268,125,153,74,45,91,104
341,298,147,130,56,48,96,104
341,266,164,170,57,40,73,90
311,259,160,186,68,44,92,92
302,253,158,191,73,44,95,95
276,260,166,204,79,48,96,94
324,245,156,203,79,45,99,105
326,276,133,177,80,46,107,108
348,282,139,164,75,42,87,102
318,269,137,148,74,49,103,98
324,265,129,144,69,50,106,103
314,245,130,176,81,55,106,96
307,231,130,177,87,55,99,89
288,211,122,166,85,57,98,84
286,195,111,170,83,51,84,89
307,210,109,175,83,49,83,85
278,205,89,169,72,47,77,88
316,202,111,169,62,52,76,99
318,207,111,170,60,49,75,96
320,241,127,175,64,56,74,95
330,219,125,168,69,61,77,112
347,248,136,158,67,59,73,110
314,229,116,146,62,56,82,112
328,227,129,174,66,56,80,117
350,208,129,170,65,51,73,123
348,212,138,162,57,43,68,108
326,192,131,149,63,51,71,112
335,224,167,153,64,48,63,113
314,217,159,123,61,48,66,111
347,215,160,139,64,46,67,100
321,214,166,166,73,49,69,102
329,228,162,166,64,42,73,98
331,237,139,168,65,51,80,86
373,268,196,174,62,51,80,90
317,268,203,152,52,49,76,86
332,261,193,122,41,50,82,81
317,232,195,142,53,51,80,78
299,202,201,138,50,44,78,84
240,177,152,126,55,53,82,79
244,219,145,133,56,54,84,87
221,237,153,136,57,60,92,98
291,243,166,121,51,62,96,102
305,255,171,116,53,65,96,96
320,247,175,124,48,58,88,100
334,286,161,124,47,59,96,115
327,288,197,158,55,53,85,107
366,348,192,151,59,56,106,140
380,356,208,165,59,50,103,142
392,392,245,171,61,51,107,143
438,373,266,177,64,55,111,153
441,417,257,152,59,56,108,152
395,406,259,154,54,53,90,134
396,409,238,154,55,55,97,167
418,399,204,147,59,58,98,167
388,381,179,135,56,54,90,151
387,343,172,138,52,53,101,153
382,304,168,131,47,49,95,141
365,277,177,126,46,50,88,108
329,303,164,120,38,45,83,113
310,298,184,129,39,46,87,110
345,316,180,127,44,46,71,116
361,333,186,129,53,54,78,124
360,338,167,114,58,64,82,119
363,381,182,141,67,67,93,148
459,432,165,150,70,69,96,189
562,442,145,145,71,74,124,211
551,507,151,165,73,70,120,222
574,526,152,165,68,60,117,224
579,462,164,155,60,59,116,226
557,446,174,158,60,63,129,241
435,432,183,159,56,56,119,218
463,358,188,148,50,57,118,203
449,361,205,170,56,65,127,207
457,404,189,165,57,63,122,183
381,362,179,148,56,58,104,114
436,365,170,141,58,60,100,143
449,404,172,159,59,66,101,147
464,391,153,158,62,67,102,148
510,399,175,165,62,73,110,159
567,417,183,167,64,74,115,168
606,429,219,200,73,86,139,217
665,408,226,194,75,90,149,265
724,470,268,198,78,95,164,289
699,461,253,193,77,93,167,298
689,457,244,189,76,92,165,294
615,426,214,165,65,81,147,250
568,432,200,192,67,77,148,219
518,346,185,175,63,73,136,189
526,320,206,190,72,83,132,163
519,315,230,200,75,93,143,189
574,331,228,193,78,94,148,210
529,318,238,181,71,91,140,195
493,350,211,185,73,91,142,195
585,408,185,169,69,84,140,217
614,430,178,172,68,83,137,204
574,456,204,179,67,81,128,187
634,493,227,196,76,93,168,234
624,480,247,207,71,89,161,254
603,471,263,213,74,92,164,260
556,450,275,230,72,81,156,252
572,428,257,225,72,83,157,247
585,387,233,199,63,69,109,248
629,416,224,188,77,74,106,226
560,395,217,180,72,68,107,209
634,407,232,198,80,78,131,237
623,400,257,222,80,75,133,236
657,468,269,222,86,73,135,217
649,498,266,214,71,67,130,217
683,491,273,217,71,65,127,218
623,469,247,182,61,58,108,186
628,483,228,147,65,66,122,194
555,450,235,148,61,75,133,192
534,392,230,154,64,84,152,190
502,418,226,151,69,83,148,182
514,443,226,154,71,82,145,191
573,439,256,184,74,81,136,205
527,413,223,173,70,73,119,167
540,420,223,191,72,65,100,173
529,388,229,229,70,65,102,170
538,377,231,227,70,69,122,191
514,348,194,204,69,75,137,213
508,311,196,209,73,79,157,241
539,329,207,217,73,79,162,242
537,349,201,179,78,90,165,245
543,415,181,168,78,87,153,239
556,426,180,170,73,75,133,209
574,448,206,173,76,72,110,178
524,440,201,148,81,75,114,197
608,409,180,144,77,74,128,200
634,384,228,183,73,70,127,194
592,410,283,245,75,71,124,181
606,383,293,267,77,76,137,192
613,364,290,271,67,72,126,164
568,382,290,267,70,80,141,172
523,339,262,249,73,85,141,172
546,301,225,196,69,87,140,183
515,311,183,179,61,80,130,204
546,338,201,192,66,83,145,223
560,432,209,192,56,67,121,222
594,447,224,224,48,61,116,223
583,453,207,227,54,62,114,220
603,472,218,220,56,73,120,213
573,501,205,204,49,67,119,204
532,453,216,218,48,69,112,200
490,469,192,178,57,73,116,187
565,528,202,173,69,82,135,190
542,504,193,161,65,72,128,164
541,477,186,170,70,80,120,151
572,490,191,175,76,80,121,156
578,474,186,173,79,77,119,171
509,428,180,181,73,63,102,168
583,429,172,177,76,72,127,187
590,400,187,171,78,74,134,203
553,375,164,173,76,73,133,193
578,358,221,195,75,83,151,197
586,354,216,189,69,87,155,206
546,370,226,195,68,83,137,196
554,364,205,183,70,81,125,177
544,349,228,200,70,87,133,176
503,422,182,189,67,78,113,151
454,394,177,176,67,75,100,131
417,380,170,171,66,74,104,135
510,396,169,186,60,71,104,155
524,366,156,157,58,62,86,159
511,278,152,146,56,58,82,164
517,341,202,170,58,67,103,186
624,335,200,175,66,80,123,205
559,332,204,163,60,77,117,189
567,363,204,154,57,75,122,200
595,385,206,159,59,80,125,198
629,390,187,147,61,76,116,201
543,389,232,160,60,63,98,195
533,411,242,189,67,68,109,208
543,400,230,192,68,69,114,198
506,374,225,186,65,66,115,197
484,368,236,200,64,64,115,184
443,388,212,218,71,63,106,168
481,393,204,203,78,61,105,154
496,389,207,211,83,59,96,151
524,396,236,241,90,64,98,181
520,359,213,256,88,63,94,173
540,348,199,236,78,62,89,168
537,357,201,237,78,68,107,207
502,380,225,258,76,69,107,209
548,386,214,238,79,69,110,205
557,453,209,223,80,67,115,213
558,460,217,230,81,67,122,209
526,436,215,227,73,58,103,175
525,417,199,205,71,59,107,165
496,476,197,220,67,52,98,143
556,466,203,230,72,61,100,151
623,475,186,218,74,67,108,154
668,503,199,215,74,73,107,162
656,503,198,223,74,72,106,169
672,447,199,205,73,77,110,181
604,375,188,170,65,74,104,164
513,354,186,165,72,79,105,173
525,307,212,186,75,76,107,169
531,299,220,171,76,71,109,171
488,315,217,180,82,79,114,156
570,311,223,185,82,75,113,158
594,304,223,182,70,68,106,153
560,305,192,158,70,69,111,157
538,306,196,157,68,69,108,158
542,274,186,170,59,55,99,153
479,281,176,180,66,61,104,155
517,279,194,200,72,61,116,171
470,290,209,203,70,57,110,155
498,284,210,226,76,62,117,144
485,276,206,216,88,69,125,150
449,269,205,216,87,64,116,140
444,252,193,212,85,59,97,111
453,223,173,202,83,58,92,107
434,226,142,182,80,55,83,105
418,224,148,191,162,51,89,118
540,302,155,177,197,53,91,126
489,319,163,166,222,55,93,129
458,346,168,171,239,59,98,135
475,353,181,156,243,59,103,132
476,353,173,123,193,52,89,119
360,303,168,118,157,53,87,115
378,324,180,128,123,55,88,119
389,300,167,120,88,56,89,119
387,280,157,120,77,67,87,140
367,305,188,129,77,73,84,147
362,323,196,132,75,73,83,154
347,309,215,136,69,71,81,149
331,309,226,148,68,73,86,144
334,316,223,149,74,64,79,144
353,376,218,159,82,70,90,142
358,374,204,153,84,69,90,129
390,384,160,140,82,69,99,139
435,390,151,133,92,90,122,164
455,422,158,149,86,88,132,161
478,363,154,141,75,80,130,155
463,342,176,163,73,82,137,163
435,304,179,163,82,87,133,157
396,301,190,167,68,57,106,136
442,300,235,191,71,63,123,178
434,286,219,185,72,66,121,181
455,342,209,176,72,70,120,179
467,359,246,223,73,68,132,187
494,354,232,224,73,71,132,186
447,347,175,193,67,65,106,134
427,336,178,196,71,66,106,132
402,291,173,186,69,55,102,122
393,267,102,130,67,52,81,106
357,254,102,121,75,58,91,112
373,202,123,135,81,59,99,111
376,245,125,134,78,57,100,111
375,259,140,140,78,58,114,123
387,285,143,139,74,62,135,150
394,283,145,134,65,56,128,160
357,277,136,115,61,57,119,164
433,260,127,107,62,57,125,170
428,223,112,128,67,57,115,161
433,220,131,140,74,59,91,151
425,238,149,158,79,58,93,138
416,271,148,162,78,66,122,142
354,258,182,162,79,65,114,142
350,275,198,145,73,65,111,158
366,270,204,149,73,68,123,165
374,268,203,142,69,72,127,159
370,249,201,144,65,63,104,161
328,243,170,139,61,64,103,150
354,220,151,143,64,65,107,149
311,213,147,126,49,55,98,141
318,244,131,116,49,49,110,152
420,250,135,126,51,49,111,181
432,280,169,138,49,49,121,185
434,288,182,132,58,56,132,180
456,294,170,159,72,61,129,171
466,272,176,198,84,62,118,167
406,248,182,194,89,65,121,135
410,214,170,194,88,62,113,142
396,210,161,198,88,66,105,142
352,258,165,202,94,70,117,141
347,256,162,169,92,76,121,165
362,279,164,167,89,74,111,157
356,279,149,162,92,76,111,146
372,268,139,164,88,68,100,140
388,205,134,123,75,65,97,145
356,210,191,131,65,54,85,106
300,178,181,124,65,56,89,105
297,194,190,128,65,57,90,115
264,204,202,127,74,65,101,125
282,203,196,145,85,65,88,120
361,182,167,144,95,73,100,135
344,176,161,145,98,76,112,133
334,163,178,149,97,76,112,130
336,214,168,140,86,67,100,116
309,207,191,129,72,68,97,117
212,224,191,112,60,61,87,97
221,221,191,108,50,55,76,97
249,215,175,102,48,55,70,97
253,182,204,120,58,56,75,105
261,189,189,107,55,46,82,99
303,172,163,108,55,51,91,101
346,185,173,114,54,52,84,107
343,227,165,108,51,49,85,103
337,222,135,98,40,46,80,91
327,228,123,98,41,49,80,86
309,219,126,106,47,60,79,85
285,224,141,115,52,62,80,81
302,229,163,113,52,62,90,97
308,259,160,113,62,68,102,105
320,263,159,117,60,64,98,122
314,277,167,107,56,49,90,125
301,274,155,94,51,47,91,126
269,274,139,92,54,50,81,115
258,247,166,92,50,50,79,112
269,237,169,90,54,56,88,108
287,233,173,95,58,61,93,115
265,220,167,90,59,64,93,104
318,182,188,112,65,65,95,104
319,166,167,110,64,68,89,100
309,159,170,110,63,64,81,99
316,180,177,123,56,59,76,97
322,212,179,127,61,62,74,99
274,227,153,110,55,60,69,94
299,244,156,108,53,53,70,96
298,263,161,120,55,60,69,81
255,243,161,109,59,61,64,67
257,233,183,111,62,60,67,72
249,239,183,117,68,70,79,83
227,232,174,120,68,68,81,85
243,228,183,123,67,60,78,87
246,236,168,120,68,67,94,90
286,237,137,111,62,72,116,97
331,209,163,115,57,67,120,93
345,210,174,116,56,68,119,106
349,243,160,112,55,71,125,110
363,312,173,123,60,69,119,110
382,353,186,134,63,68,105,122
368,361,165,127,65,70,101,124
360,370,225,156,70,68,95,109
377,359,224,150,68,70,102,119
370,318,210,145,64,66,100,125
380,280,204,141,64,60,90,121
369,271,206,140,63,53,83,119
387,280,128,100,59,56,89,125
368,283,156,109,63,57,92,129
377,266,165,106,64,58,92,128
302,242,169,101,55,52,89,115
302,260,161,98,54,51,89,109
284,297,190,101,54,53,85,110
249,281,165,88,45,47,67,87
249,348,164,90,45,47,65,75
334,389,230,108,50,52,69,91
350,389,234,111,49,56,79,96
357,369,217,109,50,55,83,94
355,384,227,132,54,56,81,93
340,331,227,127,53,56,82,97
263,316,164,121,52,53,84,82
234,306,164,129,50,50,87,93
238,312,166,141,46,48,81,95
269,316,156,124,44,46,87,98
296,324,185,144,47,52,97,100
319,313,172,134,48,53,96,103
326,360,160,126,51,54,88,98
292,326,152,120,53,54,86,95
269,295,158,117,53,58,96,98
240,346,111,88,52,59,103,113
228,369,141,107,51,62,104,117
219,345,173,129,56,64,108,123
255,339,179,131,53,62,114,126
298,360,178,133,56,65,107,136
311,300,176,132,55,60,97,125
296,254,171,120,55,59,101,123
334,266,149,93,49,59,100,122
313,309,149,75,49,59,96,116
280,315,139,75,46,51,99,99
277,319,142,95,49,53,96,95
296,328,144,130,56,54,88,92
246,300,137,140,55,49,81,74
252,286,127,146,62,62,95,80
272,267,126,149,65,63,90,88
258,244,129,138,59,58,83,89
238,233,123,122,52,56,90,90
240,217,120,109,51,56,93,97
267,190,132,105,48,49,88,108
241,190,183,132,50,49,80,106
246,266,181,134,52,54,83,103
288,273,169,131,54,59,94,103
295,279,175,141,60,71,106,105
260,278,169,142,54,65,96,89
265,266,120,119,54,68,101,82
264,223,126,136,55,67,100,87
231,219,122,129,59,64,88,86
244,218,147,123,57,55,74,77
284,234,143,120,57,56,79,84
277,236,150,123,60,63,83,88
267,216,180,128,62,66,82,84
255,238,205,140,59,65,88,77
260,250,188,147,61,63,87,77
233,255,192,155,64,67,97,84
258,255,192,154,62,57,89,84
262,265,162,134,57,50,88,86
288,248,144,128,55,46,78,86
278,235,135,129,52,54,92,89
278,229,129,125,56,48,85,86
294,243,123,132,57,50,88,89
308,237,136,161,67,54,95,98
297,236,131,154,69,54,94,103
292,238,139,157,75,58,84,111
302,225,148,162,73,59,78,122
268,230,141,147,70,57,84,125
268,227,135,150,66,55,91,126
257,214,152,175,68,58,106,127
269,211,160,175,73,53,110,126
241,239,159,171,73,54,112,112
231,229,160,176,73,59,114,107
229,225,155,153,69,59,106,94
247,262,137,137,67,54,93,89
252,260,131,131,51,48,82,77
260,232,167,138,49,49,86,72
292,275,169,138,49,41,91,83
303,346,170,130,50,48,94,94
281,329,171,130,53,54,97,93
300,338,194,141,69,56,100,124
346,348,157,128,70,56,100,138
358,319,154,136,70,56,86,135
343,260,202,169,68,53,85,131
367,245,200,160,62,55,96,138
344,238,171,146,45,56,100,118
325,235,216,164,44,56,100,108
322,235,220,158,43,58,103,106
320,203,173,129,47,62,105,107
298,216,175,158,60,64,95,101
276,221,191,181,62,60,85,87
292,211,141,174,65,55,77,92
253,191,139,178,64,52,72,87
281,219,168,180,69,47,67,90
278,225,185,162,64,40,66,94
299,219,185,141,66,46,77,106
268,233,187,130,65,50,81,101
266,256,207,130,66,52,91,113
245,255,185,126,61,53,89,108
248,262,162,121,57,51,85,101
251,265,142,111,59,60,101,118
271,250,139,117,62,63,105,128
262,254,110,112,60,62,97,116
257,252,122,120,62,63,101,116
273,244,155,124,79,74,112,122
286,245,158,128,77,67,93,93
270,240,162,121,73,62,95,77
284,264,166,116,74,62,97,86
306,279,191,154,76,66,98,86
287,272,174,160,59,57,86,75
289,279,179,175,68,60,89,93
305,276,177,181,68,62,82,104
315,247,168,186,66,62,83,104
326,210,142,156,65,54,82,110
362,214,146,149,64,56,94,119
340,280,158,141,54,52,90,108
336,282,159,146,54,49,85,92
319,261,156,136,57,50,86,85
286,258,170,140,52,54,84,80
305,253,160,132,53,50,66,80
323,257,161,129,47,53,73,81
290,271,167,135,56,58,87,90
327,346,212,179,58,62,99,113
339,373,204,178,71,71,106,123
292,368,213,179,73,72,109,122
308,319,231,188,75,67,117,128
389,361,285,215,74,68,118,155
369,316,258,186,71,70,126,148
443,306,250,179,59,60,134,153
467,331,253,189,57,63,141,184
491,369,230,186,65,71,137,199
494,338,156,153,67,73,135,197
508,327,163,160,67,78,129,197
482,324,177,176,70,78,114,196
466,363,192,184,75,81,120,179
432,333,184,171,69,77,115,170
397,336,205,181,64,74,117,152
420,369,228,184,64,62,106,171
392,392,224,171,62,60,106,163
443,347,197,150,57,60,102,164
475,332,219,169,53,56,98,169
516,321,209,155,57,54,96,187
565,285,182,142,56,62,122,186
550,243,184,138,56,63,129,184
544,235,224,141,53,60,126,172
554,265,209,113,58,76,147,193
522,296,217,125,54,78,144,178
520,307,222,133,58,72,126,161
529,306,225,142,59,74,132,178
539,332,193,147,63,74,127,182
573,321,203,153,62,63,112,191
566,323,214,170,68,62,111,191
500,346,212,169,69,68,108,192
502,364,221,180,78,65,102,185
511,355,218,184,84,65,108,188
415,365,204,192,86,62,101,143
446,336,189,177,83,60,114,152
516,301,184,192,82,57,125,151
555,288,185,193,81,59,121,148
507,267,190,189,71,60,111,143
535,226,192,176,65,58,106,139
528,231,185,169,62,55,92,137
461,298,217,187,64,56,82,143
407,282,199,187,55,56,86,147
396,285,193,184,55,53,88,141
384,326,202,193,62,57,103,151
369,348,193,187,62,59,115,144
415,288,153,146,58,58,123,154
445,306,155,117,64,70,132,151
478,300,153,117,68,72,138,164
471,308,153,122,60,69,130,153
488,294,158,130,64,76,130,170
435,296,157,138,62,72,120,149
402,282,156,161,84,61,105,145
420,291,150,175,82,58,100,133
452,251,145,184,91,63,104,140
411,222,134,180,97,60,92,109
475,236,146,185,101,70,107,138
509,252,144,201,83,69,112,160
490,249,160,201,85,69,113,163
479,262,159,196,77,66,109,165
514,270,164,203,73,66,114,177
507,294,218,204,78,66,115,179
495,282,217,170,74,64,109,162
508,296,209,160,74,63,109,167
524,306,208,142,74,65,126,168
526,332,204,126,69,59,121,168
473,317,159,122,64,53,107,147
455,328,156,133,72,63,117,148
464,312,165,124,73,63,115,141
408,274,181,141,81,65,124,130
355,252,190,142,81,72,129,112
432,236,219,136,75,72,149,140
468,230,218,130,68,64,147,142
434,229,216,153,68,65,147,138
440,236,204,155,73,60,126,141
442,236,195,155,75,53,123,147
407,230,151,161,78,47,105,125
364,225,157,161,79,49,94,115
371,253,163,145,74,47,92,119
410,295,161,138,64,45,90,127
414,289,158,134,61,48,88,122
378,289,163,145,63,52,93,116
415,322,186,168,60,55,98,115
457,320,178,172,63,59,108,135
424,280,177,174,62,66,110,124
469,293,183,177,66,68,120,134
494,324,173,158,64,67,112,133
546,286,158,134,66,66,113,178
516,267,148,140,78,63,108,171
516,273,150,148,83,60,108,178
488,272,163,163,79,58,99,202
479,274,157,199,92,60,104,208
449,273,147,201,90,58,103,176
491,287,161,190,80,62,105,171
491,286,163,188,74,68,113,182
533,260,166,192,77,69,113,151
530,223,166,171,67,71,104,156
462,229,182,176,74,81,113,152
462,217,189,174,70,78,117,176
476,216,184,157,66,71,107,169
406,237,171,136,63,69,106,164
415,236,167,130,55,65,110,155
413,266,149,144,46,50,96,156
343,253,154,179,50,52,91,137
333,260,164,188,54,51,87,123
342,290,174,191,56,49,95,127
352,300,177,178,56,49,92,123
400,299,195,161,58,62,111,137
429,304,179,129,58,60,114,143
456,327,178,143,58,60,116,173
473,369,164,151,65,64,112,183
449,374,162,153,68,62,112,185
434,354,129,142,65,57,108,194
399,358,122,135,68,56,96,181
403,340,140,188,67,62,102,169
430,313,228,221,67,62,103,173
447,297,225,230,64,63,97,178
440,324,232,235,63,57,84,163
496,316,244,256,62,57,88,166
465,335,245,218,76,52,85,155
418,284,194,211,68,54,102,140
473,310,198,220,70,55,105,142
470,306,193,220,72,55,104,137
399,311,190,205,74,79,137,139
427,291,159,195,63,80,136,156
412,282,166,177,63,74,120,147
330,295,170,156,61,70,118,130
343,272,170,160,62,74,126,141
348,262,165,151,60,49,89,136
307,241,163,157,51,46,86,118
340,294,127,141,52,50,92,128
342,247,120,140,51,54,96,130
307,241,118,136,48,48,86,112
321,245,115,129,47,49,85,111
341,263,183,203,49,48,80,112
369,237,181,199,50,47,81,110
399,245,187,195,51,45,80,118
405,274,188,191,52,47,89,117
412,291,186,193,49,46,116,119
430,285,120,99,52,54,133,121
379,267,123,102,47,55,139,113
322,272,110,120,52,54,137,99
327,241,115,132,65,59,136,95
292,240,119,131,71,64,115,87
276,243,133,135,68,63,105,77
263,238,132,144,71,60,89,76
285,220,136,138,72,59,87,73
285,203,137,143,70,58,94,99
318,245,134,142,68,53,96,101
295,244,122,132,70,48,88,104
330,243,121,133,71,50,89,113
325,235,108,132,67,49,92,115
313,237,98,126,58,43,83,98
315,171,92,140,55,37,79,99
323,201,93,160,57,37,87,101
304,193,78,146,53,37,86,90
362,199,90,148,52,39,87,102
359,199,99,150,56,40,79,101
332,197,98,144,60,43,73,107
339,182,97,122,55,45,62,99
340,235,102,144,55,48,66,100
300,228,95,143,59,51,73,94
319,234,99,142,58,51,78,90
344,273,106,138,57,51,81,74
310,261,128,152,58,52,94,83
361,237,124,131,61,47,98,95
340,251,123,128,56,45,91,90
324,261,111,118,52,48,88,93
293,242,114,125,50,58,102,96
292,248,110,138,57,55,89,87
241,223,116,139,55,60,92,70
221,240,138,154,53,135,89,68
224,234,140,154,52,160,92,71
250,226,150,172,59,168,75,78
253,206,158,165,57,171,75,80
246,240,158,167,56,173,61,83
250,234,140,155,58,123,62,99
242,227,190,213,58,87,56,99
242,212,179,230,55,65,66,94
275,247,171,230,51,63,74,105
261,217,184,240,49,54,78,101
287,212,186,242,57,59,86,93
324,247,138,195,55,57,89,91
312,268,155,157,53,56,87,90
290,256,138,151,54,51,84,83
289,279,119,137,64,61,89,97
347,326,139,143,60,59,92,106
334,324,146,148,62,62,97,112
340,320,134,155,58,59,91,123
330,304,134,147,56,59,87,119
368,293,141,147,50,54,83,113
303,249,114,132,48,52,70,98
297,225,116,123,52,56,91,107
313,214,108,105,56,58,95,100
324,220,114,111,58,65,100,107
277,217,135,136,53,60,97,117
289,193,139,151,70,70,114,126
276,196,133,154,71,70,100,112
269,207,134,161,70,68,99,110
257,200,129,158,70,61,98,104
259,186,89,130,69,59,95,85
235,181,115,122,49,45,77,72
346,189,124,126,43,43,84,146
351,190,119,121,42,45,84,150
356,197,127,124,40,49,92,149
362,206,137,123,42,48,94,154
383,213,127,124,50,48,95,158
286,207,114,126,52,44,79,100
281,231,122,120,50,45,82,94
297,245,114,114,53,47,78,98
339,254,126,121,55,48,80,101
349,280,111,110,49,48,84,97
389,280,109,97,54,55,91,116
365,250,109,98,54,54,87,114
339,236,109,111,54,49,75,109
318,222,112,125,53,50,72,104
392,213,114,122,53,52,66,113
372,199,115,120,45,46,74,107
381,211,108,122,47,45,80,111
388,213,121,114,49,46,87,112
409,283,105,99,52,46,88,118
314,278,108,108,52,44,87,106
301,294,113,115,54,41,72,87
304,324,113,117,52,44,76,87
307,325,107,125,48,47,73,87
371,274,113,125,44,56,87,92
406,269,114,135,49,60,93,100
392,270,114,135,51,66,104,109
399,213,114,140,53,64,97,105
454,250,135,148,53,69,121,121
361,279,122,145,51,60,112,110
331,277,137,131,47,58,112,117
367,296,134,129,44,53,105,124
384,301,138,141,44,51,114,131
313,317,111,125,48,62,89,122
301,285,117,138,50,64,87,121
344,280,97,147,50,65,81,117
334,259,94,159,52,66,79,107
293,259,86,146,53,71,70,98
296,216,108,180,49,58,75,90
353,234,126,180,53,58,81,103
300,229,124,168,54,60,80,98
290,212,126,158,50,59,79,90
334,235,135,164,52,56,80,100
339,210,123,129,52,51,78,110
314,208,97,109,49,51,71,105
359,234,97,109,51,49,75,109
349,247,99,111,51,46,76,112
325,266,95,103,47,41,70,104
318,279,96,103,50,40,62,92
294,277,101,103,46,40,71,85
227,266,106,130,46,42,73,81
223,250,109,150,51,40,72,79
250,224,104,148,53,46,84,88
251,231,122,151,49,49,84,90
274,235,117,151,48,47,76,102
284,215,118,145,46,86,91,96
299,230,111,131,42,96,96,102
290,231,120,133,44,103,91,113
320,225,131,136,46,111,97,123
329,219,136,153,48,112,102,116
330,251,134,145,51,97,87,114
348,238,157,138,56,93,85,114
348,237,166,149,56,87,92,119
330,230,149,150,63,78,84,126
325,258,161,144,72,80,82,134
358,273,166,161,84,70,93,146
365,275,162,173,82,63,91,165
433,285,168,184,87,60,92,158
461,284,176,188,82,62,101,149
524,332,198,227,90,67,110,175
543,377,215,250,82,68,114,179
568,383,223,251,83,69,118,166
543,379,213,260,75,69,125,182
590,481,215,260,85,73,133,202
603,462,225,247,80,72,139,192
668,438,206,217,94,85,152,216
787,521,201,234,102,90,168,283
809,563,199,215,117,108,188,312
823,521,214,215,117,110,188,345
825,512,203,212,117,109,181,347
810,515,202,204,107,98,171,342
723,474,185,171,101,99,171,298
718,439,218,187,83,79,147,293
687,406,242,218,78,76,163,277
644,427,242,222,76,79,164,274
626,412,256,230,73,79,156,260
663,385,278,238,87,89,162,278
641,420,266,241,91,92,166,242
643,458,245,267,97,99,150,214
689,419,248,276,108,105,152,220
677,531,253,298,124,111,159,262
693,514,236,304,121,103,142,263
764,492,238,312,133,118,180,360
778,480,293,292,129,121,204,424
883,503,287,285,125,122,217,435
952,407,289,260,107,116,218,457
955,473,291,290,125,122,233,456
919,540,288,323,121,113,214,422
968,616,242,345,153,109,201,414
887,628,230,373,159,116,230,453
817,627,209,371,162,125,251,458
798,590,213,368,158,133,261,480
860,540,247,354,158,130,254,490
825,484,284,316,141,132,258,469
804,477,284,266,129,122,235,454
806,501,287,277,135,129,236,417
778,604,302,248,137,121,223,391
701,614,270,245,144,121,218,340
667,572,195,226,133,119,204,320
692,581,198,226,128,113,187,285
811,563,200,273,142,93,153,327
833,562,173,274,127,80,125,324
820,561,157,228,105,71,122,314
860,630,173,242,106,67,116,306
825,630,168,255,109,74,120,306
694,609,172,208,90,79,120,253
661,515,165,189,101,96,147,253
665,522,182,236,106,102,152,260
637,458,182,248,110,104,175,283
594,426,169,241,107,105,176,256
735,464,207,274,101,106,185,281
774,495,203,277,81,90,165,260
756,448,197,254,83,89,161,258
750,421,197,243,73,81,150,225
768,493,215,237,80,83,148,242
599,473,176,178,75,78,133,185
541,428,177,169,75,87,137,187
526,441,171,178,68,87,135,204
480,447,169,179,68,84,113,201
525,404,147,171,57,74,103,196
582,380,147,166,60,73,102,217
698,468,198,175,67,65,104,259
783,518,221,159,67,61,111,259
796,519,214,144,76,71,118,264
766,504,217,144,80,74,121,255
763,516,215,165,83,81,143,253
653,457,198,192,78,78,148,214
641,382,172,187,81,81,146,225
604,392,177,188,74,75,149,211
572,389,179,191,76,77,154,205
517,366,197,184,70,69,135,200
463,335,171,159,70,71,123,187
375,346,220,162,66,70,116,153
450,345,228,152,64,67,108,167
491,334,222,147,61,65,99,164
501,331,228,170,62,63,100,151
532,441,252,177,76,65,100,156
541,437,207,188,78,59,100,165
508,411,194,223,97,71,115,156
540,402,211,231,104,96,157,206
551,459,187,210,104,99,156,217
538,384,197,202,98,102,165,227
501,380,198,193,108,108,166,217
514,401,211,169,93,101,157,207
482,411,242,185,92,81,122,162
522,362,272,230,95,84,145,176
577,397,242,242,98,78,133,184
577,389,245,239,87,70,135,184
572,382,269,238,83,67,128,184
541,418,244,219,73,63,125,189
509,412,206,199,78,58,102,169
441,379,214,181,72,57,107,139
465,413,226,179,72,59,109,136
398,422,212,171,74,68,126,135
434,380,206,176,75,73,134,147
389,384,220,152,63,70,124,131
352,366,231,158,63,71,136,132
308,321,215,159,61,72,141,143
332,279,192,168,54,64,135,141
327,262,234,196,54,54,126,130
401,277,269,219,65,70,169,173
464,294,253,212,66,70,163,190
546,301,266,217,76,88,207,239
607,383,309,228,80,90,211,281
603,433,294,223,82,97,213,279
604,505,266,214,80,87,182,265
603,494,281,219,81,90,179,263
538,536,279,218,78,73,130,231
510,522,229,195,79,78,120,188
549,493,248,187,82,72,125,190
576,470,237,173,76,70,130,186
537,471,219,168,74,62,127,176
588,424,248,164,72,57,116,168
618,411,251,169,71,52,112,157
570,436,213,155,63,47,93,144
556,384,247,157,61,54,93,132
582,411,239,152,60,60,106,131
528,413,208,135,54,65,105,118
439,386,276,175,57,66,109,108
458,331,269,191,65,69,115,118
386,313,236,203,68,60,106,118
381,291,255,225,85,72,111,111
416,325,245,239,91,70,108,122
436,342,165,263,118,71,107,125
446,347,197,266,118,70,102,135
557,378,196,256,121,77,114,163
538,355,169,240,116,70,112,172
510,330,168,230,115,69,112,161
522,319,225,206,86,68,132,169
519,341,201,183,79,66,139,162
420,312,204,195,79,65,133,139
524,322,236,233,78,60,131,148
604,365,243,232,74,60,135,161
596,404,205,208,82,61,116,156
598,414,201,217,84,63,110,155
621,409,196,199,81,62,122,152
531,397,161,149,69,60,114,134
435,362,161,151,66,59,106,113
445,337,159,143,55,56,100,102
412,287,155,140,51,54,101,90
335,275,156,145,50,52,88,84
337,309,172,162,52,49,85,87
347,330,161,165,63,55,90,95
310,289,137,155,65,55,89,104
301,312,145,145,71,57,85,105
316,316,158,150,71,55,80,107
298,278,139,131,76,57,81,104
267,269,141,128,80,56,86,134
257,294,145,149,85,60,105,134
314,316,135,146,92,70,127,142
341,331,115,130,90,69,126,150
363,355,128,133,88,76,133,164
372,328,138,160,83,79,129,135
407,340,128,146,74,79,133,134
359,320,139,158,61,71,112,125
330,333,151,178,62,73,114,118
346,365,159,213,63,65,108,100
369,408,150,200,62,64,113,113
350,395,151,196,68,59,98,120
367,402,140,189,63,56,100,121
415,380,131,178,66,59,107,129
393,340,116,142,64,56,100,130
370,303,126,136,60,60,104,123
415,296,123,146,60,70,115,123
411,275,123,167,65,75,126,124
347,262,126,163,66,71,123,108
356,267,124,193,73,80,130,102
357,248,116,204,82,76,125,104
311,267,130,255,82,64,110,93
293,282,137,272,86,59,97,89
315,363,136,276,83,57,94,96
306,346,125,249,79,46,82,98
312,393,143,259,69,44,78,92
355,439,156,208,72,50,89,104
372,452,153,159,65,67,115,111
374,431,151,153,67,72,123,108
386,455,160,172,67,73,126,105
376,419,157,145,67,72,128,101
332,379,133,139,65,72,130,93
330,373,125,136,67,72,141,96
308,354,119,133,63,68,137,95
293,332,143,112,59,67,140,103
348,394,140,98,55,67,139,135
321,402,153,108,55,68,134,130
319,380,168,125,58,51,100,126
337,351,171,126,63,50,92,129
312,343,153,126,62,50,91,132
292,305,155,142,65,60,107,120
345,294,148,176,74,60,119,131
333,292,134,170,68,64,125,131
314,313,150,191,74,64,122,124
333,313,147,199,82,64,120,124
287,268,131,195,81,55,108,106
236,286,155,178,80,58,95,93
271,299,162,188,83,54,82,93
316,308,148,172,75,58,84,104
322,345,144,169,69,60,88,105
338,362,142,162,73,58,80,108
344,330,110,150,68,53,80,109
312,321,114,137,64,55,93,109
376,335,126,159,64,60,109,120
367,337,124,156,65,60,109,108
364,334,128,152,58,61,105,101
401,346,141,148,51,57,106,109
413,391,151,182,62,55,100,111
324,362,137,162,65,47,83,87
317,333,142,155,63,45,74,90
334,335,139,185,70,45,82,94
318,399,124,184,76,53,83,79
333,378,110,147,70,57,81,78
340,392,124,157,83,57,84,80
381,385,153,179,86,57,86,81
379,375,152,152,85,58,82,80
363,295,155,151,89,58,79,102
351,268,165,171,90,57,82,106
407,321,164,164,85,58,83,117
385,340,135,145,83,55,80,114
362,360,163,168,84,53,86,112
364,361,164,174,80,48,79,100
386,372,162,152,77,50,78,104
329,338,175,159,66,47,74,94
340,327,176,159,65,50,78,97
391,343,157,147,67,55,79,103
378,364,167,192,66,56,90,100
364,357,150,193,67,56,94,93
394,346,131,197,68,55,95,100
365,333,129,205,71,59,99,102
312,358,165,207,68,66,114,107
311,323,154,152,59,63,107,105
316,322,158,156,58,58,102,100
258,313,167,144,62,59,101,91
348,392,179,135,64,60,108,137
358,329,139,124,59,52,93,129
386,347,146,157,70,57,93,132
356,341,162,173,73,56,92,131
364,339,146,178,75,58,94,137
300,253,129,180,83,62,87,97
347,272,135,177,86,65,109,117
345,267,124,157,80,64,113,123
351,252,108,173,77,64,115,124
335,236,108,159,70,64,116,118
344,222,103,193,82,60,118,115
291,212,101,220,105,57,91,91
229,185,119,228,106,59,86,80
238,192,116,232,110,73,99,79
267,215,121,251,115,71,93,80
306,222,148,240,99,68,93,83
307,221,152,220,73,64,90,86
316,231,138,214,72,63,96,92
316,234,155,203,74,49,83,91
367,356,179,188,73,59,100,108
323,393,165,160,70,57,93,106
350,410,178,149,69,58,95,109
349,425,183,137,65,59,91,103
343,431,163,108,60,57,93,101
277,337,138,120,57,52,84,82
255,291,141,129,61,51,86,76
291,260,116,131,64,50,87,91
312,219,111,183,80,50,106,99
315,204,110,187,78,54,122,111
310,180,104,175,75,53,123,115
351,180,104,241,108,61,124,140
280,196,125,269,126,61,122,130
282,186,124,237,121,58,108,130
293,204,127,251,130,59,89,130
295,224,150,276,145,71,98,134
269,256,150,316,134,76,115,121
271,271,140,320,119,79,129,120
263,299,156,335,114,81,124,114
286,309,175,323,104,78,119,107
287,296,157,299,79,66,107,100
296,262,148,205,58,55,89,90
305,222,143,168,48,48,80,95
305,202,149,143,49,47,80,93
296,186,134,174,55,45,86,91
310,208,140,179,63,48,93,91
297,208,152,166,58,43,92,81
287,225,165,163,66,46,86,73
278,230,156,162,82,53,94,76
248,217,142,151,91,64,118,74
232,255,139,164,93,61,117,73
210,268,130,194,104,61,111,73
235,305,111,205,106,63,112,76
244,316,93,201,96,63,117,86
278,311,96,186,87,61,92,96
272,282,103,176,82,59,82,91
277,270,101,151,70,61,86,95
294,231,116,134,68,61,85,91
316,219,118,146,74,62,80,85
283,232,120,147,71,57,81,74
302,238,109,149,74,60,84,79
306,238,111,166,78,62,89,83
272,236,104,169,77,66,100,84
270,239,100,156,74,61,94,87
284,250,98,145,71,60,90,85
266,234,117,138,67,58,97,86
255,255,121,105,64,62,98,80
328,277,107,102,58,56,87,96
361,277,114,102,56,55,87,105
379,283,126,111,56,56,90,108
384,304,113,114,59,62,87,106
420,289,103,111,56,55,78,107
366,263,106,122,54,53,77,88
308,236,104,135,63,53,77,81
284,225,98,164,73,58,75,81
277,183,92,163,75,59,82,93
218,183,111,182,78,61,82,90
211,187,107,171,78,63,81,92
246,192,107,162,72,61,75,86
242,216,119,141,63,54,76,83
284,246,121,137,58,45,61,73
321,255,113,167,63,42,65,80
336,264,117,161,61,38,62,77
337,294,145,165,61,46,73,75
349,258,141,154,57,52,92,96
330,225,141,165,60,62,111,112
302,205,139,150,60,63,110,109
280,213,144,156,61,63,115,114
246,202,131,193,65,64,116,120
231,229,115,205,66,57,101,109
209,248,130,198,65,45,80,91
227,268,123,172,57,46,78,86
232,255,138,167,58,46,75,85
268,240,125,124,64,50,78,82
279,238,125,102,62,49,80,77
269,222,110,104,64,52,82,75
284,226,142,112,63,52,81,79
286,233,136,178,75,54,79,79
238,243,143,209,92,53,75,74
228,220,144,226,101,59,76,81
262,227,156,230,102,63,81,92
217,203,129,229,106,67,88,89
216,203,146,198,99,66,90,86
224,181,135,167,76,60,85,86
241,183,145,145,67,58,85,83
216,214,134,130,60,53,86,74
233,234,145,180,74,61,96,84
248,222,132,186,76,64,102,82
237,222,143,186,76,61,97,78
205,228,132,194,77,57,90,73
214,208,144,203,79,59,97,79
219,189,134,156,61,46,84,69
222,202,120,136,57,44,75,70
257,222,125,130,57,46,84,76
284,248,136,117,55,52,102,91
274,236,134,106,53,49,88,91
257,235,140,137,58,48,85,90
254,238,141,153,72,50,86,95
240,228,127,182,81,51,85,98
204,183,126,186,85,48,81,90
208,176,114,195,91,50,86,83
215,170,108,180,92,51,84,80
212,164,102,177,88,51,84,79
199,144,128,155,81,53,87,73
203,147,125,169,85,53,72,66
231,158,130,175,79,51,76,76
224,168,145,169,72,48,79,78
209,157,153,157,61,47,83,83
234,180,138,150,59,41,81,92
234,184,129,135,56,44,94,92
202,182,129,121,59,46,93,87
238,216,146,137,65,52,90,94
253,240,136,133,68,51,88,94
257,253,132,129,65,51,80,92
290,268,138,121,53,50,71,93
296,281,133,122,48,45,62,89
333,276,103,117,48,44,86,111
325,261,101,112,43,45,90,106
323,246,109,111,47,46,93,102
297,239,146,152,57,44,91,102
308,241,150,176,72,66,116,115
243,221,140,190,79,77,114,92
247,208,164,203,85,88,124,100
234,233,160,219,85,89,124,97
271,249,133,218,103,94,144,125
253,235,129,215,105,85,132,120
244,282,143,211,100,74,119,116
244,286,124,205,101,66,103,108
228,264,131,201,104,64,108,111
191,250,142,180,86,61,83,76
200,255,147,153,71,58,76,71
252,199,142,128,72,64,83,74
253,190,142,148,71,64,94,80
253,176,148,148,67,65,93,77
275,269,131,140,60,58,87,85
345,280,122,144,63,64,102,95
308,283,134,167,61,55,98,92
325,292,131,166,55,51,87,100
320,297,111,160,53,48,82,96
307,250,107,158,56,53,90,96
219,247,105,154,54,45,78,85
246,248,100,127,52,50,99,102
270,257,98,95,50,49,103,95
292,263,103,83,52,52,104,101
325,236,121,96,52,52,107,107
331,252,137,98,50,52,106,108
318,246,122,109,48,49,86,93
310,233,132,174,58,53,88,102
300,256,130,189,70,58,91,105
280,306,133,222,87,67,90,101
292,284,116,222,88,66,86,107
296,291,130,278,99,71,85,109
288,327,122,251,99,71,91,105
279,308,120,238,94,71,92,106
293,270,102,211,78,60,87,102
290,289,121,228,83,61,93,96
277,284,126,154,70,54,92,95
236,282,126,149,62,48,85,82
264,286,138,158,53,46,92,85
230,334,173,151,58,44,93,88
218,312,177,128,52,43,87,89
230,311,163,123,51,42,88,85
235,281,161,113,54,51,94,93
249,316,155,102,55,48,84,89
246,260,123,100,49,44,82,87
250,298,120,110,47,47,86,86
242,294,133,114,48,51,89,85
283,320,134,120,53,45,80,90
266,282,148,140,53,46,76,88
273,283,165,149,50,49,67,84
256,245,170,140,51,47,66,77
264,250,168,154,69,50,64,82
221,205,175,166,75,52,61,71
231,218,197,184,83,53,66,74
217,207,189,186,89,58,81,75
233,218,178,192,92,65,92,82
237,238,170,174,78,61,96,83
247,261,174,180,73,60,98,86
235,259,153,155,66,59,96,80
279,282,154,155,61,57,98,91
262,269,156,162,69,54,95,93
262,250,161,172,74,55,94,99
261,223,147,172,76,54,97,99
238,206,134,171,81,55,98,96
189,163,120,175,85,52,90,87
237,169,113,184,86,47,78,83
280,174,107,191,87,46,73,80
302,202,119,175,83,46,69,92
316,195,108,171,79,45,65,97
313,218,100,158,76,44,54,92
322,244,110,151,66,53,72,99
291,235,111,139,59,53,77,102
275,224,106,133,55,57,89,90
334,290,116,128,51,55,94,97
328,310,136,127,46,55,92,100
321,322,132,104,42,46,82,98
354,363,129,93,46,51,80,102
349,365,135,99,49,48,73,100
299,354,136,111,57,52,77,96
331,344,136,114,69,60,87,106
332,323,143,128,76,65,96,108
325,346,144,136,76,61,95,98
328,362,147,143,73,57,90,104
314,335,145,136,69,59,89,99
287,329,139,140,65,64,96,96
259,324,131,136,56,58,84,87
212,248,137,132,54,57,82,82
259,243,125,136,56,57,81,79
298,237,124,141,52,53,79,86
303,209,113,131,45,38,65,76
314,206,117,128,50,37,71,87
321,254,154,144,59,39,72,87
330,271,173,136,59,40,78,112
309,283,170,129,59,40,74,105
344,293,169,127,60,49,80,111
398,358,172,118,60,58,90,120
391,337,136,101,54,59,94,129
382,335,141,116,61,67,101,115
392,359,147,127,66,68,107,122
403,362,145,127,71,65,105,134
380,352,157,135,74,67,105,134
391,345,156,131,72,68,101,129
380,343,141,134,68,58,92,134
386,304,140,138,71,64,96,136
339,305,151,146,69,63,95,120
290,235,143,138,61,54,83,109
281,239,158,140,62,53,84,104
250,210,163,136,61,53,80,86
260,238,168,125,56,46,69,93
274,232,158,113,50,43,63,103
293,238,146,112,51,43,61,101
307,252,132,113,57,45,59,107
378,331,129,102,53,46,61,112
386,426,135,111,51,46,63,105
416,485,154,127,53,50,77,119
419,502,193,148,57,55,84,121
441,553,194,148,55,57,90,136
457,526,186,155,56,58,89,139
458,474,186,155,59,59,98,152
429,416,170,148,58,58,91,137
422,401,151,140,58,60,93,139
443,385,190,155,55,59,95,128
374,388,188,150,54,60,105,127
358,403,178,141,54,62,101,117
392,446,212,168,57,65,112,123
392,454,193,162,57,61,117,129
355,464,157,146,61,66,128,139
385,442,174,151,64,65,127,141
407,418,213,179,66,73,137,142
401,407,196,161,62,70,130,136
410,405,199,167,62,68,122,141
450,350,194,165,63,72,125,146
467,413,188,155,66,78,127,147
442,402,180,130,62,68,118,159
430,410,162,118,66,77,124,166
478,432,226,159,63,79,141,169
499,425,244,183,59,69,132,175
510,361,247,185,59,65,128,172
508,352,223,182,58,75,145,154
575,297,234,189,55,68,147,156
555,269,199,169,55,65,132,149
571,264,208,168,52,68,130,139
556,276,261,215,53,68,133,137
566,319,260,215,56,58,111,147
524,321,282,228,57,61,113,148
520,320,266,222,57,67,118,146
455,361,327,255,66,82,148,154
430,369,291,223,67,91,156,168
548,389,317,234,68,90,162,181
562,410,313,230,69,87,163,185
569,470,325,231,73,91,171,207
599,489,252,187,69,80,156,198
622,481,235,176,66,78,156,217
604,501,288,203,64,80,164,236
665,509,301,205,83,106,194,253
699,478,287,196,83,102,187,242
715,450,280,181,81,101,188,252
714,445,286,193,84,99,184,229
693,404,218,181,92,103,175,207
613,400,279,239,75,79,137,190
561,363,286,239,75,86,148,210
554,323,291,242,80,91,135,225
585,352,311,248,75,88,128,255
564,346,333,247,69,84,132,252
627,331,250,176,70,81,128,276
631,337,240,175,67,73,114,271
615,399,257,179,64,65,129,254
631,390,259,208,68,64,140,245
607,370,232,200,65,62,135,241
603,397,255,208,71,75,147,213
651,456,258,216,75,84,174,246
660,434,248,228,72,83,159,252
625,443,271,236,69,82,159,241
666,483,254,230,71,82,187,271
634,446,236,230,68,80,189,296
597,409,288,254,73,74,170,264
599,398,352,305,72,72,171,248
573,379,317,274,75,78,174,244
538,357,319,272,73,75,142,216
486,420,333,275,80,71,140,180
541,406,310,260,77,70,134,170
508,417,241,195,81,74,136,199
580,447,246,193,85,87,168,214
553,475,297,246,90,91,183,236
581,432,323,279,85,96,190,249
497,445,312,276,83,94,192,241
579,464,298,267,82,95,207,240
535,461,374,339,80,92,223,283
673,423,353,308,75,93,236,293
708,470,406,312,70,90,232,315
806,457,403,305,76,100,256,373
757,419,411,309,75,99,282,369
747,387,343,237,69,88,247,331
729,416,330,226,75,94,249,342
705,376,214,159,74,91,253,316
648,411,209,159,76,98,265,286
633,433,259,174,80,120,308,299
643,475,301,178,84,126,324,304
542,452,300,179,81,124,331,258
657,500,308,181,89,144,350,303
605,496,322,195,80,134,325,269
628,485,305,194,78,116,250,248
605,463,296,185,75,116,283,250
672,465,290,184,81,121,280,278
579,405,277,185,72,98,260,249
602,378,264,186,90,116,285,287
584,372,242,175,89,112,286,284
613,374,213,176,89,110,249,273
603,371,233,174,83,106,228,253
573,366,231,181,88,108,216,228
563,428,244,168,66,84,176,186
593,442,263,172,70,90,175,201
605,434,261,184,70,85,149,243
599,454,244,197,76,80,140,255
596,457,255,211,70,83,141,249
585,408,230,206,69,82,137,246
608,442,192,195,65,77,139,251
584,436,190,201,66,77,140,212
591,414,264,252,57,71,133,222
614,408,253,235,56,63,119,233
635,389,263,244,58,63,114,228
577,354,263,254,55,61,100,208
590,341,267,259,54,62,99,217
513,304,205,194,51,57,95,183
498,303,203,201,51,58,109,172
489,294,192,190,55,66,132,180
483,248,187,174,58,69,133,179
429,235,193,143,55,65,128,158
410,242,220,163,63,67,124,142
407,250,222,153,72,70,119,143
387,236,227,149,68,69,112,126
372,243,253,145,67,67,108,113
395,234,244,158,70,67,123,131
390,230,207,147,67,68,120,139
341,222,210,161,60,62,112,122
318,224,210,160,61,58,105,122
395,256,241,186,62,63,128,158
353,277,225,164,58,60,110,139
371,287,228,165,55,68,132,148
369,292,229,152,49,63,132,150
365,304,227,152,49,61,131,152
290,290,165,125,49,60,116,125
379,292,162,130,53,62,120,147
395,293,156,116,53,53,103,144
385,268,176,151,59,59,105,159
401,259,189,164,53,53,94,161
397,230,198,219,71,62,91,157
326,233,205,237,92,72,95,156
289,211,204,239,91,72,93,141
321,234,185,228,91,71,86,129
310,244,169,218,94,76,98,137
291,257,160,165,82,70,90,138
321,294,143,137,72,63,81,119
326,295,150,137,77,69,89,122
336,308,138,129,75,68,91,127
438,338,160,151,76,70,86,125
483,353,170,167,79,65,94,129
458,340,186,162,62,59,95,133
478,370,180,157,60,56,90,131
515,363,183,145,61,56,93,124
481,345,185,143,57,50,90,116
445,331,163,114,51,52,86,104
449,342,148,113,54,52,79,94
434,311,166,128,49,47,73,100
378,334,172,133,48,47,74,102
383,339,170,132,54,57,83,111
438,377,168,134,52,56,82,117
480,352,174,137,54,56,85,123
525,364,160,133,57,58,82,123
570,374,224,211,56,58,82,132
544,378,219,212,50,48,72,117
550,395,235,233,49,50,90,135
527,404,235,234,49,56,102,144
512,453,241,236,50,52,103,141
484,459,181,184,58,59,122,138
469,502,165,168,59,64,127,149
403,473,155,158,59,63,115,135
408,546,148,160,61,60,111,133
392,503,150,163,64,64,118,142
356,465,156,161,56,56,95,134
381,508,164,162,59,56,90,129
393,505,150,141,60,59,100,130
379,412,154,132,57,56,94,119
344,424,137,125,50,52,84,105
374,475,123,121,53,54,91,118
353,374,130,121,53,57,93,120
377,382,128,116,50,53,78,109
411,396,118,117,53,58,82,111
437,411,119,115,61,64,86,117
437,380,105,92,66,73,98,120
409,361,95,104,68,72,93,109
415,353,119,123,68,72,106,122
368,330,128,119,67,67,105,117
326,275,131,118,63,62,105,114
281,236,138,126,60,71,87,96
286,218,145,134,65,75,92,95
267,175,129,127,70,78,89,91
283,166,124,136,86,91,94,98
281,166,116,168,108,98,91,106
305,156,137,195,123,90,99,125
318,154,120,197,126,83,91,125
294,137,127,204,125,80,85,124
280,124,129,205,114,71,89,125
266,107,129,188,101,66,87,113
253,109,118,192,98,58,77,96
227,104,117,197,93,59,75,90
204,98,147,237,100,67,68,78
232,96,143,234,107,63,53,73
267,99,154,234,113,66,75,87
265,86,142,213,100,66,75,80
273,90,150,230,113,68,81,82
269,89,116,201,119,69,92,83
238,92,156,222,119,69,98,85
206,89,143,228,108,60,85,79
206,103,148,233,107,67,93,84
202,96,149,221,97,64,101,85
200,94,148,199,85,56,90,82
259,107,127,210,91,63,102,97
281,107,128,197,86,63,108,101
264,93,145,201,87,64,107,95
257,90,145,185,96,73,101,94
272,94,151,189,98,73,105,98
217,73,136,161,97,66,88,79
190,69,139,173,102,70,79,72
232,81,110,152,103,66,72,76
238,92,111,145,94,61,69,80
229,92,116,151,87,61,73,79
218,89,110,132,76,63,80,76
211,88,101,109,71,58,78,70
194,80,98,107,64,54,84,74
202,68,89,117,65,53,85,71
198,70,96,148,73,57,78,65
208,78,122,161,72,55,72,68
199,79,125,164,72,53,77,68
181,76,126,163,76,56,71,71
196,76,120,157,68,51,68,68
206,77,97,124,60,53,74,75
199,87,69,135,68,50,73,75
274,108,92,139,67,55,72,83
267,109,99,161,69,52,69,70
272,114,134,194,77,56,79,87
273,111,134,201,84,53,77,81
316,112,134,212,91,57,76,82
265,91,126,240,104,57,78,78
263,94,122,234,105,61,86,83
238,85,79,201,97,56,78,65
217,82,75,190,90,55,77,65
164,61,70,168,81,61,86,68
239,74,61,135,71,57,85,78
259,77,96,155,71,55,76,77
256,77,99,159,73,55,73,78
257,80,102,167,78,55,77,80
260,82,100,161,69,46,65,79
191,71,99,150,62,48,67,65
146,54,70,148,57,46,71,59
150,59,109,187,71,49,73,61
152,59,112,190,62,46,68,60
122,54,113,196,64,45,67,53
138,57,122,202,67,44,63,61
141,54,120,178,64,42,60,61
164,55,85,131,47,39,62,60
174,54,89,121,50,40,60,65
169,57,104,117,48,39,57,65
170,56,99,103,46,37,57,58
193,62,99,99,46,38,58,62
210,69,134,131,52,39,66,84
232,74,132,126,50,37,69,83
260,86,136,135,49,39,82,87
251,85,141,145,52,41,84,90
254,87,147,172,51,38,80,88
227,80,116,149,45,39,74,68
202,76,120,145,45,41,75,63
187,63,104,128,46,42,60,63
178,63,91,123,49,41,55,63
185,68,89,94,60,52,85,73
196,67,117,103,59,53,91,72
204,66,116,112,62,56,86,72
191,65,117,111,62,55,93,79
196,67,127,102,60,59,101,79
185,59,135,101,48,48,82,73
180,60,114,102,48,44,70,84
177,57,111,92,46,40,72,88
171,56,107,90,41,53,68,77
182,64,108,104,38,63,60,77
158,62,88,116,54,79,59,72
152,64,110,119,55,81,73,72
145,72,128,125,56,82,83,78
198,88,131,128,59,76,82,84
187,79,147,135,71,65,77,85
199,79,151,125,69,50,76,99
276,82,138,118,71,50,69,91
283,92,168,133,73,50,57,84
273,80,171,134,76,51,64,81
305,86,180,128,70,52,72,87
311,92,184,128,67,48,71,73
296,97,191,137,66,44,67,88
326,96,175,120,66,43,68,112
310,95,176,129,62,36,61,119
305,92,145,122,60,35,61,118
302,88,145,136,57,38,58,120
251,80,143,131,56,40,60,107
230,64,114,150,62,43,62,82
229,78,117,155,69,53,67,95
204,75,123,163,64,50,60,86
205,77,123,150,66,59,63,100
216,75,119,148,65,60,67,103
255,100,150,135,68,64,71,106
270,92,151,139,65,59,73,105
277,95,154,126,65,61,74,110
273,91,162,127,61,194,85,112
279,101,157,123,60,231,83,123
235,82,136,118,58,237,76,118
216,80,145,115,55,238,69,108
218,94,196,120,59,239,73,113
238,110,185,115,60,156,59,105
226,97,188,115,61,120,58,95
213,97,207,127,55,105,61,95
224,98,203,119,56,110,84,106
228,95,145,115,60,110,82,104
205,92,153,115,58,101,81,94
223,99,153,130,67,66,83,96
238,106,152,144,62,67,96,130
238,119,161,137,61,54,77,127
221,152,167,137,52,50,79,127
228,156,186,151,57,50,82,130
204,158,193,144,54,53,82,132
372,184,211,153,58,53,80,123
371,180,202,157,67,64,96,113
376,160,200,157,70,67,102,108
424,176,205,154,71,68,105,116
436,171,195,151,66,64,105,119
320,149,144,121,64,63,98,113
377,173,221,135,55,53,83,123
405,175,265,179,58,54,77,145
409,170,260,188,56,54,80,152
446,180,264,185,57,58,82,150
478,176,281,194,58,63,95,162
478,157,259,184,58,67,100,164
502,164,224,166,68,63,99,173
473,148,217,156,71,60,97,169
478,187,214,163,70,56,97,179
439,182,193,152,66,51,83,167
475,196,166,175,70,51,101,178
443,184,162,160,61,50,104,151
442,192,168,164,61,57,114,151
407,156,166,158,60,61,115,142
456,175,169,159,69,63,120,148
392,167,160,149,65,64,105,140
381,164,151,145,67,65,99,142
435,164,122,132,68,67,89,151
456,190,153,162,74,66,85,153
412,179,162,157,70,62,78,141
420,180,147,141,71,58,77,152
461,184,150,145,71,60,90,166
452,188,167,157,70,58,94,164
469,185,185,146,74,63,95,172
491,197,191,149,78,67,96,176
511,197,209,147,78,71,107,179
523,204,226,150,78,75,109,189
513,203,224,150,82,71,107,188
539,183,205,131,74,64,105,211
536,185,203,135,79,65,105,208
600,184,191,136,81,62,95,197
566,177,167,141,84,54,82,178
552,186,218,140,87,64,89,177
518,194,251,161,87,66,91,152
547,225,244,151,78,65,95,163
448,220,247,151,77,62,89,154
473,219,276,155,71,61,94,157
607,251,263,176,67,56,86,166
582,255,224,157,71,58,88,155
587,228,228,162,73,62,94,152
642,254,224,169,77,71,108,176
643,255,197,157,79,70,106,175
564,220,157,120,73,70,107,197
598,216,183,137,69,66,104,198
559,206,172,134,67,61,99,204
545,188,185,128,63,53,85,185
541,224,233,127,66,59,102,216
563,233,229,132,73,62,107,225
617,256,214,124,74,64,112,248
669,286,215,137,74,67,118,269
630,281,207,144,74,67,122,269
668,263,144,135,71,66,111,252
655,268,176,144,62,59,99,219
635,248,164,154,76,66,106,213
626,234,187,215,91,74,121,201
664,290,198,240,92,72,122,210
661,311,209,254,97,88,151,224
647,299,198,258,100,95,157,226
625,327,209,275,95,91,154,230
613,316,209,230,89,89,136,204
573,281,232,204,93,93,133,203
554,255,219,195,91,84,115,180
588,286,260,198,91,80,108,208
623,267,270,187,89,79,105,244
603,266,274,217,87,72,106,260
605,293,244,211,88,74,115,268
590,296,246,213,87,65,100,277
533,282,218,226,86,66,106,255
499,267,241,242,89,73,114,242
495,319,226,218,87,78,119,227
549,283,226,224,90,79,124,217
571,287,237,240,86,81,130,215
603,290,213,217,87,81,134,217
650,313,187,195,82,77,132,164
647,273,200,187,76,70,128,164
640,292,236,210,79,71,128,195
601,279,241,185,91,74,129,198
588,264,288,201,100,80,132,198
494,250,343,211,104,79,127,195
503,236,345,220,108,87,139,196
528,241,319,208,109,87,137,199
539,249,307,217,109,93,141,199
657,282,267,202,110,93,129,197
725,313,200,178,109,91,128,206
741,316,188,166,111,92,129,219
692,282,189,145,100,86,118,182
741,296,218,127,88,79,129,237
626,265,288,170,91,71,134,260
654,240,282,171,97,82,146,282
672,257,281,183,91,78,140,275
797,298,293,201,96,80,152,290
779,295,303,235,103,78,136,240
780,323,239,216,99,84,137,212
719,377,213,211,96,83,135,193
678,364,238,203,97,77,128,195
549,342,234,197,100,80,118,190
515,331,251,201,108,86,112,206
503,312,254,197,99,80,105,213
529,222,253,211,98,73,94,202
536,240,233,217,98,79,98,213
562,256,254,250,105,74,90,193
550,269,204,231,100,66,87,185
615,305,187,224,105,73,95,175
660,312,191,206,96,69,96,174
711,327,230,212,115,84,145,221
715,340,229,182,112,87,150,229
761,356,235,173,106,87,154,231
737,323,241,183,109,85,158,232
717,304,263,204,115,88,154,237
709,308,234,204,91,68,114,201
680,279,217,187,86,69,118,197
677,269,199,175,87,74,137,225
647,265,195,165,79,79,162,244
610,268,179,156,80,78,162,232
559,276,187,132,82,78,157,214
554,280,168,126,80,79,163,221
536,256,169,159,79,71,147,182
531,244,201,188,85,57,107,164
470,240,196,185,86,54,109,164
473,191,176,190,90,59,122,169
478,178,180,194,84,52,101,178
509,229,231,194,82,62,97,188
539,224,231,176,84,73,100,187
552,240,233,168,75,75,107,195
557,234,228,173,70,76,96,195
578,252,224,173,76,77,111,190
500,226,196,161,80,76,115,180
502,231,198,160,73,73,116,176
502,244,189,162,74,75,125,199
531,262,185,175,85,71,119,209
533,265,202,205,87,74,115,203
543,249,189,211,92,70,113,219
534,264,168,224,95,70,110,216
560,250,164,222,96,69,105,197
506,235,175,217,85,66,101,178
497,243,171,197,80,62,99,177
539,260,194,206,69,60,109,167
550,273,181,180,65,62,130,185
520,274,192,191,67,63,131,173
527,269,197,201,86,68,138,175
602,253,188,189,93,71,140,199
571,230,167,183,95,71,136,185
524,186,168,186,94,62,116,161
691,198,164,208,118,81,133,175
688,203,195,213,113,83,134,176
634,196,197,219,109,85,133,152
676,238,192,199,107,91,137,181
719,255,198,206,108,95,146,193
570,264,208,184,80,78,130,199
588,298,180,161,69,74,128,209
565,311,211,183,78,75,137,212
547,293,204,183,78,70,131,194
563,301,224,176,84,66,121,203
571,292,212,169,81,64,112,188
544,255,212,184,96,67,108,176
546,246,198,178,88,60,84,162
516,242,203,189,94,67,93,157
536,234,181,190,93,65,91,149
521,220,183,197,106,71,85,152
549,238,190,184,97,69,88,162
601,269,170,184,105,72,94,181
612,266,161,177,103,63,84,186
523,253,161,222,108,63,85,172
533,259,185,227,101,62,101,175
619,272,179,231,106,79,133,248
559,240,189,231,102,77,132,239
517,243,220,237,100,78,134,236
520,255,269,236,104,89,140,235
559,282,251,236,108,86,135,240
443,269,243,222,97,72,105,152
410,255,233,209,92,79,115,151
415,250,212,200,94,80,112,156
404,246,133,150,72,67,104,171
299,216,129,124,61,63,106,164
377,205,129,125,61,57,103,163
400,207,139,125,63,44,90,162
514,213,150,140,71,59,112,169
530,265,164,156,84,66,116,156
543,273,190,161,88,71,120,160
491,270,180,187,95,74,117,164
462,282,169,184,98,80,140,164
395,281,154,179,90,70,125,165
401,226,150,163,82,64,121,166
430,200,120,162,78,64,116,164
562,242,129,134,72,65,122,169
625,243,128,146,77,67,114,172
660,260,168,180,98,76,130,209
674,276,158,187,101,83,133,214
667,281,168,189,101,80,133,209
568,255,167,196,101,80,131,213
509,240,167,192,96,75,114,215
438,219,181,189,70,64,94,202
449,196,204,189,65,54,86,195
478,188,191,192,78,66,98,216
483,177,188,182,78,63,99,205
491,198,234,177,81,65,103,200
519,202,196,181,86,65,97,155
490,197,176,178,92,69,104,173
604,228,179,171,82,60,94,165
591,215,187,207,84,59,94,166
591,208,132,205,84,61,94,163
664,241,127,178,89,67,111,192
665,245,118,165,81,64,111,176
517,229,114,167,82,68,110,163
510,231,123,176,87,70,104,160
548,230,196,218,96,67,103,179
394,177,204,225,89,61,85,152
388,207,213,225,90,63,81,154
440,205,216,226,92,66,81,163
447,210,204,196,90,64,86,163
485,266,163,175,88,65,91,160
559,298,153,156,96,67,90,159
556,271,140,159,95,65,98,154
520,269,136,167,93,56,103,144
548,275,152,157,88,55,99,137
463,240,141,148,81,56,99,115
503,250,153,148,70,64,135,175
561,282,188,161,70,65,127,184
590,286,196,181,86,67,114,176
630,319,190,186,92,76,127,192
666,316,170,178,90,77,129,190
628,283,171,188,86,67,98,155
591,262,140,206,99,70,110,150
576,253,125,182,91,79,119,153
539,222,123,184,86,72,113,143
496,200,137,182,84,67,103,133
507,219,152,183,102,73,109,168
536,225,165,169,102,78,102,176
541,282,168,174,98,70,100,175
487,266,164,159,94,67,91,169
506,292,174,152,96,72,119,199
447,271,153,132,79,70,114,164
388,302,136,113,66,60,115,150
509,290,172,106,60,64,126,176
517,300,177,124,68,67,127,176
515,291,161,134,73,62,105,146
591,312,163,143,77,56,108,145
573,272,180,160,80,57,104,140
465,232,148,162,84,46,86,123
500,227,155,161,79,44,88,124
473,275,208,167,76,46,88,121
405,294,207,163,73,46,73,133
500,337,185,143,79,58,89,166
522,337,187,138,76,59,93,155
539,340,199,131,77,59,92,157
568,286,158,133,70,58,96,187
596,265,171,134,66,59,99,188
637,222,176,138,59,51,86,184
637,226,174,154,55,48,75,184
614,215,156,151,59,61,88,195
592,221,143,134,68,66,88,173
657,243,147,139,79,74,89,163
609,242,161,145,76,69,92,165
593,250,159,132,76,76,102,166
595,260,169,172,76,69,96,156
593,274,168,188,74,67,92,150
554,311,146,184,69,61,96,165
535,340,127,182,81,70,108,179
566,359,127,182,83,67,102,189
606,352,97,180,111,76,110,195
727,364,123,202,120,75,117,222
671,326,127,201,119,73,109,213
670,316,158,214,114,69,106,191
637,285,169,236,126,69,106,185
607,292,172,214,107,62,92,176
541,301,155,181,95,64,91,153
547,275,154,192,99,62,94,155
562,292,147,196,99,64,87,161
584,313,142,168,79,57,84,167
569,330,151,192,75,58,99,173
507,291,139,185,70,54,103,161
535,308,144,193,63,53,103,150
488,258,171,166,61,47,94,129
469,230,164,164,68,54,103,135
729,288,153,128,71,63,117,223
729,305,159,137,75,66,112,236
720,292,173,133,75,68,111,241
736,310,135,143,81,72,113,244
738,306,133,150,79,69,117,247
589,249,133,150,76,62,100,190
637,254,138,150,82,61,103,198
621,257,112,169,90,62,107,195
650,249,117,175,85,63,110,200
633,276,117,170,83,69,115,181
600,265,118,210,88,69,125,164
583,259,109,213,88,66,119,163
576,288,126,203,90,64,117,169
666,324,115,192,87,60,114,171
678,311,117,188,88,54,99,168
623,298,115,157,81,47,76,157
593,292,139,167,77,49,84,134
582,287,126,141,64,51,91,139
427,299,122,135,65,52,95,128
561,300,132,138,65,59,107,162
561,299,161,144,72,59,108,170
558,290,149,130,72,57,98,162
631,288,144,131,72,57,95,152
614,230,144,130,74,59,91,168
547,248,134,141,70,47,79,138
545,255,149,162,77,45,80,134
553,250,141,167,80,46,78,145
503,238,143,169,80,44,78,147
552,229,146,183,86,54,89,142
514,195,145,205,107,69,96,149
493,187,117,192,103,73,100,144
536,206,119,201,106,77,104,146
512,217,117,197,104,76,100,150
457,212,109,192,99,67,89,131
428,212,121,160,80,53,75,126
475,208,102,145,70,49,80,165
450,205,131,135,67,50,91,174
436,163,135,139,69,49,88,162
469,181,155,142,69,47,86,173
556,220,180,167,89,51,98,199
523,214,182,170,95,58,95,176
499,202,160,158,90,57,84,164
504,215,162,168,90,58,85,168
530,239,154,166,91,60,86,162
467,231,124,155,71,60,76,138
462,259,121,146,63,56,72,123
507,273,119,155,70,54,77,126
567,276,120,158,68,55,86,137
509,247,130,158,65,51,88,137
497,262,124,144,68,48,85,125
511,240,120,154,76,50,89,136
461,225,119,141,68,57,96,150
382,213,118,146,71,63,105,139
442,212,127,155,70,65,106,131
437,174,138,164,74,69,108,130
454,172,136,152,68,69,114,127
441,166,141,151,67,69,115,99
446,154,146,159,69,66,106,116
414,147,140,153,70,65,103,136
413,142,128,160,75,66,105,135
438,144,129,167,74,67,109,129
449,137,130,175,77,58,96,131
428,146,154,151,74,57,95,118
410,141,152,147,79,69,106,108
458,189,151,122,67,63,103,119
422,200,150,132,64,57,84,120
433,229,164,140,73,61,85,133
494,243,143,170,79,63,83,130
544,262,146,182,76,55,79,135
483,221,146,187,81,63,93,143
553,232,159,208,96,69,103,154
545,252,162,221,103,76,119,139
495,262,155,195,97,76,128,143
487,276,181,185,104,88,132,151
495,291,191,197,106,88,128,133
381,281,204,176,96,86,119,114
360,294,194,175,86,80,106,132
415,279,195,177,86,81,107,144
396,275,149,169,83,67,97,141
408,267,158,208,107,65,90,154
431,280,145,203,110,67,96,180
578,265,136,189,105,75,122,184
533,255,134,201,107,74,112,173
511,246,156,204,104,70,111,171
503,241,136,155,79,66,121,178
499,243,120,146,76,66,126,155
408,214,124,136,72,53,97,140
462,240,128,157,89,63,110,178
446,233,121,192,91,64,110,170
461,235,166,190,88,67,104,160
518,221,168,190,85,68,110,167
457,200,169,194,88,69,121,173
423,174,192,162,69,58,105,142
524,207,185,112,60,58,116,172
533,239,155,106,62,60,117,186
499,249,167,122,69,61,105,180
540,255,173,123,65,60,99,173
528,271,170,125,70,61,100,174
540,259,172,143,69,58,96,161
547,247,162,147,67,56,94,149
530,239,144,145,61,46,91,147
566,241,154,152,63,47,98,175
565,222,151,155,57,45,99,165
465,232,142,140,62,58,99,145
431,213,139,133,66,60,96,130
419,208,140,139,64,58,94,146
353,218,138,118,77,56,78,110
442,228,107,116,84,59,81,136
432,214,114,118,82,48,77,136
525,238,149,124,79,41,75,149
586,240,150,145,98,42,81,154
556,234,130,147,88,44,82,164
509,226,133,160,92,44,81,142
554,217,131,174,93,49,82,144
460,195,117,184,96,56,84,130
396,193,171,165,86,68,101,120
426,185,177,177,86,74,104,102
406,180,175,160,72,73,109,102
372,197,201,159,88,76,115,108
447,205,200,164,91,74,115,114
451,203,161,153,79,63,97,113
446,224,155,138,83,59,100,127
451,238,155,148,96,64,94,128
472,220,129,162,86,61,80,128
411,202,119,149,88,59,77,123
412,228,120,153,90,60,79,120
373,207,116,151,90,57,71,103
410,208,128,158,79,49,63,105
460,208,142,138,74,45,74,109
451,218,171,137,73,48,80,125
474,239,165,132,76,50,83,126
509,248,185,152,80,52,87,158
494,231,186,152,85,53,87,161
495,251,194,143,89,57,83,164
534,256,168,136,81,59,83,163
501,209,195,159,84,59,84,163
489,206,196,231,88,66,97,146
598,250,205,225,84,68,115,156
535,243,177,230,78,65,121,151
525,260,175,230,81,64,125,170
576,281,155,235,105,73,130,167
578,272,148,174,103,68,129,165
432,237,134,177,102,64,114,157
467,223,138,171,104,67,106,159
520,191,146,186,112,71,111,167
515,154,145,182,101,63,103,184
529,193,143,154,94,61,93,184
591,243,129,150,97,68,102,191
561,255,129,146,93,64,106,200
513,271,115,133,82,57,92,184
473,277,137,123,67,58,90,170
489,261,135,133,64,62,86,165
428,239,138,137,61,55,84,147
427,230,136,144,73,62,86,131
381,205,147,142,76,77,107,116
401,200,178,131,71,74,106,114
329,202,169,140,73,70,102,109
313,168,185,127,74,79,111,118
391,171,189,127,69,76,107,126
448,196,188,155,68,63,83,120
411,189,145,152,65,60,81,118
424,179,143,142,82,80,102,124
492,222,120,145,80,76,93,124
440,228,115,170,85,74,92,108
385,211,138,210,99,73,94,106
410,222,149,240,114,74,98,112
431,226,146,240,103,57,79,106
347,196,143,240,102,54,76,101
347,176,158,230,96,49,71,105
406,201,140,185,80,55,86,122
451,205,112,137,59,62,101,118
431,241,111,131,57,64,106,115
467,233,114,141,57,62,105,114
447,232,181,135,56,64,107,118
391,218,178,111,58,62,100,95
338,230,181,109,67,72,104,90
346,200,182,128,86,81,128,112
327,226,216,160,94,82,131,114
339,239,164,159,98,84,133,109
387,252,155,165,95,81,126,116
357,234,159,170,88,65,112,114
333,216,162,189,78,48,80,93
359,200,122,190,79,49,72,93
380,201,118,192,82,47,83,110
365,203,121,197,83,50,98,120
374,208,116,207,88,51,96,126
480,243,122,187,81,48,92,139
450,245,117,159,76,49,95,138
425,232,100,156,71,51,89,131
425,209,102,155,75,52,80,127
443,220,106,147,76,57,86,126
368,193,106,157,81,59,90,121
368,195,100,148,77,58,88,124
377,199,107,141,72,59,88,112
349,219,136,142,65,56,79,100
389,227,140,135,66,54,71,95
383,220,129,108,58,55,85,101
386,212,132,113,69,67,97,116
400,232,156,142,85,66,93,127
408,216,160,138,91,66,95,129
368,203,152,144,86,63,93,130
392,219,157,158,87,60,81,120
378,210,159,169,81,46,59,93
374,185,156,161,72,42,52,86
376,197,129,164,74,54,55,96
412,208,136,160,79,60,66,126
397,191,159,167,95,63,62,141
431,209,201,180,93,63,66,145
435,204,185,175,92,65,68,144
455,193,183,165,83,58,71,159
403,158,176,164,79,54,65,145
478,205,152,143,58,49,74,139
443,184,126,178,94,53,73,137
439,222,125,189,100,53,77,139
417,249,121,189,103,54,81,120
445,256,133,201,108,56,99,130
342,231,190,220,123,55,92,125
360,265,175,220,117,56,97,127
386,259,176,220,126,67,98,128
443,238,182,245,135,67,89,127
422,243,179,248,132,62,66,100
409,228,137,252,122,65,69,91
449,233,126,213,111,67,86,98
443,220,123,197,91,54,84,92
453,215,124,165,77,50,92,110
449,240,202,150,80,55,100,115
449,261,194,140,93,80,122,117
401,241,194,136,85,74,106,109
401,247,195,140,85,77,109,122
391,257,214,143,84,77,107,137
382,230,147,182,103,83,115,131
372,217,143,164,87,56,90,139
384,224,154,168,94,63,102,146
378,226,152,171,103,68,104,137
299,209,131,188,116,75,103,113
320,206,125,153,107,69,93,127
388,208,138,161,111,73,93,124
398,197,126,158,106,70,91,119
379,182,188,176,98,62,89,126
395,180,209,169,90,61,91,116
414,176,206,170,77,62,93,121
368,171,198,163,70,57,101,134
341,152,207,196,81,59,92,130
355,171,199,178,84,76,109,125
417,175,175,170,80,76,106,131
435,175,180,179,89,74,106,117
457,206,185,189,90,74,99,100
479,220,192,167,85,73,106,111
492,229,146,163,81,59,97,121
455,238,141,157,83,69,113,131
401,250,130,155,76,67,109,127
376,248,140,168,73,68,108,131
345,239,110,157,65,65,100,125
307,213,103,153,66,66,102,122
322,205,97,155,58,50,83,114
370,194,100,147,52,47,81,119
354,171,174,120,53,45,80,116
406,183,179,115,54,51,92,134
430,177,179,115,50,43,82,125
391,176,195,154,63,42,86,120
394,186,219,189,69,43,84,121
409,174,155,191,71,48,93,118
381,160,148,212,69,40,85,97
377,222,155,215,72,48,87,96
404,222,199,195,71,52,80,92
407,237,178,171,75,63,89,113
438,251,182,162,74,61,84,125
434,276,182,134,81,72,99,130
426,237,180,145,87,75,105,141
405,238,121,145,89,72,103,142
392,227,109,142,84,64,98,134
351,218,93,141,81,65,94,126
335,191,108,145,76,55,76,120
330,183,117,153,85,49,68,118
341,200,110,165,79,51,70,126
321,201,114,164,85,55,79,129
372,209,117,163,88,53,81,132
370,218,128,238,112,56,78,138
342,233,150,259,105,54,70,126
314,233,145,245,108,65,90,117
296,220,161,240,101,63,90,121
213,209,169,255,109,71,97,123
206,197,164,209,89,70,98,112
243,208,133,166,83,71,107,117
401,215,132,174,76,59,95,123
410,216,111,167,78,61,99,107
435,230,107,183,71,51,98,98
444,229,116,183,72,51,97,103
449,237,115,205,73,51,97,104
402,233,114,210,74,60,123,144
437,242,118,221,71,57,117,152
427,237,132,240,82,56,111,153
433,239,135,249,85,61,117,151
455,220,135,230,84,63,117,152
428,207,136,220,84,54,84,112
446,225,136,228,90,53,78,91
443,251,124,188,77,53,77,87
474,248,96,148,69,47,68,95
429,234,96,151,66,44,68,101
397,241,101,165,76,50,79,113
321,215,127,162,71,54,99,124
313,188,119,159,71,53,109,127
334,190,115,154,66,52,108,131
334,187,121,149,69,54,104,121
339,170,139,157,60,47,101,116
396,195,107,135,58,42,84,114
438,201,105,121,59,47,78,121
397,229,104,123,66,54,86,125
404,232,131,143,74,57,92,136
405,236,117,123,79,60,102,138
353,259,120,118,78,60,101,136
310,257,124,120,76,59,96,134
320,242,136,144,73,53,88,120
341,235,112,143,66,46,77,115
340,237,113,149,64,53,77,115
416,202,119,148,67,56,85,126
410,206,127,183,78,63,99,117
381,193,137,167,78,63,101,114
368,224,131,152,73,65,109,117
359,216,121,153,70,60,103,105
301,196,118,163,75,57,95,90
322,175,135,142,69,50,86,99
340,217,135,147,73,67,114,102
351,198,133,142,79,68,106,92
340,195,131,127,79,64,100,108
303,198,164,140,74,64,104,102
304,226,145,131,73,63,101,91
311,184,129,133,71,48,79,102
338,188,153,147,70,48,89,113
351,189,168,173,76,48,88,111
354,200,138,173,78,55,90,114
352,170,142,168,79,60,100,124
362,177,146,171,82,64,96,120
350,168,124,173,81,63,92,123
352,183,135,170,75,65,96,116
366,196,149,148,71,61,88,114
358,196,145,147,74,58,80,108
334,196,141,152,69,51,77,110
355,215,151,149,67,51,80,109
408,229,125,129,67,50,80,116
407,211,98,136,70,50,78,122
425,226,92,143,60,47,74,126
422,242,100,148,70,52,77,122
382,231,92,157,72,49,70,106
411,240,103,157,70,52,76,118
412,239,103,152,64,51,77,111
406,228,102,151,68,49,75,107
399,228,115,182,79,57,76,104
453,250,134,173,77,61,76,134
384,225,124,171,77,58,72,133
372,231,129,181,79,58,79,139
359,233,147,190,77,60,78,136
374,218,146,162,62,48,71,136
304,203,123,165,65,51,84,120
282,204,128,171,77,66,91,102
284,193,143,172,75,65,89,100
312,192,158,172,76,63,92,105
323,243,145,156,73,69,110,111
399,270,146,157,77,88,140,126
425,292,145,149,70,82,138,128
464,307,163,170,81,89,141,133
452,321,152,154,89,94,150,146
442,296,149,149,89,90,141,145
384,270,156,137,82,67,102,118
364,262,154,143,81,62,93,110
319,257,142,122,83,56,89,110
325,278,131,117,76,56,75,100
323,259,139,119,74,56,70,98
303,249,129,117,78,57,67,102
305,237,146,162,74,55,69,145
352,244,134,150,66,53,68,148
324,206,127,156,66,50,74,144
322,222,120,157,75,54,79,152
331,240,179,213,98,61,85,155
329,245,165,197,110,62,87,128
279,246,158,196,108,61,97,118
381,266,160,201,110,69,116,151
386,253,167,218,115,66,110,146
370,233,110,183,95,63,112,142
358,239,113,173,85,67,121,136
389,225,108,171,85,73,131,154
316,193,99,158,82,67,114,118
303,193,127,165,92,70,117,119
327,240,133,165,100,79,116,127
390,232,130,156,99,81,110,143
386,223,130,157,100,78,87,121
425,243,161,198,110,75,87,145
451,261,161,170,92,73,87,141
450,212,156,149,82,64,81,139
427,205,155,146,81,58,79,145
417,212,190,170,78,51,74,149
403,185,177,128,60,52,80,135
381,159,147,128,61,50,76,138
382,225,141,127,56,45,83,144
368,236,157,131,54,46,80,120
340,256,131,114,59,55,91,120
280,260,135,134,61,53,84,110
294,280,158,138,57,55,98,122
278,243,165,141,62,59,102,116
270,244,155,143,60,61,100,118
312,225,148,149,56,59,96,115
342,238,138,133,51,58,95,121
326,208,110,132,50,56,82,104
342,217,100,140,51,55,76,94
343,221,106,145,61,54,82,103
312,219,109,159,67,47,75,102
302,199,110,151,73,55,82,91
369,207,112,150,79,61,89,165
370,192,117,172,82,58,84,173
355,166,128,202,89,60,79,165
389,193,124,189,90,67,87,171
391,188,118,194,87,64,91,172
320,197,118,191,82,56,82,103
322,206,113,168,84,60,88,96
350,208,100,132,77,58,93,105
320,186,95,112,69,56,92,95
290,206,124,117,85,74,99,94
301,226,127,124,93,78,115,121
317,237,138,156,94,79,118,135
381,243,144,178,102,87,121,147
385,240,154,183,104,85,115,143
392,241,130,181,93,70,99,147
425,216,147,185,88,66,95,134
419,192,148,166,86,61,84,119
369,194,140,138,75,51,80,110
358,227,128,139,81,49,83,114
360,226,143,144,78,53,94,115
338,231,127,144,80,57,87,116
308,257,118,133,72,55,86,112
291,275,121,124,63,56,87,106
330,269,130,118,65,58,95,136
324,253,150,168,93,61,88,136
299,263,145,190,111,63,88,131
330,239,149,195,113,68,93,135
318,248,173,208,120,73,115,141
258,238,171,215,117,72,117,114
261,255,145,194,106,72,118,117
284,238,161,181,94,74,120,123
309,244,153,187,100,72,122,135
305,217,112,190,110,70,106,124
334,204,112,186,110,69,95,127
419,216,122,169,104,65,92,120
413,236,112,161,98,59,85,110
385,226,120,147,91,58,77,86
390,210,124,127,71,49,64,82
407,215,118,118,65,50,78,96
371,219,140,146,64,54,88,115
373,191,131,155,71,57,98,123
378,247,133,161,70,59,108,147
438,268,151,176,71,60,113,158
411,261,176,199,77,58,102,150
366,238,161,185,71,53,95,135
363,241,162,168,55,49,82,143
398,196,168,170,56,47,73,131
331,171,186,171,55,52,78,131
333,169,167,152,57,56,84,128
345,171,160,145,67,59,79,134
345,241,170,147,68,59,88,128
290,244,160,167,77,66,94,119
279,280,121,156,79,64,84,102
349,297,112,152,79,62,82,109
334,321,106,142,76,63,95,114
335,295,90,171,86,64,87,103
338,294,155,187,85,54,76,98
340,262,161,207,91,51,76,97
416,266,162,202,85,58,110,116
427,238,161,205,83,59,106,111
420,220,194,207,97,61,108,111
417,227,153,182,95,63,107,119
433,245,147,161,92,65,106,133
342,247,152,167,95,56,69,130
348,242,155,166,95,50,65,133
341,239,147,156,74,50,70,136
352,215,145,159,90,63,85,138
329,192,142,156,92,72,103,126
277,162,134,167,90,73,100,114
243,187,143,174,93,75,95,108
263,174,120,154,91,73,93,110
350,178,110,133,73,65,113,124
355,178,108,127,67,59,109,127
359,202,134,121,70,57,110,118
379,176,158,133,83,59,116,118
362,190,159,144,86,55,114,113
287,191,164,145,87,51,85,108
344,199,176,163,83,45,81,108
348,186,164,165,82,47,79,110
335,185,133,176,78,42,75,106
371,223,115,168,78,48,86,106
387,251,109,169,77,50,90,104
357,250,112,155,79,47,90,116
339,247,101,142,78,46,91,109
380,258,96,111,69,47,93,125
363,269,97,110,62,46,92,144
350,243,106,104,64,46,92,135
347,239,112,150,78,54,84,125
383,257,120,151,80,58,89,142
337,243,123,146,83,59,94,125
357,188,143,146,89,58,91,109
393,191,193,158,89,57,85,111
403,194,177,117,77,53,85,112
408,203,175,121,88,57,88,121
442,218,188,121,88,60,84,137
450,224,178,131,86,60,76,135
415,227,160,140,85,59,74,141
429,239,165,133,81,63,77,143
408,229,163,126,65,55,71,128
403,276,154,161,67,47,64,114
381,277,179,152,63,46,64,120
434,295,155,133,64,54,75,115
451,281,153,133,69,60,95,129
536,269,163,146,90,65,97,162
512,215,166,116,85,67,100,162
534,236,133,114,87,78,109,170
586,245,115,115,86,74,107,181
550,250,119,133,84,59,83,165
464,239,126,162,79,54,75,125
486,236,114,163,82,63,88,136
448,271,119,178,91,62,106,128
333,265,151,182,90,63,103,112
351,262,155,180,95,65,104,124
348,265,146,146,88,71,119,137
385,280,156,139,84,67,111,133
402,229,153,128,73,56,87,127
371,213,147,137,75,56,85,120
353,200,159,143,68,56,88,109
393,212,154,161,61,54,86,114
443,228,143,167,67,53,86,123
457,245,168,187,73,62,100,125
464,252,193,197,76,65,110,130
477,257,180,193,75,64,117,135
480,257,182,174,73,61,114,130
482,273,201,170,66,66,124,133
459,263,193,151,60,57,112,126
485,246,160,130,64,57,109,130
485,251,159,120,73,66,110,130
438,277,152,123,75,66,104,123
356,234,133,118,76,60,90,101
381,221,165,114,74,61,92,122
416,250,161,107,76,66,100,125
398,246,159,105,69,60,91,120
420,251,189,135,69,57,89,126
394,245,186,176,72,54,85,135
413,240,144,170,79,57,87,126
334,212,136,170,68,51,82,117
331,220,145,194,72,49,80,118
332,189,137,181,78,57,87,120
310,196,136,149,79,61,95,107
309,210,132,147,71,61,97,107
332,218,141,148,70,56,89,112
362,210,164,129,74,63,103,128
353,190,156,157,80,64,99,116
364,192,160,161,79,61,97,120
325,178,161,161,80,59,90,112
317,184,150,161,87,65,90,106
301,181,146,160,87,55,68,85
293,181,129,145,89,52,68,87
312,171,126,157,87,56,76,95
380,167,128,160,87,56,86,113
378,139,132,192,89,50,80,110
360,160,113,198,82,51,84,108
399,204,108,179,66,45,90,118
418,223,101,182,72,44,80,113
387,239,101,214,78,45,73,93
392,279,174,229,88,51,77,105
423,285,173,224,102,59,91,114
398,296,180,225,106,63,90,101
421,280,180,208,100,58,86,113
410,280,201,187,95,56,82,111
431,255,171,142,83,51,79,101
429,267,164,137,67,42,70,100
425,236,161,135,72,71,113,120
408,235,163,140,77,74,120,117
405,255,167,153,76,75,123,125
435,283,149,144,83,79,128,138
417,251,141,133,78,77,125,145
416,256,141,138,72,54,100,143
382,271,165,158,73,53,94,135
369,237,135,132,76,57,95,128
347,227,122,135,71,57,97,125
373,249,133,161,74,57,99,122
407,246,212,180,92,61,79,109
396,246,197,190,105,63,74,107
460,262,198,189,102,65,93,144
413,232,203,185,99,61,87,144
385,204,199,169,99,63,83,138
347,195,113,158,79,59,90,133
409,181,129,119,59,61,101,149
356,170,125,115,59,55,84,120
355,165,113,117,53,53,86,110
363,171,183,170,52,50,84,111
383,188,178,163,54,48,82,116
329,195,167,161,52,45,84,108
435,206,171,165,63,53,98,143
439,209,177,169,65,51,92,144
426,267,125,125,70,53,93,142
405,268,124,119,72,51,90,147
415,267,119,112,70,49,89,155
330,256,122,130,64,42,82,137
317,258,136,187,90,47,80,133
333,242,122,188,92,53,94,142
348,239,123,190,99,76,114,151
379,240,129,202,101,77,112,157
354,230,139,196,114,77,112,165
360,261,124,149,95,79,121,168
372,252,121,138,88,79,121,160
358,230,124,140,79,60,111,144
297,234,135,135,81,59,105,121
280,251,115,131,64,61,100,90
344,232,115,137,77,59,95,109
348,236,109,136,81,57,89,113
352,237,102,146,86,58,79,128
358,233,123,159,85,56,80,128
342,219,125,176,92,58,76,128
312,200,118,162,86,69,85,143
276,151,117,164,85,68,80,139
264,175,138,170,79,66,78,125
280,203,121,162,77,68,84,132
286,235,124,148,70,67,89,132
290,242,123,148,68,60,88,109
332,242,123,148,70,59,87,108
374,239,160,138,84,58,85,118
378,210,167,156,85,59,85,117
379,218,163,144,87,62,90,117
341,218,164,140,84,55,77,105
317,265,198,158,87,53,80,110
270,281,161,155,84,55,80,93
258,274,145,150,86,56,93,96
255,241,145,152,83,48,87,91
312,253,169,199,111,64,89,106
341,214,143,202,114,70,92,118
340,173,135,198,107,71,95,127
333,177,128,187,104,65,73,123
381,191,241,199,105,67,69,138
338,177,232,162,81,58,75,128
285,173,239,144,71,50,68,120
290,181,245,139,72,53,81,112
342,195,273,134,71,59,85,110
305,176,189,142,74,58,85,93
300,212,185,143,64,58,91,106
311,201,165,137,69,63,97,101
311,197,162,142,71,60,87,111
263,241,156,160,70,57,86,107
270,255,147,133,68,61,91,122
300,222,142,120,71,62,92,117
285,227,148,128,63,57,84,115
295,257,172,144,67,59,87,115
318,245,136,151,76,64,91,117
296,246,143,153,73,65,96,101
278,239,153,181,76,59,83,98
316,239,186,202,80,59,84,106
316,214,171,201,73,52,77,99
295,206,167,182,64,45,77,107
293,214,160,179,58,41,71,113
290,226,162,153,49,43,72,107
354,251,141,134,57,52,80,121
356,257,132,121,57,56,87,128
355,243,137,116,57,55,82,129
376,234,155,138,66,50,74,125
382,284,215,155,69,51,76,130
296,261,198,147,73,45,68,117
333,255,200,150,78,48,69,128
351,245,196,163,78,48,64,117
330,242,199,186,75,51,68,126
327,172,129,187,77,56,84,123
338,177,127,184,68,58,92,114
315,186,121,194,71,54,93,94
334,233,131,211,88,62,101,90
342,243,116,184,90,62,99,80
351,240,98,166,89,61,93,78
365,239,97,165,88,62,87,87
384,270,122,166,89,64,83,111
393,265,124,140,73,58,75,120
396,268,118,139,75,62,83,124
394,277,118,138,76,59,83,130
381,277,125,145,74,54,75,127
360,283,126,181,68,51,71,112
288,251,111,179,76,54,88,103
285,244,107,172,67,49,88,112
290,261,122,180,70,52,83,117
306,277,133,191,75,51,85,116
274,278,111,149,80,52,88,111
287,275,113,146,72,55,91,114
278,270,118,150,72,55,90,99
307,254,116,147,70,53,98,107
265,235,153,164,76,56,102,109
275,208,173,162,75,62,113,114
299,225,180,157,72,59,106,119
294,241,183,170,74,58,106,118
289,279,223,180,75,57,97,109
296,278,191,152,69,59,98,107
358,286,176,143,61,62,99,121
372,284,168,146,68,61,97,119
378,278,189,150,74,64,97,122
357,253,145,145,70,64,104,138
369,254,143,132,64,59,104,139
344,241,140,147,69,46,92,129
320,230,149,159,63,44,86,138
314,209,117,140,63,47,86,132
295,192,100,122,64,54,78,107
296,187,111,136,77,64,88,123
256,170,130,198,102,71,84,117
287,195,145,212,112,75,83,100
332,206,145,215,111,72,80,123
353,199,148,218,110,67,79,131
346,224,139,234,109,62,63,113
355,225,141,224,89,56,63,127
332,200,120,202,79,52,81,132
319,201,114,200,77,52,91,125
307,197,110,228,99,49,90,117
345,182,156,272,118,53,96,117
342,189,146,241,121,54,97,99
354,207,151,271,134,52,88,108
395,198,155,281,145,56,81,113
405,228,170,278,139,61,79,121
433,241,164,249,127,57,72,134
438,231,159,239,122,64,85,134
436,214,149,205,106,68,84,123
394,230,152,196,91,62,83,115
379,198,151,171,81,59,93,111
313,210,113,114,68,61,97,94
340,213,108,114,65,59,90,107
316,234,132,122,74,55,88,108
292,224,142,121,77,54,85,98
301,248,172,113,78,54,81,94
315,217,175,108,82,54,76,104
283,223,174,108,79,45,80,99
294,199,171,108,89,50,79,100
346,214,236,136,98,56,88,122
416,224,209,156,96,57,94,150
401,231,211,167,94,53,94,147
406,234,212,177,101,56,95,148
421,256,219,230,107,56,95,153
481,243,136,242,117,59,88,140
435,227,126,235,115,56,84,115
456,216,118,227,111,56,93,124
446,205,156,226,111,56,88,127
442,186,134,170,104,54,90,128
325,183,135,117,80,45,89,121
376,200,136,115,84,53,91,130
351,209,147,150,102,57,81,120
360,209,105,150,100,60,83,110
358,237,110,149,98,67,85,106
367,246,117,151,98,69,88,115
311,255,155,172,98,65,78,123
344,260,157,147,81,60,79,131
410,253,156,147,82,55,75,145
399,221,149,143,68,49,79,139
461,227,138,150,69,52,80,139
515,198,105,144,70,56,87,141
560,231,106,148,70,56,87,142
544,247,110,139,64,61,90,135
550,249,111,141,70,67,96,141
508,244,112,156,81,66,95,143
448,273,127,157,88,65,97,127
399,246,125,166,97,66,106,125
387,238,122,173,101,63,102,116
388,243,123,175,95,52,89,105
374,254,197,234,99,52,85,101
393,239,187,245,105,54,83,108
364,238,183,239,104,58,88,91
303,237,190,246,111,55,88,92
326,246,193,294,137,59,88,95
341,230,132,241,134,58,87,95
301,198,124,214,121,54,83,81
327,190,117,207,115,50,63,101
367,182,160,193,105,50,63,103
358,167,181,106,70,55,73,118
416,198,171,109,68,58,78,119
419,199,171,119,72,56,73,129
431,236,179,132,79,55,75,131
412,248,160,152,83,57,80,134
402,256,141,150,85,56,77,131
349,230,137,139,83,61,82,140
353,255,143,163,79,66,88,131
292,218,144,192,105,71,87,129
334,210,117,196,128,76,92,134
316,198,104,215,131,74,93,134
310,195,111,222,129,66,82,124
339,192,139,221,138,61,76,126
366,219,135,190,114,62,76,123
345,242,136,178,88,60,77,126
341,244,137,176,86,60,75,115
313,246,155,186,83,61,78,108
288,235,121,166,75,64,82,107
281,236,114,170,78,69,99,115
240,205,113,181,77,65,96,103
229,248,135,173,67,60,90,107
223,242,106,152,66,59,90,108
216,239,108,152,62,59,100,117
212,209,112,184,69,50,84,103
310,208,116,180,74,49,80,113
319,162,99,177,79,58,91,110
328,169,98,198,88,62,94,115
333,159,98,205,87,58,81,105
344,234,116,175,80,55,89,109
279,253,126,174,90,66,97,97
297,247,120,172,99,73,103,107
297,249,126,152,92,73,103,114
292,251,128,168,93,71,101,120
271,187,121,179,98,72,90,112
306,175,109,166,91,67,87,121
291,181,101,160,79,54,75,116
282,204,99,157,82,52,67,109
272,220,119,137,92,56,69,109
289,243,103,115,96,59,80,113
258,236,99,112,86,57,81,104
285,242,112,98,86,58,80,99
302,219,132,124,85,56,81,96
329,225,116,106,68,52,84,90
315,219,118,107,59,55,86,92
315,221,119,115,60,51,78,89
284,228,116,140,59,46,69,82
267,228,93,121,62,49,71,84
282,215,91,128,63,50,72,108
305,211,92,126,59,48,65,110
307,224,120,151,66,49,67,120
314,216,122,141,77,51,70,123
323,250,121,137,72,55,86,136
290,254,118,139,78,62,101,122
255,234,122,155,84,60,102,112
272,254,107,158,77,61,101,108
268,258,98,153,73,66,112,112
282,231,101,159,78,61,103,101
324,233,103,156,71,52,84,110
356,248,147,195,84,52,81,120
340,216,142,176,88,59,87,119
348,197,142,171,83,52,78,123
348,185,149,173,80,58,82,115
353,173,164,198,89,60,81,104
333,157,126,159,73,54,86,95
322,159,125,158,77,50,81,93
355,193,136,162,74,47,76,88
442,204,129,169,77,44,69,126
407,194,111,144,76,50,71,126
419,219,110,144,86,57,67,134
422,234,120,146,84,56,66,142
405,205,154,166,91,59,66,142
310,202,157,159,87,61,74,117
307,239,159,155,82,59,72,111
281,224,173,145,70,52,66,97
287,218,170,148,73,53,66,83
267,220,134,121,69,52,76,94
247,244,127,118,71,50,68,93
249,217,129,119,68,45,69,100
251,231,110,135,72,47,66,106
241,209,103,130,63,43,69,107
249,208,104,130,58,50,74,100
235,260,117,167,78,49,74,99
249,333,113,178,91,55,79,97
231,331,112,161,87,53,81,98
238,351,167,174,84,53,82,98
281,351,163,183,87,47,67,90
288,294,166,151,72,48,71,98
281,211,174,141,65,47,74,104
318,189,181,151,69,51,86,104
328,174,137,144,78,54,86,103
298,169,159,143,76,54,86,117
307,173,142,136,72,51,88,115
321,165,140,131,69,52,96,111
297,163,150,134,71,49,87,122
295,151,180,139,74,50,88,131
298,210,188,138,76,55,97,123
318,207,193,149,83,60,95,123
300,224,187,150,80,62,82,126
298,237,183,150,76,61,84,111
281,232,154,135,66,59,94,100
255,185,126,124,63,58,91,95
288,235,131,123,55,52,96,95
312,235,132,122,52,46,94,88
333,231,114,108,55,54,98,96
359,242,152,124,52,53,85,97
371,249,161,137,57,53,79,97
316,208,177,145,59,55,77,92
287,190,190,142,66,62,84,92
256,189,196,149,60,54,75,94
206,177,164,132,63,55,76,90
210,177,169,146,63,57,77,101
217,167,144,139,63,55,66,92
207,160,143,144,64,52,66,93
239,157,164,160,76,55,71,101
246,164,170,171,76,53,73,103
231,171,166,144,72,47,77,99
257,179,184,141,68,47,83,104
254,184,196,160,62,43,77,98
231,189,186,149,48,43,71,78
238,180,185,145,48,42,69,89
282,189,228,204,56,40,61,91
293,216,223,207,63,47,53,83
325,253,229,190,66,47,57,97
330,252,229,185,65,45,71,100
327,260,236,183,64,46,73,93
290,247,214,125,59,47,77,87
282,220,212,175,86,53,86,97
293,229,193,197,104,68,101,103
285,222,190,226,112,68,93,102
301,218,176,222,111,72,92,102
304,240,137,225,114,78,104,108
295,275,141,190,94,72,100,107
263,233,130,176,73,59,83,91
255,242,152,157,68,61,92,91
256,255,154,165,77,63,93,92
250,229,153,160,68,53,73,87
220,177,154,149,69,54,68,80
271,173,174,141,71,54,70,83
277,171,150,122,72,61,63,88
272,154,145,109,64,57,65,86
261,153,150,110,71,60,75,85
282,152,135,129,70,60,82,88
250,145,136,129,63,58,90,91
239,129,139,132,59,48,86,83
237,106,143,139,60,47,81,81
252,113,139,134,53,41,79,77
236,118,146,125,51,41,74,72
199,109,133,124,61,54,88,66
220,112,129,130,69,66,113,74
202,105,139,146,76,70,121,87
207,94,137,159,84,76,123,89
203,91,134,153,85,78,126,90
196,93,122,157,82,71,111,91
181,90,135,158,77,61,86,89
178,88,124,146,72,54,76,75
183,92,147,142,69,55,80,74
191,101,148,149,75,57,74,80
214,112,172,159,80,59,85,85
211,114,158,142,75,56,85,83
206,117,159,136,73,60,86,84
174,106,137,124,64,53,84,87
147,92,126,111,53,45,82,82
112,79,100,148,47,40,73,73
131,81,110,163,68,55,80,71
153,82,170,171,75,53,78,73
170,78,183,177,80,54,69,72
210,103,228,188,85,58,78,74
220,108,229,141,84,60,83,87
220,121,227,131,73,50,82,85
230,118,200,126,68,56,89,80
227,138,196,127,69,56,88,72
204,126,142,128,74,57,82,77
214,121,133,130,73,57,77,66
209,105,131,137,78,57,72,69
187,116,150,144,83,52,67,73
226,108,141,136,83,55,68,82
230,108,152,122,74,51,67,85
220,108,175,119,73,49,60,83
210,105,179,111,64,50,62,84
210,92,147,94,67,57,84,84
198,86,197,105,65,58,88,79
184,83,191,113,71,58,86,62
180,81,177,120,77,67,105,67
191,84,179,113,80,69,111,70
192,86,180,116,70,63,94,71
151,78,149,111,74,61,89,66
182,96,154,103,68,62,91,80
218,107,155,103,63,53,71,80
216,104,152,110,67,51,60,82
206,107,174,114,71,56,71,80
220,106,169,131,63,52,68,85
201,87,163,133,65,52,73,79
196,85,156,129,61,50,73,91
190,85,151,131,53,48,74,85
212,84,134,131,55,42,72,87
206,92,129,115,63,48,84,88
206,105,130,112,59,46,78,84
182,95,125,111,60,45,82,74
184,105,132,112,61,45,78,74
162,106,127,113,56,43,73,78
228,105,117,117,47,43,67,90
227,94,136,129,50,44,74,89
223,99,142,133,59,45,72,94
236,94,147,131,56,48,89,96
268,133,153,133,55,52,92,101
209,149,187,143,53,48,88,90
204,159,183,139,54,57,92,107
216,157,211,149,43,60,99,111
218,161,204,158,49,56,84,114
188,146,211,157,49,52,79,119
245,143,194,153,58,53,81,129
275,146,195,148,57,45,81,124
289,150,165,133,57,41,71,114
277,154,180,132,62,48,74,113
289,146,162,139,70,53,76,109
316,156,173,131,64,50,81,128
292,149,205,151,70,52,73,126
279,148,206,159,74,54,86,132
281,144,210,158,68,53,85,130
259,137,213,163,71,55,90,130
177,147,212,180,74,60,91,110
176,146,204,173,67,58,90,102
234,178,210,184,66,57,75,100
247,186,207,179,69,57,81,115
268,196,214,169,61,56,81,104
284,175,207,146,62,54,73,97
303,199,181,140,63,55,80,122
266,169,178,113,64,60,86,124
276,180,194,117,61,57,79,123
299,207,203,121,61,56,85,136
280,209,188,123,55,54,87,133
292,183,194,123,56,53,89,124
297,194,189,125,54,46,87,128
274,180,150,117,55,49,91,119
251,142,127,125,59,49,85,125
337,174,135,137,66,53,100,141
350,178,115,132,64,55,101,147
356,182,117,132,64,56,99,143
369,227,126,133,65,56,96,141
369,224,118,111,56,52,91,128
292,203,114,107,47,47,78,114
274,207,128,140,55,46,65,96
248,194,138,141,52,48,86,99
252,150,138,146,50,49,85,102
236,168,164,171,58,53,83,97
224,157,178,177,63,54,82,89
193,150,172,156,60,57,88,94
202,158,157,154,62,56,72,80
195,175,167,146,59,54,82,93
196,175,160,137,57,55,90,102
264,186,145,118,57,54,85,104
305,199,146,130,59,54,79,102
364,233,154,135,59,56,88,113
368,209,137,139,61,54,83,105
368,196,126,135,56,50,77,100
339,185,131,139,54,56,85,111
334,173,122,121,50,53,91,122
286,170,112,118,53,51,83,119
275,186,137,142,63,50,79,120
280,189,141,138,71,57,79,116
262,197,135,144,72,52,77,106
218,200,148,147,75,54,77,89
225,193,157,147,71,50,76,103
234,197,137,125,65,52,78,98
280,190,139,141,61,49,78,108
305,197,139,144,57,46,76,105
320,191,129,149,56,50,69,105
291,170,137,154,66,57,65,88
290,143,136,147,65,56,66,94
232,192,153,142,60,53,70,87
293,191,154,130,63,56,64,101
291,207,156,121,66,59,66,103
297,191,147,123,57,59,75,101
296,191,163,129,63,65,75,93
323,149,130,103,66,65,72,98
299,172,146,120,64,64,72,88
305,148,159,148,60,56,70,85
320,148,153,148,68,53,70,100
318,146,134,158,72,54,82,105
300,156,171,169,73,55,86,108
261,135,156,160,74,53,84,103
262,143,137,140,74,56,90,111
273,144,143,136,68,57,87,110
288,152,168,128,52,46,74,107
298,151,147,142,56,46,74,103
287,137,147,149,67,59,88,105
261,162,154,143,63,56,79,104
234,167,174,139,63,55,77,98
197,163,164,133,67,56,77,95
181,148,147,109,66,54,71,96
183,145,155,119,68,43,54,94
195,167,155,121,72,46,61,88
185,157,122,120,76,52,61,83
195,161,112,147,77,51,60,91
251,198,167,155,79,54,67,94
262,222,184,146,66,53,71,93
255,203,193,155,67,56,69,94
270,228,200,159,69,49,68,92
278,238,201,157,66,50,69,86
217,228,178,162,65,53,65,79
216,243,164,162,71,59,87,84
224,231,152,151,71,56,87,79
212,211,155,164,65,58,91,78
194,210,144,137,63,58,91,78
267,198,138,169,57,55,91,79
264,146,119,173,53,49,70,71
258,150,137,183,54,60,79,81
256,194,123,176,55,58,73,81
254,200,128,206,68,59,72,77
186,197,129,188,80,64,75,73
222,205,155,192,82,64,82,90
230,223,136,186,78,53,88,81
253,194,141,188,76,54,90,85
276,176,147,179,72,55,99,108
277,193,160,172,63,47,95,104
255,186,138,166,60,49,105,93
258,167,142,167,66,55,99,101
242,167,155,164,65,52,103,98
220,166,151,142,58,50,97,78
211,139,119,121,56,54,119,94
181,136,113,110,55,56,130,104
159,126,143,132,59,57,134,99
154,115,130,135,68,62,137,105
179,132,127,138,69,61,137,102
203,133,139,142,68,60,119,93
223,138,145,153,67,56,88,82
241,139,114,143,63,54,89,80
237,177,114,128,52,50,76,81
232,167,126,132,53,50,70,79
218,174,116,128,55,47,80,77
206,169,129,124,56,48,98,79
195,185,153,128,55,44,86,77
185,163,167,139,59,49,88,60
182,156,160,131,57,54,98,67
196,145,157,129,60,59,94,71
222,149,154,132,65,63,78,70
220,132,140,136,57,62,77,70
252,181,118,132,58,60,78,82
255,189,114,132,59,62,75,84
240,198,171,136,70,63,72,76
242,206,191,164,69,60,78,80
261,205,216,174,71,63,91,89
262,157,218,179,71,63,89,87
295,168,219,189,75,63,101,98
294,162,185,203,71,66,114,109
274,145,160,180,74,66,112,112
272,175,150,171,85,66,104,110
246,207,169,173,85,66,105,108
189,200,170,164,80,57,87,97
206,208,169,151,74,46,64,92
240,227,190,160,74,47,61,82
231,214,159,147,62,45,60,75
243,183,135,162,67,47,55,76
271,183,164,174,66,49,68,87
264,178,158,176,61,50,83,92
277,155,162,181,60,51,84,112
272,160,207,196,58,50,88,118
279,182,208,176,49,55,112,120
294,194,191,163,58,60,111,116
296,207,201,164,60,58,101,112
259,208,177,160,58,55,98,100
281,197,124,143,63,59,101,93
296,184,140,142,63,53,78,88
261,168,138,143,56,47,81,86
281,149,139,156,61,52,88,88
281,177,153,158,61,59,97,92
265,183,181,165,56,56,90,95
258,187,178,165,58,58,91,101
257,188,187,166,60,58,81,108
235,213,198,145,55,55,74,107
246,205,184,128,59,49,61,101
240,221,160,134,62,46,67,104
265,230,198,168,67,45,66,106
263,227,190,176,71,45,69,122
337,292,245,188,70,47,74,136
347,311,265,206,69,49,86,148
373,301,261,192,63,48,83,147
349,299,231,165,58,49,87,147
357,305,233,155,59,63,95,125
302,277,177,140,71,72,112,111
362,311,148,112,77,80,118,128
373,335,152,131,82,81,119,134
383,331,177,146,81,80,126,128
388,334,192,171,81,71,121,138
386,303,166,172,71,62,108,140
375,247,193,172,66,56,99,112
373,212,198,169,65,57,106,115
351,210,191,162,62,53,90,127
358,221,188,142,56,54,89,132
369,217,190,164,65,59,93,154
323,204,185,179,59,49,88,155
288,200,173,171,56,50,81,150
311,238,174,170,59,53,86,143
340,220,159,167,58,54,84,143
319,217,165,156,56,54,81,114
315,223,162,148,62,59,79,112
325,228,173,152,61,61,82,129
295,184,157,148,60,59,80,123
250,184,150,140,58,57,80,109
290,213,154,130,53,61,120,143
294,220,142,126,57,60,120,142
299,239,172,136,63,59,116,128
317,241,176,142,69,63,116,138
343,250,184,152,71,64,121,143
322,215,178,166,74,61,88,142
346,210,209,179,71,65,93,150
338,189,180,167,66,62,92,145
366,182,183,162,63,62,99,150
340,177,179,159,65,60,93,146
330,194,215,149,68,58,81,111
294,194,193,143,68,53,77,102
295,210,196,146,70,58,82,114
327,205,190,150,67,56,79,105
321,216,197,151,68,64,90,110
339,210,159,147,62,61,91,136
383,241,139,158,66,61,91,152
384,241,133,158,67,57,92,150
319,247,119,149,69,58,88,144
341,238,133,172,71,53,80,143
314,250,156,189,77,54,80,126
253,266,251,158,70,54,81,104
228,256,259,156,67,54,74,96
257,275,263,158,70,58,85,94
301,265,256,150,64,59,89,94
312,293,255,127,57,59,89,112
331,261,175,133,53,57,89,108
370,257,168,126,54,63,97,110
356,231,185,142,47,56,85,116
300,240,185,120,44,49,75,114
307,182,180,114,49,49,78,91
302,175,176,111,51,49,74,116
289,162,209,123,49,39,72,115
287,171,195,101,53,40,78,115
284,173,205,105,54,43,81,116
320,211,189,124,57,48,74,127
311,210,214,137,62,47,76,112
285,222,203,175,69,49,71,116
287,215,198,176,69,51,66,109
301,265,256,150,64,59,89,94
312,293,255,127,57,59,89,112
331,261,175,133,53,57,89,108
316,212,191,182,74,50,65,122
265,174,198,184,72,49,76,119
277,200,171,179,70,52,79,113
288,192,153,134,71,55,84,111
326,224,162,141,72,57,83,125
313,225,158,132,67,58,95,130
355,235,173,122,63,58,92,129
380,206,167,115,61,56,88,147
437,226,153,133,52,55,97,184
406,211,150,137,52,55,100,184
399,223,143,138,55,56,85,171
367,216,120,132,59,56,86,179
353,245,121,136,61,62,104,191
282,228,132,133,63,63,95,154
288,215,131,133,59,60,97,147
300,203,130,133,56,59,96,155
316,214,123,128,60,66,100,145
294,183,111,128,59,66,84,114
312,204,128,138,69,61,80,121
305,228,135,137,69,63,74,128
299,236,138,130,71,68,84,119
269,232,138,129,63,60,77,116
266,238,140,147,70,54,72,109
261,240,154,142,62,55,68,105
263,220,147,137,62,51,67,95
290,227,139,154,68,50,80,95
320,239,155,167,70,53,93,105
331,241,169,169,71,58,96,109
328,216,139,154,69,58,100,103
346,212,143,167,73,61,107,105
323,196,148,158,68,62,105,130
325,250,159,155,71,65,96,134
324,235,160,143,63,63,102,136
323,237,158,142,62,60,100,139
310,257,146,134,64,59,95,132
311,263,174,161,61,56,82,106
276,187,165,167,65,56,77,86
260,183,163,178,70,57,67,82
263,193,174,187,74,60,68,77
286,185,185,185,70,62,68,84
281,181,161,155,73,65,66,81
317,178,143,147,70,58,62,75
313,187,160,138,66,54,72,75
300,177,168,145,62,57,68,82
286,193,167,147,65,59,82,94
274,186,165,143,64,63,94,95
253,198,176,151,66,65,107,101
246,200,164,139,66,66,101,103
263,232,154,116,65,64,106,105
286,238,162,103,66,68,110,106
326,240,154,114,64,65,104,119
335,250,150,98,60,61,90,117
330,257,153,114,60,64,89,115
313,229,148,140,76,67,91,110
322,200,129,161,89,67,93,127
373,216,161,170,91,64,93,127
363,215,177,185,88,64,97,130
400,224,165,177,90,63,99,147
414,221,164,166,77,59,93,148
397,222,184,156,59,55,80,126
317,203,158,147,53,53,74,111
347,204,137,130,54,55,78,112
339,210,135,133,51,56,82,90
308,209,135,120,51,58,93,90
296,196,105,108,51,52,89,107
298,193,100,103,57,51,87,108
260,198,176,114,67,52,88,99
244,204,183,109,70,52,84,99
250,209,183,117,66,51,83,104
232,219,205,122,65,51,84,82
247,234,216,124,66,58,88,91
274,220,163,117,58,57,94,98
271,186,154,120,53,59,107,98
404,179,178,117,53,56,97,97
463,175,173,138,55,56,95,99
458,181,184,136,50,54,99,96
437,175,197,147,46,56,95,91
443,164,194,144,53,62,103,104
323,191,187,154,62,61,107,96
233,198,189,148,65,60,108,89
268,182,184,156,68,58,103,91
284,182,170,143,72,62,102,93
314,197,182,148,71,55,81,93
328,174,210,158,74,57,76,101
339,183,191,147,69,56,77,108
347,177,181,143,75,57,86,114
349,177,210,171,80,59,93,126
300,182,206,179,77,57,87,116
298,200,171,159,70,62,89,111
308,208,191,163,74,70,104,130
290,229,188,166,75,73,100,129
271,234,171,160,74,69,91,120
272,221,181,156,75,70,97,122
276,231,169,156,72,67,101,131
257,224,150,153,69,65,91,106
254,208,154,153,69,62,87,98
310,199,162,133,70,63,94,125
315,243,170,138,82,66,99,133
308,230,180,145,81,61,106,131
332,221,181,139,79,57,113,139
310,252,196,142,81,58,111,139
290,260,182,152,85,59,104,113
275,228,159,134,74,64,106,105
285,227,153,133,79,72,99,112
271,217,147,136,82,75,86,110
270,183,129,135,73,72,87,108
228,183,128,120,60,66,88,111
264,206,120,116,60,64,88,116
274,194,113,112,56,55,86,105
269,198,148,138,69,55,84,95
268,210,151,133,70,57,86,94
313,221,139,131,68,60,85,115
301,206,142,133,70,61,76,111
304,212,161,147,74,63,72,106
295,220,137,131,61,61,76,109
302,239,131,122,63,63,82,116
273,228,140,136,62,69,95,92
288,216,169,165,63,64,96,80
254,211,156,160,62,64,96,79
244,209,149,149,62,62,92,80
249,164,143,148,59,58,85,80
287,153,208,143,68,48,64,86
255,150,194,111,64,48,63,90
253,166,204,123,65,53,73,103
280,169,227,141,74,57,81,107
294,173,229,141,74,58,79,102
253,233,186,145,69,61,88,100
265,244,188,154,74,61,92,106
295,263,173,134,71,63,114,127
277,260,163,128,58,60,113,124
305,275,166,130,59,58,114,131
357,243,141,133,61,59,116,129
364,236,149,149,67,56,112,121
407,210,148,162,79,57,86,99
457,228,124,156,82,55,84,99
436,213,124,149,80,54,90,98
404,234,209,177,78,50,85,105
393,248,216,160,81,63,98,107
329,260,241,156,72,56,100,99
282,249,242,154,72,58,102,102
251,255,244,181,85,59,100,90
276,243,190,152,86,59,95,94
273,242,173,142,72,48,80,91
278,247,136,137,72,50,74,86
261,251,140,142,66,48,71,87
267,283,155,116,52,48,66,95
230,288,137,107,58,58,75,97
243,283,133,123,62,57,75,102
278,260,132,120,57,58,86,107
296,250,148,115,60,60,83,111
291,213,128,127,60,59,91,110
295,173,125,126,59,49,85,100
293,160,121,120,61,56,106,102
278,170,139,131,67,54,107,107
258,201,129,141,72,58,114,107
280,185,116,124,77,66,109,100
276,185,125,121,70,68,109,102
290,199,135,123,73,61,89,97
285,187,125,132,78,63,85,94
290,178,111,136,84,59,83,91
331,173,140,149,81,51,78,95
322,174,141,158,89,58,81,90
299,158,135,158,87,67,92,92
303,159,148,158,79,63,83,90
293,216,168,173,66,61,77,91
252,243,157,183,75,73,100,94
248,246,150,177,65,67,98,97
258,253,159,175,65,60,89,97
262,258,179,168,75,58,89,94
252,200,165,141,77,62,93,90
254,207,155,119,68,55,84,93
271,222,158,121,72,56,83,91
270,236,152,132,66,54,82,88
243,246,107,132,62,54,84,83
254,261,117,140,66,54,95,81
246,242,139,136,68,49,82,76
271,243,136,137,65,48,82,87
265,252,178,138,68,51,85,88
272,258,198,153,74,64,101,92
266,238,188,145,71,63,86,89
266,252,186,148,73,62,89,92
252,254,232,149,87,70,94,87
269,237,197,134,92,78,103,93
264,214,175,103,85,70,88,90
260,212,177,107,80,70,90,91
253,195,193,108,80,71,88,86
227,183,131,100,69,68,90,81
215,176,135,100,57,59,97,89
236,203,139,121,61,62,99,98
276,210,158,136,70,60,100,120
280,198,130,132,65,57,98,118
294,215,143,133,66,54,91,126
296,215,141,131,70,52,72,129
320,199,137,143,70,54,88,153
301,183,139,165,71,52,85,138
302,189,148,178,78,58,90,148
293,180,140,180,74,58,90,147
284,180,154,183,76,65,105,139
262,174,155,165,77,62,91,108
252,182,148,138,69,61,95,113
247,191,129,112,60,55,91,100
269,204,140,126,62,62,117,100
269,200,124,120,54,50,101,99
243,205,123,133,46,45,100,95
239,215,126,126,45,45,97,82
273,202,131,126,45,52,107,82
250,173,115,106,43,45,79,76
244,168,125,111,46,47,76,72
276,179,150,88,51,50,76,79
311,174,133,102,58,54,78,91
274,176,135,109,58,48,63,92
281,174,142,110,63,46,58,88
307,192,138,118,62,49,69,97
282,183,122,120,63,47,69,90
248,179,140,98,55,45,66,93
297,179,135,98,59,48,75,93
290,207,138,118,55,47,79,94
305,186,165,132,57,47,82,102
332,202,169,139,62,53,99,130
324,188,157,147,64,52,105,124
300,191,209,193,68,53,103,131
300,198,218,207,67,56,112,141
264,202,195,193,67,58,118,150
246,182,188,187,59,58,108,132
261,185,209,186,62,58,100,130
237,192,158,138,57,54,94,121
250,165,133,99,66,55,83,113
233,167,136,108,67,48,65,82
245,169,153,116,69,44,56,84
230,178,134,135,66,45,66,88
278,187,136,134,65,50,73,108
268,173,146,135,57,46,76,110
303,180,145,130,53,46,83,109
302,191,139,124,47,49,89,115
329,192,127,104,52,53,97,116
310,172,127,129,59,54,101,100
330,176,114,140,61,63,109,103
317,167,138,139,65,64,104,107
299,146,136,160,67,63,99,93
286,147,138,154,60,58,87,90
267,161,150,145,61,59,98,98
288,154,154,138,57,49,84,90
302,172,144,161,62,54,86,100
304,208,144,151,67,50,84,101
287,234,146,158,70,53,89,100
295,228,130,143,60,45,68,105
271,228,128,137,63,54,82,121
249,215,133,133,55,47,77,110
366,217,131,149,59,52,84,140
408,219,131,144,61,56,84,150
472,240,143,151,64,60,88,166
462,261,178,182,64,54,77,156
541,276,178,184,75,63,98,185
473,259,171,160,70,61,97,166
464,238,162,156,65,60,93,170
405,237,155,154,73,58,88,156
440,230,145,147,87,62,89,162
362,223,130,129,85,63,81,138
379,266,131,130,89,69,91,145
358,268,143,140,91,65,96,133
350,251,158,154,85,67,114,130
335,250,142,153,74,60,111,126
305,240,136,149,67,50,102,121
381,265,137,149,58,45,94,119
439,270,140,161,58,47,98,141
453,268,151,169,62,43,82,135
502,262,140,154,64,50,98,154
573,282,143,159,65,52,98,157
515,203,152,159,69,49,97,149
465,185,162,149,67,49,89,128
488,185,133,120,69,58,93,137
415,189,132,107,62,54,79,107
329,175,138,120,71,56,77,99
326,183,136,129,77,55,69,106
318,177,132,117,75,55,68,102
305,199,130,118,70,49,64,100
331,196,144,139,74,50,67,99
326,200,179,131,68,46,70,94
327,203,173,134,64,47,81,90
357,218,160,154,78,62,98,108
332,206,162,158,79,64,98,94
325,206,160,152,74,64,97,100
335,247,134,158,70,66,97,103
332,253,129,149,70,69,93,100
308,255,123,126,56,55,79,79
317,257,128,127,54,58,93,80
338,269,139,128,60,58,95,93
336,222,114,121,61,54,92,92
367,214,116,127,69,68,108,92
369,230,122,140,71,70,108,89
336,216,118,135,71,64,96,89
320,204,96,125,68,64,91,70
311,198,109,115,66,66,91,75
283,192,119,120,62,52,77,88
266,152,116,121,65,49,70,91
266,159,132,136,64,53,69,97
234,156,145,144,68,54,73,99
324,186,142,141,71,54,78,113
339,194,133,125,61,52,82,124
379,199,134,115,62,63,100,134
383,206,132,113,65,64,100,128
403,204,116,110,71,64,99,128
337,168,113,127,71,69,121,114
346,165,109,125,71,71,113,96
324,172,153,135,72,63,97,84
329,157,139,122,65,59,95,96
386,172,138,111,56,62,105,114
387,209,137,100,62,62,72,114
356,201,173,140,69,59,73,109
346,197,152,138,64,57,73,107
349,222,154,146,67,56,79,106
274,217,153,159,69,57,86,93
262,197,164,165,65,47,92,93
260,207,133,158,64,55,104,102
280,213,114,152,66,53,103,112
269,201,113,144,65,51,100,105
246,189,118,143,65,46,91,105
246,175,146,140,59,49,93,113
254,182,143,115,54,42,81,111
220,205,155,115,63,51,97,106
223,188,158,128,69,55,99,110
279,198,160,121,68,54,95,143
307,203,132,137,72,52,93,139
320,184,150,161,71,51,95,141
380,203,136,156,62,45,79,154
368,217,135,147,61,44,79,155
327,206,139,158,61,40,75,118
305,196,134,137,58,40,68,113
306,213,113,109,62,45,82,110
245,181,139,131,61,44,80,86
275,185,198,168,60,41,77,77
308,196,196,188,72,47,76,83
351,214,200,191,71,48,77,96
352,199,199,189,68,47,66,96
362,195,219,179,69,47,70,97
363,197,194,169,71,47,74,106
356,224,216,131,67,47,91,119
364,216,223,134,71,49,106,116
366,236,225,152,72,46,100,114
353,227,206,153,76,48,97,120
338,212,183,129,70,47,102,121
349,174,152,143,71,48,91,106
296,237,137,139,73,52,80,101
290,228,155,122,73,52,78,106
296,221,144,118,68,53,86,104
309,233,145,128,69,54,74,97
277,239,142,128,61,52,69,93
263,179,151,126,56,47,61,90
237,203,131,128,58,47,69,81
231,224,134,135,61,49,66,71
248,224,156,126,58,53,86,93
237,217,168,136,58,52,86,93
243,214,155,137,54,48,84,92
248,193,156,141,52,54,80,95
251,189,154,146,60,61,87,111
235,178,128,153,74,61,74,95
256,180,117,135,75,63,77,94
256,177,134,136,77,65,81,98
263,192,132,131,74,60,83,94
293,208,120,133,69,61,100,86
290,209,170,137,58,57,97,90
278,235,171,131,56,53,94,92
306,234,165,137,62,56,99,98
309,218,171,137,65,66,108,101
296,181,173,137,70,64,93,90
296,197,128,128,68,62,92,81
