103,87,41,38,108,256,208,163
133,107,41,46,112,265,186,154
140,112,41,48,122,286,175,171
128,108,47,49,120,273,167,163
169,111,43,45,112,263,155,204
168,124,44,48,104,250,154,203
155,114,47,46,108,253,158,232
160,110,49,46,98,241,182,221
159,99,43,45,104,253,192,227
117,90,41,48,113,252,192,188
108,68,41,44,108,249,182,191
109,65,42,44,96,229,207,182
88,66,43,48,108,260,198,185
103,90,45,50,113,258,200,177
119,99,49,52,102,245,240,209
117,114,50,53,105,247,257,214
134,129,46,50,102,247,238,196
139,132,46,49,90,194,235,186
133,121,45,46,82,186,231,189
128,117,44,43,107,306,183,158
155,134,50,46,114,317,167,142
140,122,50,49,113,313,181,160
135,122,52,47,128,355,184,169
148,123,53,50,129,354,171,170
152,133,53,55,117,271,196,235
150,101,44,49,111,266,192,234
158,101,46,49,109,262,175,219
160,96,42,46,102,228,196,231
147,120,49,47,105,242,236,251
140,110,45,40,98,253,214,187
114,109,49,44,108,268,226,218
102,118,50,48,134,313,229,221
111,124,53,49,126,301,218,237
115,100,48,51,123,285,175,212
113,100,47,50,123,269,174,209
134,129,47,51,120,259,178,216
136,126,45,48,91,211,188,220
138,122,38,49,96,216,190,213
137,122,37,49,99,221,233,253
136,133,40,50,107,263,236,268
121,109,42,50,107,259,224,244
146,115,41,46,107,259,214,250
141,112,43,47,115,277,202,251
147,118,46,47,118,280,173,222
144,109,44,48,141,314,192,208
139,112,43,46,144,342,194,202
109,94,47,46,143,353,194,185
155,100,46,44,134,356,203,209
147,90,43,40,134,362,189,194
149,83,43,36,118,342,172,191
149,74,42,36,124,353,185,209
147,75,38,34,123,350,188,220
103,71,42,39,128,333,183,169
108,84,43,40,124,323,213,184
116,113,43,45,120,294,215,178
119,117,43,44,102,230,195,168
113,117,41,45,103,209,186,152
119,137,47,49,110,236,205,166
114,140,55,51,125,279,196,192
107,127,56,47,114,262,189,201
100,126,59,50,115,262,222,202
107,134,63,51,126,296,234,242
109,118,59,48,145,317,227,249
110,106,53,45,127,276,207,227
106,105,56,47,130,282,200,220
110,109,51,43,135,294,174,214
103,105,49,44,125,270,173,186
85,103,48,40,96,235,157,184
79,107,45,39,99,239,173,183
87,102,41,39,103,244,177,218
115,122,45,41,102,236,165,228
114,120,46,40,103,231,157,225
152,122,45,38,97,207,168,211
164,117,47,43,92,192,158,212
161,122,48,43,82,182,168,186
140,102,48,42,77,171,186,171
146,117,48,45,86,167,196,176
107,109,46,45,89,167,180,182
111,118,48,46,94,184,166,194
141,135,49,45,94,179,174,188
143,140,45,46,96,173,159,194
141,123,46,41,89,198,152,188
136,124,48,44,107,256,159,177
120,116,50,43,104,243,171,168
110,96,49,42,107,254,149,169
113,97,49,41,104,263,183,171
109,97,47,44,107,263,199,167
112,104,44,42,95,230,219,168
112,107,38,40,95,235,227,157
96,137,45,41,118,300,244,158
125,150,44,39,118,294,224,156
127,156,51,40,110,275,215,185
125,154,51,38,101,256,201,189
126,160,51,39,112,271,228,194
147,131,47,41,109,232,242,197
119,105,49,41,111,242,241,196
125,99,46,38,110,243,226,168
132,99,46,41,119,249,221,159
129,100,50,42,117,249,200,169
94,95,50,38,104,249,174,171
102,94,48,41,126,289,186,183
104,105,47,43,130,306,188,186
105,110,47,42,120,299,192,192
121,100,40,41,110,278,168,182
131,106,41,43,105,247,172,179
125,106,40,41,79,205,171,177
114,91,37,39,85,181,175,162
106,80,39,39,95,213,168,168
95,78,40,41,99,220,177,161
84,78,38,41,95,209,166,165
81,82,37,41,90,193,173,170
94,91,39,43,91,211,171,174
144,133,38,48,106,241,180,172
156,179,40,53,159,347,174,189
160,182,42,53,165,350,170,174
163,182,42,54,165,358,148,154
159,187,45,57,166,379,149,180
117,167,43,53,161,362,134,170
121,120,41,49,126,300,137,154
116,110,41,47,123,303,146,176
114,108,41,45,125,294,145,188
126,106,43,45,120,265,148,165
129,99,47,49,148,300,153,185
127,119,49,50,133,270,158,198
124,118,49,50,136,262,149,184
124,117,51,52,148,293,152,167
111,103,50,54,171,345,152,167
136,117,50,52,149,313,191,138
121,109,50,51,149,321,189,108
123,114,47,50,148,332,190,111
128,119,46,49,132,299,194,130
134,129,52,46,105,237,205,174
114,114,48,45,91,211,166,179
110,102,46,40,90,213,219,186
117,99,54,41,84,187,220,189
117,99,55,48,95,202,218,211
107,101,47,47,88,190,200,174
98,95,47,49,119,260,225,215
104,92,46,50,132,282,183,230
125,101,40,53,144,308,182,225
139,117,47,57,168,382,191,218
156,112,48,56,180,412,223,240
163,123,55,57,171,458,205,212
157,138,57,58,186,466,186,192
137,134,59,57,182,467,198,283
115,128,58,50,165,421,197,270
107,127,57,50,157,398,167,256
110,127,53,50,159,309,153,250
149,121,49,52,129,277,158,252
147,117,48,52,128,271,184,215
146,106,39,49,122,256,178,211
137,109,41,47,115,259,193,210
160,105,36,40,97,245,205,218
149,126,44,43,100,236,217,220
167,125,44,42,96,216,207,169
206,133,46,48,101,236,227,176
207,125,42,50,106,242,214,167
216,137,46,52,125,272,209,167
211,112,42,50,123,272,203,190
204,117,46,54,127,290,181,174
178,120,44,49,124,271,154,189
190,147,49,50,125,291,171,197
153,134,50,50,125,295,179,212
137,131,52,55,129,313,189,200
144,131,51,52,127,314,201,196
135,129,52,51,122,314,197,176
127,99,48,50,122,286,185,187
125,96,44,45,106,260,188,175
128,99,40,35,103,235,178,167
109,104,42,38,99,205,186,216
104,99,39,36,112,219,193,219
89,106,42,34,110,216,189,216
84,102,40,35,116,208,214,230
125,139,42,42,113,225,222,228
139,143,40,41,117,245,216,193
143,141,40,44,118,254,213,187
151,141,38,45,118,254,237,183
161,164,42,47,109,260,218,154
136,141,40,43,108,248,213,186
122,134,42,44,115,262,234,198
114,132,44,41,102,240,234,217
105,132,43,41,97,223,210,213
117,114,40,43,109,243,211,226
120,109,41,44,106,236,229,198
120,101,38,41,92,224,210,177
122,101,36,44,108,267,205,179
136,97,38,43,112,300,204,181
114,85,41,44,113,329,192,189
109,76,43,43,119,353,183,241
114,85,47,48,119,344,174,245
124,120,55,54,124,342,188,245
114,134,54,55,121,324,196,270
128,135,53,55,139,362,193,266
133,142,52,56,137,364,181,221
143,154,49,54,137,372,173,219
133,127,44,54,152,395,169,206
138,123,48,55,168,437,186,184
141,169,63,62,182,443,187,193
168,178,64,61,199,461,178,207
163,184,67,61,200,454,193,212
165,188,65,56,189,453,186,237
168,192,65,56,186,451,187,238
161,169,56,55,201,498,196,241
152,158,58,63,237,548,207,236
194,170,62,65,245,558,210,263
206,179,62,65,247,557,214,239
206,172,66,68,251,569,201,240
234,164,64,61,262,607,238,252
229,188,66,57,219,552,231,280
257,174,66,57,226,596,232,285
250,173,78,71,320,756,278,330
261,191,74,68,323,752,303,356
251,199,73,75,294,668,298,375
272,189,71,72,323,735,306,362
216,192,75,78,330,742,318,366
234,201,77,72,278,646,331,370
225,195,86,80,282,670,320,374
223,183,88,73,284,695,311,336
197,169,96,78,264,702,346,375
228,188,94,79,274,729,369,369
214,173,88,76,316,798,364,356
212,164,84,77,316,783,357,400
258,180,85,82,335,859,371,421
251,196,75,79,323,792,342,384
221,167,71,75,355,849,348,366
245,172,76,75,308,771,318,352
254,174,86,84,365,824,354,293
198,174,85,83,347,720,326,278
215,182,85,83,351,731,321,292
211,177,84,79,295,593,270,288
174,171,75,76,285,603,345,322
162,167,61,64,224,575,314,313
223,208,72,82,214,595,323,294
210,192,73,84,224,610,317,285
218,208,75,87,229,626,334,332
233,210,78,87,202,539,245,305
231,210,75,84,193,507,244,294
193,160,59,63,196,481,233,326
191,164,61,62,184,452,244,349
208,147,59,64,180,441,276,325
213,164,62,66,196,502,277,317
206,158,67,62,162,440,277,317
230,161,75,73,195,489,287,316
262,174,78,80,239,621,305,320
251,187,94,82,250,656,256,306
261,184,103,83,273,732,250,333
282,218,107,90,280,749,237,324
272,234,115,86,264,730,238,290
265,237,121,86,241,651,232,304
304,247,109,88,230,631,282,347
326,247,105,89,191,534,300,341
315,234,116,91,184,538,304,349
312,294,110,95,189,587,325,368
336,296,110,92,193,655,357,348
305,316,115,93,206,667,385,346
276,347,112,93,208,647,375,318
278,357,107,87,213,691,380,339
266,308,104,85,206,654,362,356
246,311,95,86,187,601,332,331
238,323,104,83,169,593,276,284
323,324,110,89,183,684,310,305
322,311,107,95,204,674,337,286
344,325,109,89,195,665,340,254
359,332,113,85,194,684,333,277
394,307,104,81,197,705,362,340
319,301,102,75,189,640,338,328
315,295,94,71,166,618,325,320
324,282,94,72,176,631,317,311
282,290,94,79,180,589,312,310
284,297,95,82,167,522,261,269
279,305,92,87,155,497,255,261
378,339,102,82,145,494,243,272
369,334,105,83,131,465,300,295
378,331,102,76,122,488,316,269
357,310,102,75,159,533,361,241
367,316,107,79,167,641,368,261
307,323,116,89,180,675,366,243
294,337,125,91,182,694,338,231
319,331,126,95,194,762,334,229
313,329,124,93,169,754,300,237
325,304,152,105,178,738,371,233
313,308,143,100,165,677,373,233
310,301,139,99,170,762,379,216
271,286,144,98,147,647,380,222
338,342,148,99,149,667,385,228
338,346,117,88,128,566,328,220
355,361,119,86,135,634,327,221
359,366,109,82,125,536,301,208
391,400,107,85,126,539,289,208
326,393,108,91,124,489,344,260
327,401,109,82,125,571,346,250
293,360,104,79,111,498,342,242
280,352,105,79,105,463,359,276
318,416,105,78,109,469,393,283
334,398,99,73,103,486,325,245
380,413,93,72,94,369,328,248
390,498,112,85,105,416,349,274
394,502,118,93,119,419,337,252
359,442,118,96,119,410,298,244
358,454,118,94,122,387,302,230
288,414,118,91,121,406,310,264
275,321,103,82,117,365,329,261
273,316,94,72,104,357,333,267
258,314,88,67,98,387,348,278
251,278,83,63,95,384,354,269
264,275,80,63,94,398,327,240
261,344,85,66,89,375,279,226
285,356,91,78,113,420,281,226
287,346,102,77,113,388,258,236
284,338,105,78,112,400,248,233
277,346,107,81,113,360,236,221
327,275,107,76,113,354,262,244
307,242,101,61,85,301,249,229
306,230,87,59,92,293,263,193
316,252,88,58,88,267,268,198
338,267,83,54,81,280,286,214
281,245,83,56,82,289,285,192
296,280,83,60,87,282,288,198
282,273,86,62,89,287,291,199
255,251,81,64,92,285,301,204
240,243,81,64,95,297,288,187
253,236,67,59,90,293,270,177
252,202,72,64,91,279,267,197
252,181,65,60,78,319,249,190
307,206,64,59,77,322,243,195
309,199,68,63,76,311,244,197
308,209,73,64,82,308,236,202
289,211,65,58,79,295,270,201
296,241,64,58,82,252,263,216
250,245,63,57,87,229,240,202
235,246,59,55,86,238,243,200
224,246,57,58,84,238,259,192
268,290,75,57,79,234,252,179
279,286,81,59,76,234,277,182
275,290,86,59,63,234,280,174
291,280,92,60,68,224,287,177
286,284,96,59,76,265,290,170
272,253,88,55,78,279,269,156
255,237,85,52,81,279,274,165
286,229,86,53,84,282,274,213
271,252,85,54,85,287,270,208
272,237,84,53,79,250,248,210
244,210,83,55,81,243,242,215
246,237,87,63,92,246,246,237
223,213,82,64,96,233,303,238
207,176,74,59,88,205,303,255
205,178,73,60,83,194,321,259
238,195,71,63,91,249,324,254
235,176,65,53,77,254,311,215
237,205,82,57,77,262,279,182
233,205,83,60,85,265,292,162
233,230,78,65,85,266,313,158
193,221,82,65,72,234,314,178
197,241,87,69,75,277,327,198
170,216,68,63,68,268,331,189
179,218,71,63,60,271,311,187
201,204,77,58,55,275,273,174
213,200,75,54,57,257,267,160
198,149,66,58,84,231,233,165
200,149,68,56,86,254,191,158
228,150,68,56,92,269,213,163
201,131,65,58,96,263,214,180
189,116,63,58,98,289,258,189
212,125,66,49,74,279,256,184
209,139,72,56,78,276,259,212
171,136,81,60,75,289,254,204
193,164,83,58,73,291,247,198
200,195,81,58,66,252,215,194
165,193,81,59,72,250,241,179
172,206,76,55,69,260,276,168
179,216,64,49,65,233,301,184
148,200,70,45,63,283,309,179
133,176,70,44,65,305,288,168
154,177,68,43,66,287,297,186
160,157,77,51,66,283,289,183
156,171,94,59,68,284,260,166
172,172,86,61,72,264,276,200
204,184,86,64,78,264,296,206
232,186,89,69,86,281,352,243
226,185,82,64,88,260,341,237
224,160,63,57,93,275,351,253
214,160,60,58,93,278,363,237
192,141,59,53,91,302,375,236
191,139,53,49,79,279,294,190
188,149,54,48,78,275,298,203
209,154,53,45,66,306,312,212
235,174,55,44,67,284,352,242
239,195,66,47,65,237,326,244
212,194,66,45,65,241,325,235
214,180,66,50,79,285,411,318
198,184,71,60,82,244,389,301
171,175,70,58,84,231,333,284
165,173,59,55,80,239,353,298
144,173,61,58,81,238,366,304
140,188,58,54,64,203,258,198
135,189,55,49,60,198,262,196
122,174,59,50,54,201,252,170
111,156,68,57,60,198,239,162
143,169,67,52,59,195,221,156
142,162,70,52,62,222,223,151
169,200,76,54,65,242,247,162
171,205,80,55,66,273,303,185
174,232,75,57,77,266,305,166
145,229,77,59,73,272,296,154
194,220,74,58,73,269,304,269
179,226,70,56,77,255,276,269
190,226,68,53,75,232,213,266
189,198,75,47,78,245,226,287
216,190,70,47,79,250,251,301
185,203,76,48,80,220,259,217
171,145,73,46,75,222,268,215
154,136,67,46,77,224,281,214
168,149,62,44,64,250,259,196
136,156,69,43,64,235,243,183
116,146,70,44,61,239,223,178
146,146,68,44,67,228,237,176
165,158,70,45,67,228,256,163
195,151,73,47,62,185,258,148
197,160,70,45,62,188,256,142
231,153,63,45,68,202,274,148
218,152,61,47,68,214,267,145
204,146,58,46,72,197,238,154
162,139,48,43,73,201,235,156
155,115,48,44,74,224,237,159
141,169,53,46,69,205,217,141
135,174,54,42,64,173,204,136
139,166,53,40,56,189,218,136
129,160,55,41,58,202,228,141
145,182,54,40,63,228,231,136
121,150,55,45,63,241,222,135
148,163,65,49,60,247,284,155
147,164,70,52,63,248,270,147
156,161,70,53,59,241,267,140
161,144,74,52,47,199,269,138
156,139,72,50,52,213,283,147
134,116,64,45,54,214,260,177
134,133,62,45,53,230,273,185
137,142,65,51,56,231,261,178
129,138,63,52,60,228,281,207
150,135,63,48,54,204,269,214
150,137,65,50,59,219,242,199
154,125,66,49,58,201,242,213
151,137,61,45,56,208,243,224
156,135,59,44,58,237,219,212
140,145,68,46,62,238,245,229
168,152,65,47,66,235,236,214
166,155,63,46,68,230,216,190
191,160,63,50,68,220,237,198
192,159,61,50,65,193,237,198
189,154,59,50,65,224,213,182
164,149,61,47,55,222,239,187
168,146,59,50,57,236,276,226
179,166,64,47,57,232,271,209
170,174,66,51,64,245,282,209
174,166,56,52,73,239,309,234
257,189,62,55,76,254,300,235
262,198,63,56,85,290,306,231
240,188,60,53,90,297,310,234
245,183,61,51,87,288,289,238
247,193,67,51,81,281,268,220
197,172,71,52,80,263,266,213
193,163,68,48,68,209,238,184
184,136,67,49,68,232,247,224
217,195,67,50,72,256,281,219
211,184,66,63,81,313,296,268
201,193,58,62,79,340,278,266
200,220,64,60,79,359,298,277
208,225,70,61,82,351,326,263
195,190,75,70,86,335,308,270
199,193,75,64,81,292,300,262
175,186,76,64,78,259,307,264
176,154,74,65,92,248,282,258
190,157,81,75,103,281,325,303
185,149,74,66,107,309,322,293
196,151,78,59,103,296,299,238
201,144,72,57,107,299,344,255
203,139,70,59,101,330,348,249
183,128,58,48,92,311,274,181
156,116,58,46,82,290,270,178
125,115,49,52,91,323,292,205
129,115,54,54,89,334,224,177
110,110,58,55,98,325,219,175
112,118,60,53,103,352,201,164
131,130,63,55,112,394,215,168
131,122,70,50,115,394,196,134
143,126,74,48,124,422,198,145
146,130,76,50,144,443,195,173
149,123,72,47,138,414,191,177
130,100,70,47,131,363,196,178
143,98,64,44,125,367,197,188
113,88,61,44,128,380,207,195
119,93,60,47,94,336,219,226
107,87,58,51,87,335,229,222
105,122,61,49,92,361,212,226
94,124,63,57,91,325,214,239
96,132,61,58,77,277,222,237
81,123,55,51,78,273,202,191
97,128,60,49,81,267,200,202
94,99,60,47,72,235,219,195
88,95,57,42,82,228,225,175
114,99,62,43,91,268,251,220
150,115,72,52,118,338,297,216
145,116,70,52,126,369,296,210
148,120,70,55,134,382,286,214
150,121,70,53,134,405,318,212
154,109,66,59,136,421,331,165
120,104,63,56,115,382,305,162
115,99,64,58,107,355,319,169
108,88,58,55,99,339,318,156
156,100,56,55,98,325,292,160
146,109,62,48,89,289,247,152
152,115,60,53,109,301,230,151
153,111,60,54,121,333,201,140
156,116,66,58,134,348,223,175
113,106,70,61,142,370,202,167
101,94,66,64,170,421,199,169
121,93,63,58,161,393,186,180
125,101,60,54,150,368,180,188
125,100,59,51,144,372,136,151
117,97,55,47,134,368,150,162
114,103,57,45,93,291,162,171
94,83,55,46,100,352,212,191
89,84,56,49,106,348,220,178
88,85,51,50,102,330,223,180
91,85,54,53,104,334,214,172
92,83,53,49,109,332,199,175
99,92,63,46,95,261,151,130
106,81,63,45,102,265,161,137
104,95,72,48,103,275,176,155
141,103,72,48,101,222,179,168
143,111,71,50,95,189,208,187
135,103,63,50,97,213,211,190
125,107,66,51,84,205,206,185
138,103,58,49,82,208,210,175
111,101,59,48,87,254,207,167
107,92,58,47,86,259,184,132
102,98,59,48,83,254,188,159
170,108,55,44,85,249,191,181
172,115,56,42,82,252,167,176
177,111,58,39,74,248,157,168
181,108,54,36,72,249,150,165
189,102,50,35,69,234,147,146
138,90,53,38,71,259,151,136
140,84,59,38,72,258,154,147
126,85,57,41,76,254,157,145
119,89,61,46,89,302,154,147
106,97,69,57,103,354,151,141
103,98,69,56,105,343,124,120
103,83,60,54,103,338,119,136
104,82,60,54,104,339,150,157
111,83,60,52,100,340,184,160
109,85,64,45,94,319,183,165
108,87,65,46,96,344,201,172
79,84,65,47,107,352,199,151
104,87,71,43,103,339,182,156
100,84,69,42,102,309,161,157
100,78,65,40,97,285,162,152
116,77,63,41,92,255,155,150
138,86,66,42,89,263,171,165
123,82,63,43,89,245,159,147
123,83,62,42,86,242,184,155
122,80,56,45,112,269,182,161
105,77,57,42,111,261,174,154
106,71,54,40,109,249,170,144
101,69,49,44,122,304,197,154
99,65,51,45,122,294,179,134
100,58,48,46,114,289,217,178
122,58,44,45,114,295,223,188
97,61,46,47,109,280,229,183
101,69,55,45,95,246,229,188
100,72,58,48,101,258,228,216
113,75,59,42,79,220,194,173
94,79,63,46,80,210,193,170
94,80,65,49,81,214,179,166
91,81,64,54,76,205,150,155
90,81,65,53,73,203,145,130
70,81,67,52,72,203,153,135
62,72,63,49,77,251,179,128
59,66,58,43,92,324,184,139
76,56,51,34,94,329,192,130
91,58,45,31,89,316,195,127
94,59,42,33,92,325,188,131
95,63,45,33,98,367,202,152
109,67,45,34,84,312,211,164
100,68,44,37,84,319,209,168
87,67,49,40,93,338,249,171
96,65,45,39,103,378,272,185
103,67,47,41,95,318,247,177
89,67,50,41,98,317,247,182
89,67,54,40,97,309,246,180
99,70,53,37,93,289,207,171
106,70,59,43,89,236,194,162
104,71,61,42,86,259,195,175
109,67,59,41,80,253,185,164
122,68,59,41,80,236,184,171
120,66,58,43,90,246,175,183
116,75,56,39,82,239,168,181
113,69,50,39,83,220,156,172
110,101,61,54,94,263,229,205
102,101,57,55,99,261,229,203
109,113,57,52,84,251,230,196
99,112,55,52,88,287,237,203
96,113,54,51,91,291,269,219
93,86,45,36,80,262,227,192
80,84,47,32,77,304,227,183
60,65,45,34,84,326,239,181
99,65,47,31,79,310,246,180
103,70,46,33,110,379,232,197
111,70,47,34,131,390,235,209
114,84,51,37,130,361,235,218
119,87,50,34,127,342,216,214
95,81,49,35,127,334,188,228
95,82,50,39,120,302,245,210
86,82,48,36,104,289,238,203
101,72,49,37,109,296,248,203
100,71,51,40,111,306,246,212
90,69,49,43,110,297,251,201
86,60,50,40,94,236,173,174
122,63,56,43,112,289,172,167
108,67,59,42,114,293,167,167
115,67,59,40,111,280,167,173
114,68,61,38,113,293,161,152
115,74,62,41,114,288,174,160
114,78,56,39,90,241,186,151
116,69,49,37,81,232,191,146
105,66,45,37,87,279,195,123
108,83,49,40,89,275,199,120
109,85,46,39,77,263,192,140
102,80,47,40,73,247,193,170
101,80,48,39,76,241,196,177
112,87,52,43,70,175,219,193
117,80,51,38,62,156,216,193
115,73,50,36,59,139,209,186
86,73,49,35,63,115,184,168
91,79,51,40,61,158,175,171
106,73,48,37,76,206,146,160
110,77,50,41,77,208,150,168
112,77,49,41,79,214,152,154
118,79,50,40,72,210,159,155
122,77,49,42,85,222,188,172
101,76,55,44,78,203,194,171
87,64,51,43,82,202,191,171
83,69,54,44,83,207,190,172
74,65,53,46,84,243,204,178
66,62,51,43,75,211,196,194
69,68,45,43,69,200,200,201
73,64,42,42,62,202,214,205
76,63,44,44,59,192,213,205
79,68,44,41,56,147,199,186
98,71,48,42,57,132,178,165
95,78,55,47,57,148,173,176
98,76,54,50,61,152,150,165
100,78,53,48,65,154,165,170
99,80,60,50,66,168,153,169
78,78,57,47,61,170,145,143
95,71,56,41,70,179,159,147
90,74,55,35,76,197,166,145
90,72,57,38,74,201,151,137
92,69,51,40,80,199,167,155
89,65,50,40,83,214,171,166
75,64,49,39,72,212,163,152
75,71,53,43,67,207,207,167
80,71,48,44,72,230,212,169
76,83,52,47,70,224,217,185
74,82,55,46,65,213,225,174
64,76,49,46,66,191,226,164
68,80,53,46,67,207,212,167
57,79,56,44,63,180,208,166
79,68,56,40,58,174,189,165
77,68,54,41,57,161,192,163
83,70,55,39,60,177,179,205
81,55,50,39,67,168,202,201
96,63,50,44,81,214,255,220
83,57,46,42,90,229,259,214
86,58,45,42,98,248,248,217
102,62,52,46,95,235,261,177
101,66,51,42,89,222,246,216
88,62,50,40,79,204,196,216
89,67,54,43,69,207,202,207
86,65,53,42,63,195,201,208
85,66,52,39,59,191,197,213
87,72,65,45,61,186,198,181
92,71,65,43,59,183,211,198
96,70,66,44,71,199,214,218
111,74,67,44,66,203,215,226
96,70,63,42,68,208,205,226
92,73,61,43,64,210,190,224
85,72,61,44,64,229,188,193
79,69,57,43,50,237,191,166
87,68,56,44,57,235,211,156
86,73,56,47,59,240,205,143
92,69,47,44,63,256,224,172
92,70,49,44,62,230,232,191
113,74,49,44,64,192,234,202
96,78,56,43,61,195,219,203
96,72,55,43,62,206,250,234
93,66,50,42,64,202,260,218
110,68,47,40,63,194,253,203
89,72,53,47,66,207,275,205
85,68,45,49,68,211,284,202
86,69,48,47,71,205,261,168
84,73,58,46,64,201,229,148
77,69,59,48,77,235,246,147
76,59,51,40,75,254,225,133
76,60,55,40,75,252,214,131
76,63,60,43,73,253,212,133
75,60,53,41,73,240,219,151
75,61,54,39,70,226,193,151
78,66,59,41,73,237,207,148
80,60,55,37,70,234,219,171
79,53,46,33,73,241,234,175
78,52,47,33,72,239,221,176
90,55,45,36,64,217,247,187
89,51,42,33,62,207,234,188
88,55,46,41,65,196,230,179
94,60,49,44,59,178,236,179
95,64,47,47,66,188,250,188
102,61,50,45,67,194,224,175
100,60,52,49,63,159,219,170
103,57,49,48,71,204,213,166
99,58,48,52,79,249,196,192
98,61,54,49,74,245,198,184
66,61,50,51,76,257,211,193
75,60,46,50,82,253,202,204
80,61,45,46,75,229,203,207
89,77,51,42,68,172,208,181
93,73,48,43,77,176,191,173
93,76,53,40,73,155,164,157
86,77,56,38,72,158,150,139
93,79,58,44,80,171,206,163
81,58,53,43,89,201,204,161
76,61,54,43,81,192,201,155
80,58,50,43,85,220,241,178
107,59,48,42,83,236,269,180
92,60,46,36,71,220,228,141
95,59,46,33,60,196,239,144
96,57,46,32,59,203,256,139
90,57,48,32,58,178,236,150
55,59,51,34,55,147,214,151
72,60,51,34,54,144,243,161
71,67,51,36,57,162,234,169
70,66,46,36,58,160,216,175
95,62,43,34,52,159,203,152
98,65,44,34,49,164,212,160
86,65,43,34,56,172,177,157
84,56,40,36,58,160,183,155
84,54,41,37,70,176,205,153
62,58,41,38,79,224,216,166
76,58,44,38,82,229,198,154
78,58,46,40,81,244,198,151
85,75,54,36,81,261,188,179
105,82,59,37,70,246,175,199
101,83,61,40,70,215,162,192
88,77,56,39,68,219,168,211
89,82,59,36,67,206,176,211
86,72,56,39,67,214,177,184
86,66,52,40,68,217,166,163
83,65,50,38,62,222,163,154
83,76,53,41,72,217,212,147
82,72,50,44,72,208,204,147
94,67,47,41,70,187,195,151
77,67,46,39,71,192,217,156
80,65,44,37,67,167,231,168
85,65,45,36,58,170,183,147
84,61,46,32,53,162,202,149
89,72,53,34,49,146,233,158
90,80,59,39,64,184,229,186
93,85,63,43,67,191,218,179
92,80,60,41,73,186,218,184
106,90,60,44,76,195,211,185
90,82,52,43,80,195,190,173
88,75,46,45,71,191,180,143
87,74,43,42,76,205,184,148
104,72,41,42,71,205,188,155
89,62,38,39,69,198,173,149
98,69,44,39,68,218,177,167
100,69,47,41,89,212,184,177
99,67,45,41,91,197,185,179
91,67,45,42,92,192,181,167
94,77,51,43,96,206,186,168
88,77,50,46,116,293,197,162
83,75,50,40,105,283,174,138
95,76,51,40,104,307,173,120
85,77,53,40,102,310,163,122
83,71,52,45,106,319,230,205
80,67,57,41,92,249,228,207
83,74,62,46,87,250,240,230
81,80,65,49,101,285,242,246
78,93,76,53,111,293,254,247
82,94,76,50,111,294,203,198
94,92,71,53,116,319,195,200
96,93,73,50,122,347,196,181
90,87,72,51,110,330,230,182
110,77,68,50,103,330,219,181
106,71,64,48,96,314,216,168
95,70,64,47,107,347,209,188
89,59,53,43,100,316,210,191
102,61,55,40,95,275,172,175
81,50,45,34,94,290,172,177
83,57,48,36,97,305,164,177
83,60,54,36,67,224,181,151
91,68,60,40,91,302,181,156
81,75,59,40,93,313,176,147
79,82,61,41,113,330,179,142
84,83,60,42,128,352,178,134
103,91,62,46,140,358,188,175
97,100,64,45,125,291,173,161
99,97,62,44,129,304,174,170
113,99,62,46,123,334,195,184
111,95,61,47,117,330,208,190
94,89,60,42,102,322,169,134
93,77,53,41,98,323,169,131
88,72,55,43,114,349,197,154
72,64,55,45,109,301,183,167
89,69,56,41,97,266,179,185
87,77,59,42,96,260,189,188
89,76,58,39,106,295,240,208
89,73,53,36,89,294,229,191
91,75,56,35,81,287,254,178
82,69,55,37,81,280,247,158
85,54,48,34,82,289,239,155
85,53,52,38,91,323,203,152
94,52,55,38,89,294,183,144
109,61,54,36,107,322,133,132
110,62,55,38,114,354,231,152
111,68,58,41,135,413,242,158
114,70,59,44,136,379,235,164
113,73,60,45,132,367,243,176
99,66,57,45,115,338,252,177
101,68,53,40,109,314,175,164
116,73,52,40,84,246,174,162
112,73,48,37,63,220,176,144
102,73,45,40,75,270,181,138
103,72,49,40,85,278,180,141
95,75,53,43,98,294,184,157
78,70,50,41,97,274,171,153
76,69,50,38,96,278,166,164
90,73,53,37,105,305,182,175
89,73,56,40,113,372,210,175
98,68,54,37,100,361,214,167
92,61,51,38,101,373,220,169
98,62,49,38,103,390,216,150
97,66,53,39,85,332,192,153
93,71,46,35,67,253,147,157
79,76,49,37,73,252,158,149
87,86,56,40,71,242,165,153
117,98,62,46,83,254,170,178
112,103,63,45,93,279,188,188
117,100,64,46,113,293,219,208
117,98,63,44,113,289,195,212
128,98,62,41,112,292,188,211
101,84,58,37,112,308,189,242
110,91,55,43,110,318,182,227
125,90,59,46,123,338,166,224
127,93,62,49,130,356,173,232
126,94,61,56,146,399,189,244
128,107,70,59,138,364,214,234
128,103,76,65,138,346,208,234
120,103,70,63,117,327,201,252
125,105,78,70,113,315,235,255
165,99,78,66,112,306,239,276
180,104,75,68,118,311,225,288
176,105,70,60,125,352,238,307
175,114,75,62,123,341,249,313
171,120,67,55,126,345,224,331
133,138,79,64,117,301,240,336
157,136,86,64,120,294,233,337
182,160,91,70,127,313,249,341
181,169,89,69,123,297,247,348
194,175,97,71,141,370,288,393
193,175,94,67,146,403,288,395
192,188,100,71,153,432,314,396
176,178,103,67,142,424,292,404
187,182,116,72,147,432,322,420
206,186,116,84,126,369,311,386
212,181,116,87,119,334,308,383
197,177,114,97,116,341,316,437
191,168,111,99,151,431,350,418
209,187,121,104,164,498,343,427
183,182,113,95,180,582,376,412
205,195,119,96,187,606,390,458
222,185,110,82,180,607,369,403
217,182,109,81,151,524,342,424
206,155,84,70,141,496,344,383
231,177,94,72,132,440,323,423
204,163,88,70,127,453,298,422
168,160,90,75,137,458,296,432
199,178,94,80,144,497,302,415
235,188,96,79,142,497,278,478
225,171,89,79,144,500,253,467
230,163,81,73,158,551,277,429
237,162,76,65,159,562,283,423
221,151,74,55,172,581,280,425
177,179,77,61,171,570,286,354
169,184,85,70,174,573,273,334
172,198,89,77,160,526,244,345
181,202,99,86,169,526,273,376
196,216,106,88,159,517,298,421
190,182,104,84,163,530,284,414
175,170,96,77,158,534,314,401
168,155,98,73,163,507,334,425
156,155,92,67,152,488,316,386
133,136,87,63,151,468,313,341
127,128,86,64,167,578,345,399
150,119,85,62,166,566,322,397
153,131,84,66,179,589,295,331
149,125,87,64,190,673,289,320
146,106,80,62,186,661,269,297
146,118,83,60,179,587,240,205
120,117,77,56,173,561,262,220
126,112,73,45,156,575,277,230
126,110,65,45,132,452,269,236
122,113,65,43,129,433,282,256
118,108,61,50,114,362,285,268
132,111,68,53,122,386,296,256
115,103,69,56,132,327,291,241
115,98,67,55,139,338,295,252
131,95,65,58,150,368,297,259
131,87,67,53,164,392,285,258
137,96,79,62,170,404,233,252
139,118,77,60,154,377,221,253
153,121,76,59,141,349,199,210
140,128,79,66,135,373,187,205
144,128,78,69,130,402,197,216
147,137,67,63,113,368,206,230
164,117,67,65,118,378,208,229
149,112,70,67,117,388,228,244
149,106,64,60,133,438,220,236
141,109,65,62,113,384,212,217
125,89,64,62,118,392,215,199
108,116,75,64,125,424,235,218
106,122,75,63,133,437,230,219
101,120,75,60,111,349,225,213
108,133,84,67,131,358,259,241
106,133,81,63,131,356,270,264
113,127,82,63,124,327,261,261
118,131,83,65,119,306,259,267
120,133,86,68,117,307,287,269
115,132,82,62,109,348,278,262
109,129,82,61,99,322,261,235
87,115,75,59,98,324,276,235
135,115,78,58,117,385,279,225
132,116,78,56,128,417,252,214
129,92,64,46,121,385,247,188
143,99,68,47,125,389,241,191
157,102,66,44,126,398,233,187
115,93,63,41,105,329,221,181
127,91,65,41,92,263,221,188
125,95,70,45,107,295,191,183
111,91,65,45,107,302,243,182
99,100,60,49,110,294,241,168
97,98,57,53,112,311,238,154
98,99,56,55,112,329,260,164
98,102,58,53,98,340,301,171
130,103,60,60,98,331,277,165
123,85,60,57,95,311,279,189
123,85,63,54,101,315,294,203
117,81,64,54,113,351,281,201
128,75,59,53,109,329,256,218
106,85,67,50,112,342,245,220
108,88,67,50,109,366,232,205
106,88,65,51,107,370,230,200
99,88,62,51,103,342,207,183
143,89,67,51,105,323,213,155
134,74,58,45,102,335,210,149
140,69,59,44,102,303,195,163
143,71,62,47,106,292,224,203
145,65,56,43,97,260,230,208
111,66,58,43,98,261,212,201
117,65,55,46,96,265,238,213
116,67,55,50,97,277,257,216
121,62,53,44,98,319,240,179
119,69,59,45,97,332,243,174
114,68,54,43,93,323,231,167
108,74,55,46,110,322,229,181
100,70,52,44,117,346,218,152
90,73,53,46,109,315,193,149
89,73,51,49,110,307,201,178
69,70,50,50,110,323,203,184
89,67,51,46,90,290,170,164
96,83,55,45,75,256,172,161
96,80,52,46,81,253,191,181
101,103,53,48,85,250,207,158
105,121,67,50,87,227,219,166
93,124,66,51,112,282,220,172
86,123,67,51,121,289,214,181
116,130,73,55,121,293,204,168
118,113,77,52,123,301,165,163
120,97,65,50,129,322,196,162
112,94,65,50,125,285,203,158
111,87,64,51,127,321,215,165
106,82,61,48,124,305,210,170
100,83,58,46,117,294,221,175
99,81,66,52,136,377,222,190
101,77,64,51,123,370,218,180
115,69,60,49,110,334,218,182
94,68,60,49,117,359,223,181
90,63,55,48,120,377,229,171
85,69,46,42,91,296,246,168
96,71,48,45,90,290,249,177
82,79,50,45,95,281,232,167
85,84,51,47,86,237,241,159
86,87,55,50,89,228,246,164
90,88,55,50,84,205,191,139
87,88,52,52,95,248,183,142
111,104,56,52,96,251,186,139
110,99,56,50,98,271,183,164
118,96,58,46,92,264,170,160
119,95,65,49,89,260,184,162
125,100,70,50,77,257,223,162
103,83,71,50,73,269,229,164
100,81,68,49,64,249,212,142
116,90,69,52,101,289,204,158
119,90,64,50,116,314,195,164
107,88,63,46,119,297,188,169
109,82,58,48,128,292,182,165
110,83,62,48,128,298,206,170
108,82,63,56,104,253,236,171
105,80,60,53,87,211,237,164
116,78,62,55,82,205,212,184
119,84,61,51,65,194,225,201
118,87,60,54,110,349,224,217
121,77,56,48,119,369,193,214
121,75,55,50,121,372,193,222
113,70,50,51,130,382,217,204
127,78,53,53,140,405,225,205
126,78,54,52,112,289,207,176
102,77,52,49,99,263,219,178
124,83,57,53,105,304,244,209
125,88,59,52,111,366,233,224
107,74,55,50,112,383,226,212
118,68,52,53,117,388,223,217
133,72,53,54,122,395,211,204
112,63,49,49,116,374,223,193
108,58,51,54,108,322,216,196
108,60,52,52,103,313,208,199
104,68,54,50,97,308,214,215
90,72,54,48,89,291,219,230
90,73,57,49,96,289,186,221
90,72,55,42,103,274,194,200
89,75,58,42,93,220,188,195
108,71,56,38,87,200,189,179
105,73,55,40,92,216,193,183
106,70,52,38,94,258,230,175
105,67,49,38,79,259,213,160
107,71,47,45,93,281,221,200
79,71,52,50,103,300,245,197
77,64,53,50,100,294,244,184
70,67,56,51,106,289,219,206
71,68,59,55,116,295,258,209
83,59,55,49,107,289,260,167
88,63,59,49,105,286,252,161
91,61,59,50,118,331,251,158
90,59,54,51,110,297,259,128
94,58,54,50,144,323,218,135
94,70,56,57,150,324,220,140
92,68,49,54,149,307,201,145
89,69,48,52,143,285,225,164
104,77,56,51,143,294,198,177
101,80,58,50,110,310,200,178
89,69,58,41,100,296,190,175
88,70,56,39,97,300,198,180
85,70,57,44,107,382,198,201
85,59,51,42,106,382,196,175
86,60,51,41,93,335,193,168
84,61,50,46,100,354,214,177
81,63,52,49,105,367,214,191
93,66,50,44,89,249,184,159
72,65,46,42,82,222,190,161
81,67,47,44,80,238,222,209
81,69,52,39,69,216,192,201
96,63,48,34,61,184,183,185
86,61,48,35,68,209,177,180
87,60,48,36,85,273,177,181
82,63,47,39,98,277,138,128
82,69,47,40,101,289,143,136
99,73,48,41,104,311,181,159
99,67,51,42,102,302,185,159
99,70,54,44,92,261,202,162
96,67,55,42,78,236,210,167
107,62,53,42,71,222,207,165
83,63,54,43,70,199,172,138
88,66,52,42,65,206,243,149
85,63,48,42,73,212,256,165
115,63,45,44,87,229,258,170
106,65,45,45,99,286,287,170
106,71,55,48,110,307,287,183
101,69,52,48,110,295,231,184
116,78,58,52,112,306,199,169
92,85,65,51,109,300,202,163
96,87,64,51,99,237,172,165
90,77,55,46,88,214,175,151
99,81,55,47,94,211,195,182
84,74,53,41,94,190,220,206
83,72,47,37,85,183,217,212
92,77,45,34,89,193,213,208
92,77,44,35,88,195,214,216
84,74,45,35,85,203,218,212
85,80,52,38,74,205,206,190
100,79,50,40,73,216,190,182
97,74,50,41,72,223,198,208
115,131,57,44,87,260,204,223
117,136,59,43,84,276,184,217
116,133,51,40,83,266,165,211
100,139,53,43,85,273,185,209
90,135,53,43,85,276,190,197
76,93,51,47,80,247,203,176
96,87,49,45,81,225,195,141
97,88,50,45,80,227,198,141
102,72,49,43,76,196,210,173
102,75,50,43,76,181,214,166
103,63,48,36,76,238,197,161
97,63,47,36,77,238,226,216
98,62,47,35,78,230,225,220
101,62,51,34,76,232,223,215
101,60,50,38,85,249,216,239
92,60,49,37,84,203,216,243
102,66,51,36,84,197,182,199
101,74,51,37,88,200,188,190
97,77,46,39,93,201,183,173
95,74,44,37,84,185,202,149
115,79,44,41,74,164,207,157
93,78,46,44,69,162,210,154
117,73,46,45,66,161,197,161
132,77,53,45,68,227,195,189
133,85,58,47,81,286,226,195
118,78,57,43,82,295,238,191
118,78,54,41,89,309,258,217
113,96,67,48,104,335,268,219
94,89,59,45,105,318,252,195
98,88,60,43,96,286,206,217
98,95,65,45,96,277,192,217
98,98,68,46,89,261,181,197
96,75,56,37,74,251,173,197
101,76,60,38,67,225,223,204
99,76,58,38,65,228,232,161
97,68,52,36,65,228,250,167
107,69,49,36,67,240,242,166
86,75,50,39,61,214,246,169
80,84,52,42,66,233,218,164
80,80,48,41,104,289,227,172
87,85,55,41,106,290,227,174
75,77,54,41,106,292,248,174
88,80,57,44,108,294,242,174
88,78,56,43,105,276,250,169
92,79,57,42,67,180,232,162
99,81,50,45,66,195,211,168
103,91,52,44,64,198,200,184
93,86,50,41,63,201,216,185
90,84,48,41,64,210,212,207
98,92,53,43,68,224,209,205
90,88,56,38,64,216,217,182
84,78,53,37,65,197,197,171
117,86,51,35,62,185,195,171
126,88,54,37,68,213,188,145
122,114,51,38,67,210,210,159
117,112,51,40,67,202,190,170
125,113,49,42,65,198,199,190
94,110,49,42,67,207,197,184
89,109,47,39,65,192,218,184
80,73,42,34,63,173,203,171
84,79,40,32,61,168,229,165
88,83,44,36,69,182,231,154
86,82,48,41,70,190,217,149
83,78,49,41,70,181,199,143
89,77,53,45,73,197,192,163
87,79,54,47,77,199,158,161
89,79,52,43,70,187,148,143
90,85,48,39,77,177,148,157
128,88,42,39,73,172,140,159
140,101,38,36,71,175,171,142
175,110,44,40,66,170,184,156
169,110,49,47,100,272,204,158
173,109,49,46,98,287,219,151
145,105,50,47,97,281,211,155
134,89,50,45,96,267,187,158
87,68,44,41,97,265,185,150
82,65,42,35,69,187,175,164
82,72,41,36,64,162,178,178
96,78,42,37,66,156,177,175
100,89,41,37,68,169,168,165
115,92,42,40,78,215,218,216
115,88,38,38,73,199,229,220
122,83,38,40,75,200,219,210
112,79,38,40,80,225,236,221
103,77,42,44,81,222,254,228
103,74,40,44,78,230,218,183
105,77,43,44,80,229,215,170
89,70,42,43,76,231,240,211
91,72,40,41,69,210,233,200
100,67,37,38,65,206,221,194
93,81,37,34,56,147,224,196
94,79,34,33,51,136,206,185
93,83,40,34,67,194,183,131
93,80,40,36,70,203,175,152
102,79,42,38,76,211,167,155
91,69,43,38,76,214,163,144
92,80,47,42,80,220,172,163
116,79,48,41,71,172,178,164
121,80,49,42,69,186,203,147
108,85,49,40,64,173,213,149
105,87,54,43,67,163,213,157
118,77,50,41,67,163,229,144
101,75,47,39,66,181,220,141
101,83,45,40,70,168,222,160
119,83,45,37,68,169,229,164
117,81,38,32,66,173,235,159
106,78,37,30,64,174,221,162
99,79,37,34,69,172,232,173
93,78,41,32,65,164,203,150
88,70,39,31,65,170,185,137
96,67,42,36,68,175,177,153
100,83,52,40,70,179,170,153
112,83,51,38,63,148,136,140
111,82,51,37,66,159,141,147
99,89,58,41,66,156,170,151
97,98,59,40,61,149,175,173
127,85,50,35,56,137,174,174
119,94,51,35,52,135,199,176
120,88,49,36,57,135,201,170
117,79,42,33,60,129,186,168
133,82,39,32,68,135,165,122
97,90,47,34,72,140,177,125
95,84,45,36,79,157,169,127
96,88,46,34,72,148,161,128
109,94,45,33,70,166,149,127
87,81,43,38,71,195,161,134
85,72,42,38,67,204,169,128
92,68,43,34,58,202,150,128
100,66,42,37,55,192,154,126
87,64,42,41,57,183,159,143
83,70,41,36,54,159,170,137
90,71,37,36,55,148,159,133
98,76,35,35,54,146,184,123
92,76,39,38,60,160,193,125
94,74,38,35,61,157,199,133
103,77,42,37,56,143,221,150
105,76,40,37,53,125,222,155
90,73,43,39,58,146,203,169
86,91,41,33,56,155,233,180
83,89,41,37,55,158,234,175
98,99,42,36,53,165,197,161
92,99,43,36,66,218,199,162
92,98,40,35,69,215,216,144
90,89,41,37,69,202,187,135
104,112,44,34,67,199,186,112
81,109,43,37,72,233,221,111
77,110,44,36,64,203,220,100
75,110,43,37,74,234,207,120
74,103,46,38,77,250,208,121
69,80,45,40,77,249,214,142
66,83,44,38,76,234,197,136
66,82,43,37,75,260,195,155
80,80,44,35,68,235,198,146
94,78,44,36,66,217,188,141
81,81,45,37,72,214,167,136
87,64,50,38,73,232,185,190
87,64,48,37,73,194,179,180
92,77,49,38,65,176,203,176
76,75,47,37,73,214,213,182
79,71,50,34,68,221,226,186
95,71,45,34,65,181,205,142
94,69,45,37,65,173,206,137
103,59,47,37,65,168,179,137
108,71,48,37,53,126,174,136
114,77,50,38,63,139,200,141
106,78,47,37,66,142,185,135
109,82,50,35,72,174,184,138
87,79,46,36,75,184,194,151
82,71,48,38,75,173,208,143
101,83,46,35,67,159,174,122
95,86,53,40,66,165,191,127
94,82,55,40,57,155,198,132
94,85,56,40,57,147,183,115
102,94,55,44,59,150,165,149
77,79,52,43,60,161,217,166
77,74,49,37,54,171,217,172
87,86,44,38,57,155,211,176
84,84,41,37,55,153,219,176
87,75,39,32,57,159,240,165
86,80,38,34,56,159,215,159
82,82,34,35,60,143,214,153
80,80,34,34,58,147,246,155
98,86,36,37,60,153,243,166
85,87,42,37,54,147,219,149
84,82,41,36,56,155,196,166
104,83,43,38,57,180,210,165
106,91,50,39,63,178,188,164
95,85,48,34,58,172,182,163
95,86,47,35,60,168,188,167
99,83,48,35,59,148,201,135
94,87,50,35,53,117,185,131
85,68,43,35,49,112,162,121
85,76,44,35,54,132,233,152
88,76,43,35,62,171,237,156
82,80,44,37,63,172,239,167
81,72,38,34,64,167,226,161
100,72,40,36,73,199,227,161
101,73,40,37,71,198,228,152
107,76,41,37,66,183,234,150
119,88,42,34,64,179,223,136
112,91,50,37,66,188,241,142
101,93,52,35,66,178,253,202
97,88,57,36,66,172,219,219
107,81,53,34,64,155,221,231
94,75,55,36,74,219,219,237
87,70,48,35,89,245,227,243
84,65,48,33,83,236,253,210
110,71,42,29,83,237,247,184
96,70,46,30,84,240,233,164
96,59,41,28,74,184,243,172
104,64,45,33,65,153,236,170
100,67,44,34,73,166,233,162
108,67,43,36,79,168,228,151
108,71,41,38,79,166,221,151
114,69,40,38,80,174,216,134
109,63,39,34,72,208,208,122
109,61,37,33,64,207,167,124
71,53,38,31,57,219,158,119
93,50,37,30,57,218,160,122
95,59,42,33,58,230,151,121
99,60,40,34,57,197,147,130
97,59,43,34,56,181,145,117
99,61,44,39,54,154,143,134
98,62,48,41,63,199,159,132
91,65,49,39,69,197,171,133
107,67,53,39,66,186,169,132
124,76,53,43,72,197,166,128
130,76,56,40,75,225,169,117
117,75,54,39,69,193,167,141
121,69,51,39,64,187,148,143
140,70,47,38,67,193,150,137
128,62,45,33,64,179,232,158
126,56,35,30,66,179,224,152
122,58,35,29,63,182,218,127
115,58,35,29,68,183,231,133
89,58,39,31,67,186,249,142
87,61,50,30,66,182,186,119
86,65,52,31,64,198,216,129
106,67,54,34,65,199,239,142
110,66,55,35,59,205,228,135
106,76,53,36,56,198,202,120
109,76,44,37,51,192,202,125
124,73,44,38,50,151,189,117
111,65,44,39,52,152,157,107
111,70,47,39,54,126,160,105
104,58,45,40,57,128,186,118
103,68,46,40,65,143,188,116
80,69,43,40,69,175,167,121
89,77,40,39,66,167,168,126
85,71,36,38,63,165,167,130
79,71,39,38,81,204,146,121
74,60,40,37,83,221,134,119
90,64,41,38,81,197,162,127
94,63,45,40,87,229,173,134
95,67,44,41,90,235,174,130
93,84,46,45,77,223,185,150
95,85,46,44,76,212,182,158
99,89,47,44,72,204,184,149
82,87,43,42,69,173,181,142
95,97,46,43,70,169,183,148
110,90,49,38,67,142,179,131
111,90,49,38,59,126,179,121
106,88,49,38,62,132,183,121
112,91,50,37,57,127,180,117
112,82,48,36,55,125,176,109
102,71,45,32,58,142,176,117
101,74,48,34,61,134,181,115
88,70,49,34,59,152,164,112
118,70,48,36,60,164,164,126
110,68,47,34,62,188,173,138
115,79,45,35,60,182,171,135
117,79,49,35,64,191,184,143
122,86,47,36,62,174,168,138
93,87,45,32,60,159,181,149
92,83,44,32,51,129,172,140
78,73,43,34,51,123,163,134
88,74,38,32,44,107,147,134
82,67,38,33,45,109,184,148
88,60,42,36,54,134,202,133
85,63,41,38,58,143,209,141
106,74,49,40,60,141,207,138
92,67,44,40,61,142,204,137
94,63,43,38,68,159,187,127
86,64,48,40,73,173,145,133
100,64,49,40,72,165,149,128
95,58,40,39,69,169,163,132
96,62,44,40,67,174,167,140
98,66,44,41,63,196,180,135
96,64,38,37,54,192,184,117
93,71,38,39,52,186,169,112
78,72,39,39,55,181,212,162
94,74,37,37,59,182,216,155
90,76,36,35,59,140,200,152
94,81,34,36,56,92,195,153
93,80,42,35,62,101,197,162
90,76,40,32,57,103,143,116
91,72,42,32,55,92,152,127
111,67,41,33,49,84,150,127
112,85,46,31,49,89,163,137
105,82,39,27,43,84,182,144
122,82,43,29,46,86,189,152
111,85,44,29,48,88,175,138
97,97,47,29,53,106,170,156
107,76,42,31,52,107,161,158
110,78,45,33,53,123,156,142
95,80,42,32,54,132,138,127
96,78,43,31,54,153,164,137
99,70,44,34,56,156,220,137
84,67,43,35,59,155,221,137
84,84,45,35,59,151,222,146
79,86,44,34,56,136,224,148
75,86,42,36,53,127,257,178
82,84,46,36,46,108,211,169
80,94,49,33,40,108,209,164
78,73,44,31,40,101,211,164
88,66,48,31,43,104,221,174
95,73,48,32,42,104,204,154
78,73,43,29,42,104,204,150
80,67,41,32,44,104,210,144
77,67,41,33,44,101,204,153
85,69,42,40,52,115,202,147
81,61,42,36,51,100,166,126
84,58,42,40,54,101,181,125
82,55,41,40,55,102,192,137
82,66,46,39,57,108,197,123
75,62,41,34,51,103,230,127
97,72,45,37,53,115,240,127
95,73,45,33,54,136,273,166
96,73,48,32,53,137,274,191
93,63,43,33,48,148,288,196
84,68,47,33,45,140,261,191
83,60,43,33,66,164,257,197
86,62,42,36,67,172,237,176
104,74,46,42,83,221,314,146
119,82,48,40,85,225,313,144
118,83,49,43,85,225,314,142
115,83,50,44,73,202,306,139
126,85,50,48,77,192,323,151
111,74,47,45,65,150,239,153
106,72,54,50,66,134,227,172
131,74,55,50,71,160,239,223
131,74,58,49,85,213,234,230
124,78,58,43,80,219,182,226
130,83,58,39,77,212,210,251
137,83,56,39,76,231,206,253
150,86,55,43,81,245,188,299
144,87,55,48,83,227,197,303
154,83,57,49,92,246,201,345
166,92,69,57,103,268,176,325
177,96,76,60,103,272,213,336
168,93,76,56,102,266,214,267
174,93,77,53,92,264,207,253
167,92,76,51,85,252,207,185
153,79,66,45,76,238,205,224
129,70,51,39,81,229,167,200
121,64,49,37,75,221,167,211
118,68,50,36,74,222,173,239
110,71,51,41,72,224,207,241
115,74,50,40,68,218,211,211
117,76,51,38,60,199,194,200
99,76,56,38,55,182,192,185
104,72,51,41,58,170,201,204
122,66,54,44,76,178,165,225
115,61,56,44,75,164,146,222
109,64,55,44,73,167,151,233
104,61,50,45,76,171,145,231
96,59,55,44,76,154,133,192
86,61,51,38,55,134,137,190
86,64,51,41,60,141,203,245
110,69,51,45,72,161,231,266
132,83,53,45,76,164,251,270
124,91,46,41,70,167,257,278
124,97,52,42,69,148,256,270
126,100,53,45,76,148,212,230
108,97,57,41,78,187,217,213
110,101,55,42,72,187,207,239
115,92,56,42,74,201,211,235
108,89,53,44,78,203,199,231
105,86,50,41,73,226,207,216
124,83,49,42,68,194,191,268
122,71,49,44,68,183,207,254
121,75,53,47,68,169,199,252
121,76,51,49,72,223,220,249
119,74,51,49,68,196,220,280
98,70,48,47,61,187,219,217
98,66,48,47,71,203,217,217
92,63,44,44,72,220,223,208
92,58,42,38,66,184,229,226
109,61,46,40,70,188,239,209
115,71,48,42,73,190,232,223
119,74,54,44,67,186,234,226
118,71,54,42,62,164,233,230
124,72,55,41,61,149,222,208
123,69,53,38,58,151,214,197
123,61,51,37,53,147,228,179
101,65,47,33,54,144,212,165
104,75,50,38,59,145,223,183
130,77,49,38,58,138,207,198
120,80,50,39,57,142,195,202
123,83,50,37,57,134,171,196
118,75,44,35,59,134,166,184
121,70,41,30,53,128,162,200
93,68,41,31,54,131,165,192
86,64,38,35,54,133,169,194
78,66,42,40,60,137,178,234
81,67,45,41,54,123,178,235
74,63,45,48,61,148,185,209
71,61,47,49,63,163,202,209
89,60,44,45,62,154,199,205
97,53,42,44,61,146,189,165
99,56,40,46,65,157,185,177
114,54,40,42,65,141,168,171
120,65,46,42,81,190,187,209
114,67,50,45,86,200,191,202
112,76,51,43,84,204,202,207
119,82,57,47,91,234,211,216
127,84,55,44,88,231,229,217
119,78,47,43,76,187,226,188
119,75,45,40,69,174,226,199
113,69,43,40,74,183,223,191
117,60,37,35,66,160,208,192
94,61,42,37,67,160,181,190
108,71,51,40,62,156,168,180
110,79,52,43,73,173,184,191
117,93,54,44,69,196,186,188
116,102,55,51,65,183,208,170
118,101,53,52,82,221,215,178
127,105,57,55,91,232,260,182
122,101,55,54,92,240,260,156
175,102,54,53,93,215,257,154
167,91,51,44,92,215,247,151
173,99,62,45,83,224,244,138
164,85,59,40,85,265,185,194
164,92,68,39,88,281,163,209
126,101,69,41,95,286,152,213
131,105,72,46,97,302,143,219
120,100,65,44,92,273,126,225
129,100,58,40,80,226,132,186
141,96,51,42,73,205,185,183
129,79,51,42,66,204,189,191
125,79,45,36,63,182,195,177
139,80,44,38,66,178,198,171
122,82,45,39,70,167,186,148
114,91,42,38,74,160,135,128
125,100,41,40,79,170,140,136
127,104,45,43,82,166,142,178
115,101,46,41,79,168,139,178
125,105,46,41,77,187,141,178
119,95,45,41,69,177,139,190
98,76,46,37,68,175,143,184
93,65,43,37,69,192,133,155
85,61,39,36,75,215,148,172
78,70,42,37,73,199,159,183
88,68,42,35,71,189,158,177
87,68,41,33,68,189,166,169
85,70,41,30,66,169,176,175
84,68,41,30,61,136,166,165
98,43,37,29,66,139,150,161
108,56,40,30,77,194,163,170
112,64,43,38,81,198,149,167
135,64,45,41,79,198,136,169
142,75,44,43,79,213,139,169
131,87,51,48,77,220,144,163
117,79,51,49,68,179,129,152
115,91,47,41,57,160,133,160
88,92,49,40,52,148,128,153
78,87,49,38,51,131,126,154
70,78,43,29,47,110,125,156
65,79,40,29,46,105,152,171
84,66,44,32,48,100,147,160
91,63,41,32,52,120,180,196
90,61,42,31,52,123,202,189
120,94,42,34,53,124,210,196
120,99,42,35,48,119,196,199
107,97,39,34,56,166,200,201
101,100,41,38,55,180,184,161
131,103,39,38,57,180,184,168
104,73,39,36,58,183,198,156
111,66,37,32,60,189,202,140
103,59,36,32,59,172,211,143
108,59,37,29,69,179,219,181
90,56,39,30,69,184,233,177
92,56,42,33,67,182,214,178
104,60,40,32,66,183,220,175
108,62,42,32,59,162,219,170
120,68,42,34,69,175,209,123
110,69,40,37,73,172,208,147
114,74,38,36,73,174,209,150
96,71,39,38,76,172,203,156
111,82,45,43,86,188,194,178
94,75,43,41,73,154,206,183
107,84,43,42,75,149,180,162
116,90,46,44,79,153,186,167
119,94,53,43,78,156,186,175
103,86,48,40,68,149,211,156
116,85,47,41,66,152,207,168
105,81,47,38,61,154,193,168
91,82,43,35,60,148,190,167
92,80,36,37,58,142,232,155
103,88,38,39,60,139,203,157
92,89,36,37,54,129,185,147
86,84,36,39,55,124,197,163
84,71,37,40,51,119,198,177
76,70,36,40,49,113,149,165
83,64,34,37,52,100,175,158
80,66,38,36,51,100,178,163
86,62,40,31,50,96,181,175
99,61,40,31,52,154,196,168
112,62,43,31,58,167,201,172
103,71,48,32,52,165,185,179
113,71,51,35,55,163,207,178
110,73,49,39,81,205,207,175
109,86,50,39,82,177,227,222
111,88,51,39,79,171,213,227
106,82,49,38,81,171,209,220
103,83,45,37,86,189,231,215
104,86,48,34,77,172,232,204
111,77,44,33,81,176,208,136
98,74,41,35,86,197,222,127
99,67,37,33,87,215,233,135
92,66,35,32,84,197,190,137
87,60,31,33,73,190,199,162
69,65,39,37,65,183,185,162
81,79,38,38,62,179,169,168
77,80,37,40,59,155,155,164
78,79,39,43,55,160,168,167
77,79,39,41,56,148,149,150
72,72,36,38,56,141,150,159
80,59,36,35,56,129,174,220
87,59,37,34,55,132,186,231
97,67,39,38,65,132,183,238
118,80,39,38,61,127,176,226
116,78,35,39,63,155,184,235
111,102,42,41,72,169,180,182
107,103,44,42,74,193,180,176
111,96,39,35,66,191,168,156
106,89,40,35,67,197,170,164
108,89,41,35,76,198,208,159
99,55,38,32,69,191,187,148
109,51,35,31,69,162,181,152
103,62,42,35,72,182,184,160
86,60,41,35,72,179,214,173
83,66,40,35,64,165,186,165
93,73,37,35,61,150,209,176
96,79,39,37,65,168,223,177
88,77,35,37,62,155,229,171
89,75,38,37,60,148,202,154
92,76,41,37,57,130,188,161
93,70,41,36,58,154,184,168
80,61,38,34,52,152,167,166
78,51,37,31,53,144,168,165
78,52,35,30,50,137,162,158
74,46,31,31,61,166,191,140
60,43,30,31,58,143,175,126
52,43,32,31,62,161,175,119
50,46,33,29,58,155,167,115
61,53,30,33,66,171,187,122
61,53,32,29,58,158,157,155
65,56,34,30,60,156,157,153
66,56,32,29,58,127,156,163
83,67,32,30,61,129,160,187
80,71,35,31,70,139,154,197
80,69,33,33,75,153,166,176
76,70,32,33,77,165,186,186
91,76,37,34,74,163,189,181
78,73,43,36,73,171,206,201
87,70,41,34,58,150,199,187
89,73,42,37,49,123,199,215
95,75,42,36,45,112,179,210
89,70,42,39,58,134,220,233
89,70,39,38,60,140,209,201
75,62,41,39,61,140,210,213
75,66,41,36,62,137,203,197
92,71,43,37,65,150,212,189
87,70,43,34,61,128,171,146
88,64,39,33,57,108,160,150
86,66,41,32,59,112,165,139
90,65,42,34,68,149,183,128
66,57,43,35,64,135,178,140
80,57,42,36,59,134,174,145
78,57,42,36,58,137,165,130
81,58,39,35,65,166,188,144
101,52,41,35,62,188,191,155
100,58,41,35,63,188,188,143
91,60,41,34,61,188,183,142
99,64,42,35,66,208,231,188
108,62,44,33,62,217,210,186
84,61,43,38,112,308,190,166
86,55,42,38,115,311,184,165
80,54,46,41,117,312,180,160
92,60,45,40,117,310,123,113
85,62,45,42,121,321,126,117
85,61,42,35,75,212,141,134
88,69,44,38,77,223,148,192
99,84,42,36,79,234,147,196
82,79,42,35,76,227,149,194
80,76,40,34,70,206,133,183
83,78,41,35,73,208,136,187
96,72,36,33,71,208,133,128
100,76,38,33,68,199,132,127
97,76,39,33,70,207,120,124
108,83,38,33,64,183,125,124
109,91,40,33,68,227,168,113
104,96,43,32,67,222,167,128
91,80,40,31,69,227,170,133
120,85,39,32,68,222,177,134
115,79,42,31,71,234,177,137
120,75,41,32,60,189,159,155
112,71,42,33,58,189,162,143
119,75,46,33,54,180,159,148
111,80,46,35,61,188,157,152
115,84,47,38,72,191,168,142
120,85,50,40,76,186,142,120
121,80,48,38,73,179,142,157
117,75,45,40,77,193,147,144
115,74,68,40,75,180,143,145
105,74,78,38,63,164,135,163
102,71,80,38,63,173,130,176
114,72,81,41,70,172,132,155
122,70,80,37,64,158,135,159
109,57,62,35,66,177,143,162
109,57,49,36,76,231,143,159
108,60,41,33,74,221,182,169
104,63,43,32,69,225,184,159
91,70,43,31,68,239,198,178
92,70,43,34,81,240,230,187
89,65,46,35,71,180,230,178
93,61,46,34,71,179,199,155
83,61,43,34,75,190,198,168
81,55,42,36,78,176,191,146
75,54,40,32,61,160,145,128
88,64,37,31,65,160,140,127
90,68,38,33,64,173,138,117
90,83,37,33,60,191,137,102
92,86,42,33,62,198,133,106
97,86,44,37,60,191,137,119
104,82,43,35,60,206,132,119
98,77,44,35,58,189,134,123
97,59,45,33,58,170,152,119
99,55,43,30,54,163,155,172
102,58,43,26,55,173,161,169
90,55,43,30,62,179,176,175
78,55,43,32,65,189,171,178
82,53,44,35,62,168,153,188
94,62,43,36,63,170,148,141
94,59,46,41,83,212,176,185
86,58,47,42,77,211,182,184
88,66,49,39,74,204,175,180
87,68,46,37,75,209,168,172
86,69,47,36,73,211,202,224
82,69,44,32,54,178,171,189
85,69,45,33,57,171,161,194
84,62,41,33,58,172,168,196
100,70,41,36,56,168,192,200
86,62,40,38,60,160,155,146
88,71,46,43,60,159,175,155
92,73,43,38,53,140,186,170
108,79,46,38,50,146,190,163
87,73,47,36,50,142,174,161
94,75,47,33,45,136,177,165
108,72,39,30,51,168,175,193
105,71,38,30,56,182,183,181
93,75,40,31,57,176,191,186
104,73,39,32,55,178,186,181
98,71,38,32,56,185,177,170
76,65,39,32,63,159,224,166
75,67,42,35,63,148,222,172
74,55,38,35,65,150,239,173
66,71,39,39,69,167,244,178
75,76,40,37,68,159,249,182
81,77,38,38,63,178,199,145
83,73,36,35,74,201,188,146
82,73,38,36,75,207,157,171
77,58,37,32,72,193,162,170
80,58,40,36,72,190,152,171
87,60,41,34,66,150,153,205
85,59,41,34,54,128,154,198
86,53,38,33,58,143,172,183
97,60,44,33,57,145,167,188
85,64,47,36,69,167,169,187
72,60,46,35,70,168,163,152
70,70,52,35,70,173,181,157
68,81,56,34,65,152,175,148
52,75,52,35,64,150,165,140
92,68,53,34,51,136,174,146
93,70,52,35,47,133,177,138
107,67,47,37,45,117,170,123
117,72,46,42,53,123,154,138
130,78,45,41,56,123,164,130
107,76,38,39,62,119,165,120
118,78,39,40,63,132,169,137
121,76,39,41,61,128,145,142
132,155,45,44,60,121,152,146
127,166,45,46,58,128,156,166
246,245,52,57,68,135,151,179
246,259,58,60,70,124,144,165
275,265,59,59,74,133,161,186
268,225,54,58,73,134,199,203
267,217,56,57,78,157,193,200
166,130,51,45,73,162,201,203
164,104,45,41,69,168,200,210
113,91,47,38,63,163,192,191
122,92,45,35,63,182,154,173
126,93,43,35,65,178,154,199
129,93,43,33,62,184,143,194
128,90,43,32,62,178,145,189
113,86,39,33,63,178,137,193
95,81,40,28,60,163,125,179
87,84,39,28,54,151,153,158
104,73,39,29,48,138,145,190
117,72,38,28,50,150,141,196
118,82,41,29,47,143,144,204
120,79,37,30,45,132,144,213
121,77,40,32,41,149,172,220
95,72,41,32,40,146,171,188
81,65,41,32,39,137,184,184
84,61,41,30,42,137,188,188
86,59,42,30,43,136,209,184
83,53,40,30,48,114,190,178
86,61,43,31,53,114,198,193
93,64,43,31,54,116,190,193
98,59,40,31,52,113,192,176
97,67,40,31,51,114,179,193
113,74,44,31,51,110,154,200
111,70,37,29,48,93,149,187
98,70,42,35,52,85,164,195
84,65,39,37,55,85,182,192
85,61,39,35,55,100,184,165
67,60,36,34,49,107,185,137
89,67,38,34,47,112,208,155
87,67,38,29,41,120,223,161
89,68,39,29,43,120,205,176
85,63,39,29,43,112,215,178
106,62,38,32,42,107,220,190
91,55,36,31,47,112,222,189
94,61,35,34,50,113,195,174
95,65,37,35,49,116,196,161
96,72,43,40,53,115,173,160
88,67,43,38,56,111,183,157
85,72,49,41,53,110,158,148
91,65,48,41,49,99,154,153
90,64,47,39,47,101,153,150
110,66,46,38,48,114,157,154
99,68,46,40,48,112,161,184
103,73,40,36,46,111,159,195
98,79,38,34,46,131,187,254
106,81,41,34,51,134,186,261
97,82,37,30,53,132,197,270
94,81,37,28,53,129,180,245
88,72,37,28,55,125,184,236
83,64,38,27,58,107,161,165
79,63,38,29,56,106,157,164
88,53,37,30,51,95,158,143
90,53,38,32,48,94,178,168
92,59,38,35,51,92,185,165
92,60,39,36,52,99,179,187
84,58,38,34,48,101,197,188
57,58,39,34,50,101,183,185
88,61,36,31,52,104,170,154
92,54,36,29,50,102,156,152
92,52,33,28,48,103,170,131
103,55,32,28,45,98,162,121
103,62,38,32,50,107,163,137
80,59,39,32,48,107,152,136
83,82,41,31,51,108,145,129
98,89,41,33,56,112,149,136
89,88,42,33,62,115,144,136
94,88,39,29,57,107,139,132
112,95,39,34,58,104,147,149
108,83,46,41,56,99,157,147
96,77,45,39,47,88,142,134
98,76,46,41,44,78,128,137
92,76,47,47,46,71,140,128
86,80,48,45,43,77,143,112
92,76,41,41,46,91,200,158
96,74,42,44,52,108,223,167
93,74,41,42,54,125,236,183
94,70,36,35,51,127,242,182
76,56,33,35,52,125,243,190
80,50,33,33,50,118,198,163
77,49,33,30,47,111,192,166
92,53,37,35,46,94,200,159
92,56,41,38,47,89,190,183
90,52,42,39,45,90,187,182
82,60,43,39,46,88,195,183
98,63,45,40,47,87,190,173
86,66,47,37,45,83,170,153
85,59,43,36,46,90,206,145
85,62,43,37,46,83,200,128
108,61,40,34,41,76,203,116
106,72,44,38,42,63,223,170
107,64,37,35,43,76,241,183
108,65,38,33,44,76,237,168
116,64,38,31,44,82,240,175
91,59,39,32,46,82,234,199
78,49,35,29,44,79,221,163
83,50,34,30,43,64,203,167
86,53,37,33,39,61,190,184
94,54,38,34,39,58,217,178
93,58,41,38,38,59,213,162
92,59,39,37,42,64,200,162
85,64,46,38,41,73,203,170
91,68,44,37,46,73,193,179
104,71,45,37,47,77,186,190
107,66,41,33,46,80,196,188
125,73,40,32,40,79,213,198
124,70,33,33,41,74,244,190
123,76,37,34,37,73,248,177
104,80,39,37,41,72,269,192
107,81,41,38,49,91,278,218
87,71,40,37,48,88,257,210
92,70,44,37,48,90,231,204
94,64,41,36,50,94,251,215
84,53,37,32,50,95,214,206
79,51,37,29,41,75,203,189
79,54,37,31,47,82,204,186
101,60,35,30,49,81,210,204
91,64,34,28,44,76,195,194
95,68,35,32,43,72,194,186
107,71,36,37,50,74,183,187
116,76,40,37,48,83,209,193
98,71,37,36,45,80,213,172
100,68,43,35,47,83,205,162
99,66,44,32,45,80,204,166
103,65,54,30,41,86,220,168
90,60,58,31,43,74,211,181
87,59,60,32,44,72,194,176
86,53,56,32,42,67,177,171
87,60,56,35,43,68,177,180
74,75,52,37,51,74,176,175
72,75,44,36,47,77,195,161
70,76,42,36,47,85,218,173
68,77,44,36,48,88,236,196
68,71,43,35,49,87,254,190
87,65,40,30,38,73,258,185
89,62,50,30,43,95,320,193
94,60,52,34,45,99,308,192
107,60,52,38,45,96,300,172
123,67,54,41,47,99,291,173
107,59,53,41,46,98,288,164
112,66,46,40,46,74,209,200
109,70,44,39,44,62,206,197
106,70,43,39,47,71,247,212
87,61,41,34,41,71,251,220
89,66,42,35,42,74,241,229
80,62,37,34,39,81,230,185
79,63,38,37,44,84,249,193
76,65,40,34,44,82,225,176
72,66,40,37,46,82,220,165
65,62,41,37,47,82,238,148
66,60,42,38,44,74,239,151
86,58,41,36,43,71,226,143
75,56,40,35,40,71,214,143
90,54,36,32,41,66,216,136
91,50,37,35,42,72,195,161
89,50,41,34,45,72,186,163
76,53,41,36,44,71,182,163
115,87,49,46,51,71,181,181
107,93,52,49,51,88,181,208
108,97,50,47,51,83,187,200
117,99,49,49,50,85,192,197
120,98,48,45,49,85,207,204
90,67,38,34,42,83,212,204
88,59,35,30,41,70,218,188
91,54,35,34,42,71,221,201
78,50,36,34,40,66,220,201
89,57,46,34,38,67,210,189
99,57,48,35,37,66,221,198
100,59,55,36,38,69,232,216
109,60,55,32,34,68,225,194
110,59,54,31,40,76,237,201
93,51,53,33,41,75,237,210
100,58,51,33,42,72,225,194
108,60,49,35,45,61,195,186
102,60,48,36,54,72,222,223
103,62,48,34,50,71,203,218
113,67,40,32,51,72,197,213
102,77,43,33,50,74,189,205
90,77,40,29,46,78,190,184
82,76,40,29,35,68,168,145
110,80,42,34,40,75,216,151
105,81,43,36,40,73,217,150
101,68,39,34,39,72,217,144
99,67,37,34,40,75,224,153
100,64,38,33,44,73,226,154
82,63,37,31,43,76,208,162
83,55,32,30,44,80,219,173
80,55,32,33,46,79,214,181
81,56,34,32,45,72,207,173
81,58,33,32,43,71,189,162
85,53,31,31,38,67,214,186
75,51,31,30,38,62,200,177
78,47,33,28,35,66,199,172
81,49,32,28,37,69,199,167
83,47,31,31,40,69,206,183
61,50,40,44,45,60,184,163
70,63,45,59,48,66,199,172
92,65,44,63,51,67,213,191
92,63,49,65,51,65,212,205
94,64,49,64,50,64,211,206
92,64,42,59,51,63,245,233
85,53,38,45,50,57,242,229
55,48,40,39,47,55,245,223
83,49,34,36,44,53,247,216
88,62,40,43,48,56,259,232
92,60,39,37,42,52,209,187
112,65,42,39,42,53,202,194
113,65,40,38,40,54,221,201
93,62,40,41,44,56,219,202
97,60,40,34,37,52,197,183
96,63,39,36,40,51,193,195
81,59,35,34,37,51,208,186
93,61,37,36,40,55,200,177
91,66,37,36,43,58,198,172
84,64,39,35,42,60,215,186
82,59,39,33,42,59,210,187
78,63,39,35,41,57,192,195
109,75,38,36,41,54,176,196
111,72,37,34,35,49,195,197
110,67,31,38,39,51,193,187
111,70,36,38,37,51,211,185
130,69,37,37,39,50,209,169
96,56,38,37,41,52,233,162
96,51,35,35,40,50,221,159
93,54,38,31,36,52,260,176
120,50,34,30,39,58,269,181
100,56,36,31,39,61,293,192
99,56,35,29,36,55,265,201
100,58,41,31,35,57,266,203
98,54,39,31,35,53,228,169
78,56,43,33,34,47,210,183
74,49,48,34,32,44,181,187
77,47,49,35,32,44,198,188
74,45,46,33,32,40,193,193
118,60,47,32,36,41,177,216
113,59,46,32,36,41,165,197
116,58,38,28,33,40,161,182
114,58,38,31,33,45,171,167
137,64,39,30,32,46,173,183
106,54,39,33,30,45,194,171
102,52,35,32,33,53,206,175
102,56,38,37,41,63,248,187
102,58,38,35,47,71,253,191
73,52,37,36,49,77,267,181
65,49,37,39,50,77,256,194
83,49,37,38,47,72,250,184
84,48,37,35,42,66,222,173
84,49,37,35,36,59,219,188
80,47,35,35,34,54,207,176
85,46,33,31,33,56,216,165
63,45,34,29,34,54,210,171
78,44,34,29,35,54,204,178
78,48,37,32,36,51,205,172
77,50,39,36,39,49,201,170
75,50,42,38,40,52,189,153
76,52,45,42,42,57,202,153
50,50,43,42,40,51,191,165
49,42,42,40,39,49,162,153
67,49,41,34,37,48,152,155
68,53,43,35,38,44,155,200
70,57,44,31,36,40,140,201
72,58,45,30,35,41,134,188
79,63,48,31,37,45,142,191
84,61,47,32,38,47,161,191
82,59,44,31,35,44,165,161
84,54,41,29,35,54,217,173
80,52,38,29,34,54,223,170
74,44,31,29,34,60,232,166
49,39,33,30,33,64,228,177
67,40,33,27,35,64,227,166
63,41,34,28,36,55,182,143
68,44,34,34,43,70,201,200
67,47,41,34,41,64,188,196
73,49,40,36,40,57,177,189
61,49,38,37,36,54,170,187
88,51,39,40,38,55,160,194
85,50,41,38,32,51,181,138
90,50,38,38,33,54,191,139
85,47,36,36,34,58,216,143
84,46,37,36,35,60,231,162
58,45,38,39,41,67,241,156
60,45,36,35,41,60,216,179
78,48,30,35,44,59,214,210
84,53,34,37,46,57,228,215
84,54,34,38,46,60,205,200
82,51,33,34,41,51,219,210
80,49,33,35,39,49,214,202
75,50,39,36,39,50,205,176
66,43,36,35,36,59,174,162
69,45,37,35,37,57,179,170
67,46,38,33,37,60,164,173
69,48,38,33,37,59,161,174
49,42,36,32,37,62,180,194
85,46,40,29,36,54,181,193
85,48,41,31,39,56,236,183
87,46,37,31,38,54,231,162
88,46,37,31,39,52,230,146
88,54,39,30,34,44,221,122
72,52,34,31,35,44,215,123
71,47,30,29,34,47,165,138
75,48,33,27,34,46,169,138
77,50,34,28,32,48,197,149
79,43,29,29,33,48,199,152
77,45,33,28,32,49,193,162
76,45,33,28,28,43,182,172
74,46,32,29,30,44,196,188
84,52,32,29,36,44,173,187
86,54,35,30,39,47,174,202
75,52,34,29,37,42,170,190
78,56,38,32,42,46,208,173
80,55,39,31,43,54,204,159
87,48,38,31,39,51,199,158
85,64,38,32,37,47,197,123
87,67,39,35,41,49,231,146
101,74,35,33,38,48,209,154
100,77,36,35,38,39,195,161
91,76,36,34,38,44,233,233
88,62,35,34,37,45,234,239
95,68,41,37,39,46,206,229
76,57,41,35,36,41,200,228
79,54,42,36,36,42,197,232
71,59,46,38,38,47,150,147
70,59,44,38,38,50,167,138
59,46,37,34,32,52,172,171
59,53,37,35,33,59,192,177
49,52,35,34,31,57,194,165
67,46,33,33,29,52,218,173
70,46,32,30,31,55,241,202
72,48,34,29,33,55,243,180
76,41,35,30,34,51,234,166
96,44,35,30,39,56,246,172
83,42,34,32,40,56,225,165
85,47,35,34,39,52,195,131
95,49,33,35,38,55,219,162
92,49,33,34,37,53,212,188
73,47,33,35,34,51,195,185
73,49,33,33,33,52,204,201
72,47,35,35,36,57,190,209
49,45,38,33,35,53,157,185
51,46,38,31,35,54,160,179
72,47,39,33,39,55,183,188
72,48,40,33,37,59,193,177
70,46,39,31,35,50,184,174
73,48,39,35,37,49,182,171
70,45,39,35,37,48,176,179
52,43,39,33,35,46,171,165
79,41,38,31,35,41,173,172
82,45,40,30,36,42,185,175
82,43,36,27,33,39,180,174
84,46,34,28,35,41,189,169
84,48,33,26,33,42,186,175
57,48,32,27,32,40,171,167
49,44,29,26,32,46,172,161
52,46,31,27,33,48,174,157
67,42,33,27,34,57,175,164
66,44,34,29,39,57,165,196
71,46,36,32,40,63,175,201
76,47,36,34,39,59,173,215
86,48,38,35,41,59,170,218
77,50,37,36,41,59,162,210
83,48,39,37,38,56,169,185
80,50,40,35,38,51,152,176
84,50,41,33,41,59,168,187
77,49,41,33,42,66,202,210
74,51,42,34,40,58,207,206
79,56,41,33,39,60,213,205
78,56,41,35,40,65,223,223
74,55,42,37,38,56,226,232
71,51,40,35,38,51,210,242
82,56,40,32,35,50,198,230
73,52,39,31,35,49,187,230
74,49,38,30,34,41,174,232
78,49,36,29,32,43,164,206
75,51,35,32,33,40,167,177
64,47,34,33,34,46,183,199
61,47,33,33,32,42,169,190
90,50,33,33,30,44,182,180
85,52,35,34,32,45,169,171
84,54,36,32,29,46,177,179
84,50,34,30,28,40,158,157
83,51,35,31,35,45,178,183
48,48,37,32,36,49,177,168
50,45,37,30,36,51,194,170
72,46,37,27,35,54,193,156
75,48,40,30,36,53,195,173
77,45,38,29,30,51,210,161
77,44,35,30,32,49,207,160
76,45,35,29,32,45,183,157
54,42,34,30,33,39,159,154
52,41,31,29,30,39,163,137
47,40,32,27,32,37,158,124
46,42,35,27,28,36,178,127
46,39,38,30,29,36,182,133
60,36,36,29,31,36,178,124
71,37,37,30,33,37,172,130
80,44,37,29,33,36,141,128
78,41,34,28,35,36,106,145
79,47,32,26,36,35,107,162
70,52,35,26,35,33,124,196
57,50,34,26,34,32,124,191
56,49,37,30,38,39,131,198
63,52,37,30,36,41,135,182
81,52,35,29,34,41,156,201
83,48,33,31,36,44,146,182
83,52,34,29,34,42,143,179
80,50,32,27,30,36,135,169
78,55,36,32,33,37,183,244
57,52,34,31,33,35,164,221
74,51,34,29,32,36,182,253
73,46,32,30,34,39,184,252
71,45,33,31,33,40,183,249
72,39,32,31,34,40,147,180
86,40,33,33,37,44,151,181
71,41,33,33,38,41,137,122
72,45,37,35,38,39,134,130
73,48,38,36,39,39,135,137
72,45,35,33,36,37,131,155
78,45,35,33,36,38,126,164
77,46,36,34,36,42,162,169
79,47,35,33,35,43,169,173
78,45,34,31,33,43,166,172
76,47,34,29,33,41,160,167
56,46,34,26,29,40,186,184
76,45,32,24,26,34,148,174
75,39,29,26,27,33,146,172
76,51,37,27,27,36,154,175
75,49,39,28,30,35,153,169
75,49,40,30,34,36,160,137
56,52,45,34,37,38,160,154
62,58,48,37,42,41,161,153
59,48,42,37,41,39,159,151
61,51,43,38,40,41,161,141
65,63,49,41,41,41,145,144
70,61,46,40,40,44,154,155
79,57,42,34,36,41,170,157
81,55,42,34,36,48,208,159
81,55,42,32,34,45,207,166
79,47,37,34,38,46,199,166
72,47,37,31,34,41,200,151
61,47,37,33,38,43,194,144
77,53,39,34,40,37,151,151
76,52,35,34,40,40,164,155
73,45,31,29,33,38,159,169
73,45,38,31,36,38,146,160
70,45,37,29,34,41,179,166
50,40,35,30,31,41,191,172
73,44,35,30,34,41,179,160
74,45,38,31,33,40,182,153
74,44,34,34,33,44,198,176
74,42,35,33,32,41,157,169
74,42,38,33,37,44,154,155
51,40,40,33,33,41,145,160
57,40,38,30,35,42,143,161
73,41,37,28,32,42,144,150
73,42,37,28,33,38,146,156
73,45,37,27,30,39,142,163
89,50,38,29,31,45,155,182
84,57,45,30,29,42,163,190
79,58,45,30,32,39,140,189
78,57,46,29,32,41,143,195
85,55,43,29,32,43,144,204
69,49,43,29,32,39,158,190
69,43,39,30,33,39,135,170
65,45,38,33,30,39,141,162
81,48,39,35,30,40,136,158
75,48,39,35,32,36,137,156
75,50,39,35,35,37,130,158
90,54,38,37,34,40,133,190
84,52,40,35,35,41,125,188
72,55,42,34,36,41,136,189
71,57,43,34,33,43,139,175
73,54,41,34,30,42,138,196
72,50,39,33,28,41,141,176
73,51,38,32,30,42,152,184
71,46,39,33,30,40,149,173
72,45,38,33,30,41,148,182
68,46,39,34,31,39,128,149
47,45,39,33,31,43,179,161
53,47,43,34,30,47,176,169
73,53,42,34,29,47,171,169
73,54,41,35,29,46,173,158
74,54,41,33,29,49,185,176
78,57,42,32,29,43,146,173
73,52,37,32,30,42,149,173
54,45,35,30,30,42,152,176
76,47,38,31,32,41,138,187
77,48,38,30,31,38,128,185
77,50,38,31,33,43,143,175
78,56,40,30,32,38,136,171
80,56,38,29,35,42,134,185
81,52,34,29,34,43,149,178
83,51,35,29,34,42,150,174
84,49,35,28,32,39,147,182
83,46,36,28,32,41,152,177
79,45,34,28,29,40,165,172
62,48,35,28,30,37,171,231
87,55,38,27,30,38,184,246
82,52,35,30,31,37,166,228
84,48,33,29,31,38,165,245
89,49,38,34,33,41,180,264
86,49,38,33,30,44,165,212
55,43,35,34,32,41,148,183
53,42,34,33,30,41,149,194
64,47,39,37,34,41,149,171
61,47,40,38,36,43,136,134
61,45,38,38,36,39,131,141
62,42,38,39,36,41,153,169
63,44,39,38,38,48,168,169
47,40,35,36,36,48,168,167
66,41,30,35,34,44,189,213
67,42,30,35,36,48,196,224
68,44,29,34,36,46,177,204
68,42,28,36,35,41,167,193
72,41,27,35,33,39,175,209
54,38,28,32,32,37,136,167
52,43,34,33,32,35,119,147
73,42,33,33,30,36,133,148
73,42,35,29,29,37,132,153
72,43,36,30,29,40,139,143
73,45,37,32,33,45,149,146
93,44,33,30,32,47,161,145
78,40,32,31,35,46,158,151
75,42,32,33,35,44,151,143
75,47,35,33,35,43,130,128
76,44,33,28,32,35,117,112
69,40,34,32,31,32,105,118
76,45,37,33,31,39,123,145
79,46,40,32,34,42,130,158
76,41,38,29,34,43,130,161
74,43,38,30,33,42,148,171
58,45,39,32,38,53,204,178
51,42,36,29,35,47,185,155
55,52,37,34,38,49,203,194
54,51,37,37,38,49,206,194
51,51,37,39,39,51,196,181
49,52,37,36,34,42,146,201
48,51,37,36,36,52,153,195
44,38,33,33,33,57,162,174
46,39,35,32,33,61,205,192
69,44,37,32,35,64,226,209
73,48,39,32,36,62,226,188
73,49,42,32,36,58,238,222
75,47,41,30,35,56,236,207
75,48,41,30,34,53,201,194
56,43,40,28,32,50,173,194
76,38,35,26,30,50,181,196
76,37,33,28,30,46,168,164
77,41,35,28,30,41,147,168
79,39,34,27,31,39,141,167
81,45,37,29,33,42,146,155
55,45,35,30,35,42,128,138
73,48,34,28,33,40,135,126
69,47,35,28,32,42,151,147
68,47,33,30,34,44,158,147
74,43,30,26,31,39,164,150
73,41,32,26,29,40,188,161
55,37,34,26,32,41,185,181
56,35,31,27,34,39,165,157
55,36,29,27,31,40,175,156
47,35,28,27,32,40,166,149
67,42,29,28,31,39,143,151
67,41,30,28,32,37,129,137
70,39,29,29,30,36,130,151
69,39,32,29,32,33,142,162
89,44,36,32,35,33,166,191
79,42,36,32,37,34,163,190
79,44,34,32,35,36,164,186
77,47,38,32,36,38,180,194
93,50,37,30,32,36,152,183
74,47,34,29,28,40,144,155
98,50,35,31,29,40,159,181
107,52,35,32,32,41,165,193
121,63,37,32,33,44,157,205
124,79,46,41,51,60,180,220
167,89,55,55,65,69,244,328
171,94,58,54,73,115,247,314
170,101,64,55,80,162,260,365
163,106,63,56,84,182,258,352
165,100,59,51,79,195,275,364
130,115,63,42,79,209,274,354
118,114,61,44,81,219,286,385
143,117,57,45,78,204,280,350
153,108,60,48,100,277,298,437
177,136,60,55,100,291,287,443
180,124,47,51,108,305,223,405
174,131,46,53,111,305,204,401
152,129,56,50,109,317,200,409
149,139,57,52,104,297,188,352
120,116,55,46,104,296,186,329
107,118,67,47,97,314,208,312
120,115,67,45,91,313,203,309
142,126,62,45,95,319,199,283
142,130,59,43,81,278,220,244
141,142,66,45,101,279,210,245
161,149,58,45,103,283,197,242
152,158,64,49,121,333,225,248
134,152,61,52,123,333,223,245
136,181,67,56,128,342,263,313
126,170,61,54,131,379,260,324
101,161,58,54,127,352,257,324
108,150,51,51,115,340,245,311
116,155,54,50,134,384,250,347
112,133,44,42,137,416,188,289
135,135,46,42,124,392,184,291
140,137,54,43,135,425,214,321
159,141,54,44,142,426,204,335
165,139,55,43,125,380,221,329
169,119,57,51,130,391,228,358
156,134,64,53,137,454,244,359
175,135,62,52,144,463,226,337
165,151,61,56,151,486,217,305
167,170,60,61,157,495,194,296
172,171,57,55,166,501,184,252
174,163,56,58,179,513,205,252
161,162,51,57,172,498,211,268
161,168,58,54,181,506,236,284
154,167,56,54,194,554,248,276
161,193,60,59,183,525,244,275
158,188,54,56,165,477,218,267
177,202,58,57,163,472,228,252
182,200,60,57,145,447,218,266
180,195,65,55,125,385,217,247
163,173,60,50,132,411,216,272
161,188,61,52,131,406,234,270
123,178,61,51,132,401,215,258
111,162,54,46,121,384,198,220
104,167,48,45,120,402,210,216
100,175,51,47,113,391,224,176
95,158,49,42,118,389,208,156
101,160,44,41,114,377,213,142
92,171,47,44,121,371,226,183
106,161,49,45,119,340,217,187
109,149,45,43,128,364,225,216
113,147,45,45,120,345,221,226
126,141,46,46,118,342,222,235
130,150,49,50,112,353,230,231
121,161,51,49,113,367,227,263
133,163,51,50,113,348,196,243
129,164,54,49,114,339,204,231
119,161,55,46,115,336,193,233
112,139,51,39,111,325,187,228
123,134,46,39,119,319,206,202
111,124,45,35,103,314,220,198
123,160,50,34,101,302,200,191
126,158,48,34,110,343,203,181
133,168,50,40,118,331,216,146
126,150,57,48,119,333,215,136
135,158,60,54,122,319,200,139
139,131,55,56,127,329,233,151
139,149,67,62,121,309,262,200
134,132,65,58,113,291,243,198
175,141,58,50,99,267,224,221
176,158,60,47,91,243,259,235
168,169,61,50,105,275,254,239
159,150,46,42,99,262,219,197
191,154,49,45,101,268,217,236
163,196,58,54,117,292,236,260
149,175,54,55,124,320,207,253
171,170,55,53,110,298,214,266
170,173,56,56,106,278,219,270
136,171,53,55,126,348,219,234
118,125,53,48,125,390,253,201
151,140,52,47,120,364,248,185
140,130,52,47,125,363,226,172
145,153,54,44,130,377,230,176
155,152,56,46,114,336,237,200
156,148,47,43,102,282,168,180
128,137,50,43,98,287,194,193
127,134,51,45,97,287,188,177
130,106,49,48,97,282,173,177
124,111,46,44,98,262,161,147
118,103,49,45,90,240,167,147
153,134,45,43,99,277,125,135
140,167,48,43,109,299,152,133
134,169,51,41,102,281,157,127
125,167,55,41,95,265,150,139
134,177,56,41,111,295,146,163
109,164,59,41,115,344,171,199
105,140,54,38,105,336,158,212
110,143,51,36,114,386,155,212
123,140,47,36,113,401,162,231
125,122,47,36,104,387,161,228
110,131,46,41,115,402,168,198
110,118,45,41,107,390,164,202
105,118,48,46,106,358,173,207
109,132,45,47,126,433,196,222
96,138,48,54,129,441,218,209
92,116,49,55,110,377,202,207
104,120,49,55,127,488,210,240
121,144,54,58,136,503,220,241
103,130,57,58,145,542,204,206
104,127,55,54,157,579,182,210
113,126,52,46,165,589,175,217
115,127,53,47,160,543,175,168
103,101,47,44,160,538,171,165
100,111,47,45,146,456,172,158
126,114,43,44,129,411,168,141
123,113,50,49,129,403,163,125
116,104,49,47,134,361,162,139
110,99,51,50,134,361,149,153
127,111,51,47,133,369,135,163
108,110,52,47,136,379,133,198
118,119,46,43,131,357,170,230
121,123,46,46,127,372,171,223
129,134,51,43,115,377,168,217
119,130,51,44,116,363,193,232
117,130,52,45,117,358,222,231
106,124,48,44,116,358,226,207
104,125,50,43,136,424,236,213
126,129,49,41,138,425,247,216
126,126,51,41,140,414,238,198
125,121,51,41,141,433,228,190
126,117,51,39,138,437,201,188
130,120,48,35,110,348,177,177
115,102,43,39,111,338,183,190
115,85,37,38,101,339,189,215
112,87,34,37,101,323,165,210
108,91,41,42,103,318,173,206
102,84,49,47,104,317,176,207
91,82,49,44,97,309,211,231
101,131,52,44,99,297,202,217
116,134,53,48,90,269,215,216
114,138,49,45,85,276,209,211
111,139,44,43,92,307,220,225
107,141,47,43,102,320,218,191
89,116,44,43,103,320,216,180
91,136,45,40,104,319,210,173
102,149,50,49,102,301,217,181
119,154,47,47,95,251,216,215
121,148,45,47,98,213,169,205
132,150,53,56,96,232,171,213
117,139,54,55,103,243,167,225
119,151,53,48,106,278,196,224
104,149,56,49,109,303,183,182
101,160,56,48,96,330,205,189
84,147,50,38,97,324,196,181
92,141,48,37,98,373,205,167
110,117,43,38,99,363,188,192
108,133,39,36,92,342,196,180
112,119,36,37,91,313,197,180
116,116,37,37,100,335,223,220
111,117,41,40,95,274,215,217
79,111,47,41,100,282,209,200
97,85,48,41,109,318,198,203
93,86,50,44,126,355,180,208
91,94,51,45,120,318,152,167
105,91,50,44,117,304,154,165
104,85,48,44,127,316,168,172
90,88,48,47,129,304,213,177
108,105,51,46,116,289,228,187
118,105,55,45,114,290,231,176
106,104,54,48,123,316,241,182
105,103,54,47,125,315,221,165
105,100,57,41,117,297,176,155
83,78,53,38,115,275,165,170
79,72,49,34,109,262,155,174
72,72,49,30,97,219,137,166
74,71,52,30,90,215,172,176
68,67,50,30,89,210,177,174
70,65,47,30,87,205,189,132
94,72,46,37,92,217,197,144
95,68,45,38,90,219,205,143
97,66,40,40,66,176,198,140
104,86,41,44,77,184,199,230
102,87,42,45,80,209,178,224
77,82,40,44,86,233,172,215
86,91,44,44,93,249,165,220
95,93,44,45,100,258,146,219
99,78,42,43,92,269,174,147
104,78,45,44,90,259,188,175
109,72,45,40,81,268,213,190
104,58,41,39,77,251,212,181
107,53,41,37,66,244,208,177
100,51,40,36,71,253,178,176
101,55,43,34,74,256,169,145
92,67,46,34,80,266,155,144
109,68,49,34,78,267,167,153
92,69,49,33,82,269,171,152
93,74,49,32,82,269,181,155
87,68,43,31,85,266,185,167
92,82,48,42,90,234,176,158
69,87,47,43,95,240,158,152
70,86,47,43,94,242,149,149
73,88,46,45,93,218,158,135
70,89,48,44,84,213,149,136
73,70,39,35,79,195,138,148
75,65,38,37,76,206,149,154
85,69,38,36,77,191,157,152
82,64,41,36,77,203,133,143
91,66,37,38,103,311,153,148
81,63,39,40,109,326,162,134
82,64,38,35,110,344,155,123
95,62,38,37,109,348,152,122
108,59,34,35,106,349,197,129
107,60,34,32,83,261,193,136
108,63,32,29,94,309,215,140
125,68,34,31,90,278,221,153
116,70,34,33,92,287,218,172
109,89,37,35,96,280,182,175
111,104,41,39,99,282,177,157
112,104,42,39,79,203,142,152
105,99,41,38,79,198,136,158
99,95,41,36,88,211,138,149
90,79,40,35,87,205,143,153
98,64,39,36,85,189,118,168
95,64,40,38,79,191,114,167
87,66,40,42,81,228,121,155
85,74,39,42,77,238,128,152
88,71,39,45,82,255,153,148
67,67,39,46,81,259,164,132
78,65,36,44,81,258,164,131
71,64,37,40,82,234,156,125
86,58,39,40,90,245,154,170
86,59,38,37,87,228,135,170
90,64,36,31,83,217,120,174
89,63,34,31,84,216,119,172
90,87,40,32,85,227,124,171
73,85,37,31,72,183,143,129
74,83,40,33,78,174,142,126
73,79,42,32,85,199,143,113
85,79,43,32,84,202,142,113
82,51,36,31,80,187,152,119
85,52,39,31,76,174,145,117
91,61,35,28,70,168,132,105
107,61,31,31,64,164,153,113
90,65,39,35,66,179,155,121
89,70,47,36,67,189,149,110
87,69,45,37,64,190,128,98
80,64,48,37,60,197,196,140
86,72,51,36,69,211,184,145
89,77,46,34,75,223,189,138
88,76,41,34,75,216,185,145
90,78,39,34,75,210,194,147
88,83,41,37,91,292,148,123
77,73,39,37,92,287,151,132
82,68,38,38,91,293,142,132
89,62,41,38,92,299,141,126
90,63,44,37,96,314,132,125
88,51,39,34,82,244,108,114
71,48,37,33,83,249,96,82
60,45,40,32,87,247,99,90
49,50,40,33,91,269,119,114
66,47,38,33,94,279,120,116
68,51,38,34,98,289,119,117
78,57,41,33,91,273,131,143
79,57,37,31,86,266,138,147
88,56,31,30,85,243,125,141
77,58,32,31,80,208,123,144
75,54,35,34,104,254,143,163
73,52,39,33,116,273,145,178
80,48,42,35,120,268,154,175
68,45,44,36,125,271,171,187
93,58,45,36,124,290,181,216
94,59,43,31,100,241,168,201
92,58,37,30,87,226,155,184
87,59,38,32,76,218,204,229
97,61,38,31,71,215,202,222
88,48,39,34,72,195,195,199
85,47,41,35,69,178,192,197
81,46,42,34,61,160,199,189
81,52,49,32,69,180,139,158
70,49,50,32,63,179,134,163
66,60,49,29,61,181,131,164
69,63,49,35,73,209,145,169
74,61,47,35,76,206,167,178
73,56,38,36,67,180,167,152
90,60,37,35,65,180,155,149
76,56,41,39,79,194,161,149
81,59,40,33,73,167,165,147
93,69,43,33,72,171,149,133
96,70,47,37,82,206,145,137
81,69,48,38,81,199,145,133
81,61,43,35,71,204,146,123
93,60,42,39,69,210,162,138
79,56,41,40,68,205,159,148
83,57,37,41,64,198,211,171
83,54,36,40,63,214,216,166
90,59,42,40,62,214,243,196
99,64,44,40,61,207,225,187
98,61,42,38,61,207,243,201
95,58,42,32,57,214,208,178
101,70,47,37,58,189,205,182
118,77,43,38,57,179,169,149
95,71,42,40,65,216,169,147
97,74,50,44,124,367,151,121
111,80,51,49,129,372,133,124
105,73,48,51,171,443,139,122
81,63,46,49,174,447,135,121
102,64,47,47,175,446,134,126
101,63,40,44,145,334,134,150
86,67,37,42,151,364,154,154
89,66,37,36,107,293,146,151
93,72,40,40,118,316,179,160
80,75,42,40,116,300,179,167
79,72,41,38,109,312,174,141
75,62,39,34,101,280,164,138
80,69,45,35,96,270,180,150
73,60,40,31,78,229,145,138
61,56,41,30,81,234,144,142
104,60,41,30,83,222,126,138
103,61,42,30,77,181,136,139
102,51,36,29,73,165,111,129
106,52,40,30,67,149,111,130
105,49,33,27,53,121,104,108
91,54,35,29,47,108,110,108
89,52,39,29,52,101,113,115
89,53,40,33,75,167,169,137
85,53,39,31,74,171,184,146
86,53,42,35,80,184,187,158
54,46,43,34,82,186,187,157
56,52,44,38,78,183,176,140
56,52,42,39,59,149,139,120
64,50,42,39,60,144,132,110
65,52,42,37,53,127,129,94
67,47,40,39,50,128,179,115
66,40,35,36,48,128,186,121
82,47,38,32,44,101,184,113
77,51,40,33,53,157,181,133
79,51,39,35,63,196,194,135
93,68,38,32,68,204,158,132
95,77,42,32,75,220,172,142
99,79,50,42,93,250,174,157
101,82,48,43,91,234,173,149
115,85,49,42,106,254,166,167
111,72,48,42,106,254,163,155
123,75,53,43,102,239,135,158
105,68,44,32,89,222,135,170
128,84,44,32,97,247,147,203
118,88,45,30,82,231,160,195
114,90,47,30,80,245,156,198
105,85,40,35,96,273,164,211
129,96,45,39,106,289,166,210
108,85,47,39,108,290,153,178
109,81,50,40,107,288,140,182
112,80,49,41,109,290,149,197
129,81,49,38,106,303,149,176
110,80,46,35,110,313,139,165
107,76,44,33,101,301,152,164
101,77,41,32,97,280,143,160
119,106,51,39,114,288,152,151
98,102,51,39,106,271,156,156
103,93,50,38,94,238,149,135
100,95,53,41,117,251,140,128
108,94,51,44,145,322,156,119
81,60,43,38,136,323,148,128
76,62,43,39,152,336,157,134
71,69,46,39,152,347,167,157
90,69,43,37,135,325,160,161
83,65,42,33,112,276,154,169
83,74,43,34,111,255,153,182
83,73,41,31,99,270,137,184
85,83,43,32,97,260,128,176
77,88,43,36,101,270,128,177
82,88,44,35,97,255,115,177
89,84,44,37,89,260,127,189
103,83,45,36,95,235,133,186
95,74,43,39,95,219,143,190
100,72,43,38,104,213,169,217
114,80,42,39,102,214,177,212
111,77,38,36,108,211,174,187
115,84,41,38,96,184,166,184
117,77,39,34,94,196,166,183
109,71,39,34,80,223,145,151
98,82,49,39,91,267,140,160
96,82,49,41,88,266,124,162
71,75,47,41,90,304,128,157
94,78,48,42,95,319,152,156
100,83,51,42,102,301,161,159
94,75,42,38,107,362,176,147
95,79,43,37,104,365,193,133
97,80,47,39,100,334,190,125
86,79,46,38,103,362,181,115
81,74,43,34,110,394,181,118
76,68,45,38,99,303,177,130
72,62,46,38,100,303,156,125
97,64,38,35,99,297,157,128
89,65,40,36,98,293,137,129
101,66,42,40,93,279,138,140
124,64,48,40,100,318,131,141
125,72,47,42,101,319,128,140
108,77,48,42,96,311,118,135
109,79,49,43,88,267,121,142
98,81,50,43,91,268,138,201
64,78,44,37,83,225,124,192
78,71,45,37,79,233,154,203
103,65,43,37,90,260,160,219
100,60,45,40,94,260,159,223
103,56,40,39,91,238,147,180
104,55,37,39,94,253,163,191
109,56,37,40,98,241,144,211
88,96,42,43,106,241,138,207
88,101,46,41,106,238,136,201
83,104,44,39,100,235,140,200
105,114,49,41,101,224,160,201
94,115,49,41,98,234,162,171
92,89,47,40,82,211,162,157
91,87,44,40,83,248,178,151
111,89,49,39,89,263,188,145
97,81,49,40,83,252,172,154
101,78,48,39,79,241,171,152
103,73,49,37,80,248,185,159
101,67,47,34,74,220,173,159
87,59,44,35,80,227,148,182
84,58,45,34,82,284,165,183
89,61,45,34,90,289,167,184
93,63,46,33,90,295,165,192
105,62,44,33,91,290,168,201
97,60,42,33,87,288,183,173
97,58,39,33,93,254,160,163
90,60,42,37,94,252,168,175
89,70,45,42,96,250,160,172
93,85,46,42,96,249,152,174
94,86,47,42,87,224,134,167
95,93,50,40,80,201,137,188
88,92,49,38,75,199,134,177
81,78,43,32,70,193,136,173
59,59,42,32,72,201,152,166
79,61,53,34,75,214,160,170
79,54,47,34,68,214,163,165
81,59,46,32,66,214,152,157
100,73,49,36,66,209,143,156
102,85,49,36,67,207,134,166
87,86,35,35,60,187,150,161
80,82,37,35,66,195,142,134
81,78,36,33,63,179,142,158
80,71,36,36,96,292,152,170
90,76,40,39,101,302,188,189
91,74,44,42,115,337,177,194
95,76,44,42,119,339,181,198
118,81,47,45,124,349,183,184
108,79,45,41,103,261,174,172
102,66,41,38,96,239,184,177
101,68,41,38,87,193,182,182
109,93,44,43,130,355,195,178
79,90,43,46,144,395,198,178
81,91,49,47,159,442,212,180
80,99,50,50,168,468,207,144
107,97,50,56,170,499,205,167
104,75,49,55,153,437,199,174
112,74,51,56,154,430,210,183
113,84,47,57,142,402,204,186
118,80,47,54,137,385,167,186
94,78,43,45,130,338,166,160
87,80,45,43,131,330,156,157
79,78,41,37,115,297,143,159
68,64,41,35,109,268,148,153
81,58,42,36,103,264,152,154
81,63,41,37,107,277,154,143
81,59,37,37,82,218,156,131
81,57,37,40,72,206,169,131
92,80,43,44,69,197,161,134
70,78,39,43,69,189,170,127
82,72,39,42,63,175,159,134
81,73,40,41,72,235,190,140
92,78,41,39,85,241,176,122
92,62,42,37,88,253,179,113
100,88,44,38,87,252,165,100
106,90,44,39,85,243,159,98
106,89,44,38,76,182,149,117
96,84,42,35,78,207,155,135
101,83,37,34,76,225,155,147
101,64,38,30,85,243,156,149
86,65,40,31,92,266,168,170
94,62,38,30,99,302,162,158
93,69,43,33,101,306,162,161
108,74,41,37,130,352,172,163
103,75,38,39,126,340,170,170
118,82,42,44,132,337,167,171
129,87,46,44,128,316,147,164
133,87,42,44,117,285,133,167
113,81,44,41,86,191,126,158
112,77,44,40,82,184,142,157
106,69,40,34,77,186,160,160
91,68,38,39,87,202,175,173
91,65,42,39,93,218,175,158
96,63,43,37,98,223,174,155
109,64,44,40,107,252,166,160
110,75,46,44,120,299,176,151
105,73,45,40,126,320,168,158
103,74,42,39,125,326,171,152
99,72,40,39,121,340,180,154
99,70,42,37,116,327,183,180
87,54,38,30,93,270,157,166
86,58,39,31,90,294,168,157
93,65,38,32,95,317,166,164
103,71,39,32,92,301,150,171
92,73,38,34,93,310,152,140
104,79,43,35,99,314,158,151
107,75,47,39,101,309,161,164
110,71,52,42,100,284,159,158
99,70,51,42,104,302,158,147
97,77,58,41,103,296,141,140
116,76,55,40,96,288,136,133
122,85,55,39,90,287,148,112
115,83,54,35,86,281,144,111
153,88,55,39,90,276,179,119
156,88,46,38,85,266,183,114
135,88,46,37,85,283,182,117
135,80,45,37,88,295,151,123
143,87,45,40,82,285,164,149
106,79,42,36,75,278,120,142
104,71,47,37,75,272,113,144
120,77,48,37,85,272,114,150
117,79,47,35,74,205,137,160
106,75,47,35,99,277,158,148
106,74,49,36,120,332,172,149
110,82,43,37,128,347,174,168
103,78,41,36,126,366,176,168
97,75,41,33,125,365,159,146
94,67,36,32,108,319,135,146
114,68,44,35,97,277,139,160
113,81,50,35,96,281,160,158
98,85,59,40,94,247,161,154
101,86,57,40,100,255,158,172
118,90,57,40,110,275,172,185
98,97,52,38,101,257,175,183
91,76,45,36,92,232,157,169
98,78,38,34,92,249,147,160
96,76,38,34,81,219,151,141
90,76,41,41,73,207,167,151
83,65,41,40,74,217,165,168
105,73,48,42,76,228,164,170
104,67,45,39,73,208,166,198
119,74,46,39,76,217,158,208
116,74,46,32,70,197,164,199
118,76,44,34,75,237,171,201
136,79,49,31,82,265,179,205
134,84,53,32,81,271,179,176
124,86,57,35,81,272,184,168
119,82,57,35,81,272,172,243
124,80,59,35,74,237,181,221
82,69,48,36,69,202,183,222
91,84,46,37,71,190,189,234
87,89,40,36,77,219,187,241
95,94,40,36,80,233,159,160
86,93,40,38,93,293,134,165
89,98,41,37,91,315,140,170
85,78,41,43,95,320,149,174
112,67,43,41,99,320,163,161
106,69,41,41,98,322,183,170
106,75,44,38,95,286,173,175
132,87,51,44,107,299,165,165
129,87,51,39,116,332,160,183
108,89,52,40,112,316,150,182
108,85,52,40,115,328,130,166
108,85,55,41,111,314,136,167
81,72,55,43,122,307,148,177
89,77,58,43,115,284,137,142
92,70,56,43,110,289,142,181
97,70,57,43,107,265,175,237
104,78,52,41,105,267,198,240
100,75,45,33,79,240,196,234
97,76,46,34,72,245,199,250
97,78,46,34,93,271,195,252
100,81,50,37,100,283,185,220
96,70,55,38,101,289,160,239
102,72,56,37,102,288,147,243
122,76,51,36,100,265,146,231
122,77,52,36,93,233,142,213
115,78,44,32,90,239,113,203
111,77,40,33,90,235,118,185
100,74,41,34,92,227,116,173
85,61,41,34,113,314,140,175
93,66,43,35,105,304,155,162
88,62,47,36,104,300,181,172
98,86,47,39,105,298,175,164
105,90,45,39,103,299,174,171
97,93,47,40,90,248,167,228
86,88,48,44,116,335,169,249
89,87,44,45,119,342,198,262
90,65,45,44,125,361,224,285
120,87,52,47,132,386,235,294
122,88,53,49,137,373,231,254
124,94,49,46,124,322,219,248
122,91,48,44,117,310,173,215
123,96,47,41,105,275,140,181
93,77,39,39,108,272,142,163
105,72,42,38,105,289,151,165
102,63,43,38,100,265,158,148
101,67,45,38,100,255,152,154
107,75,45,39,101,261,154,163
105,73,47,40,91,240,142,175
101,75,42,37,75,199,151,190
103,75,40,36,65,179,142,180
110,79,42,37,69,191,143,175
100,68,46,42,85,207,159,195
99,65,47,43,102,241,163,193
88,74,51,49,127,348,160,222
112,90,57,53,139,370,168,254
116,89,57,53,141,387,179,262
110,88,53,48,141,395,164,246
107,90,51,45,134,384,153,247
103,81,47,40,135,363,135,204
72,66,45,35,147,401,147,172
63,57,44,33,145,389,132,154
80,58,44,37,139,382,134,147
89,56,47,41,146,396,133,156
89,56,47,39,128,349,123,153
95,52,45,40,104,289,106,148
89,53,45,41,104,273,114,164
94,46,44,38,98,250,108,155
92,43,41,35,86,224,108,162
117,64,41,38,92,229,162,199
114,68,41,39,92,222,159,193
139,80,41,43,114,329,159,189
128,83,42,47,137,385,163,199
122,88,41,45,133,370,181,197
104,76,43,44,146,427,163,153
112,84,48,46,150,440,170,165
86,78,49,44,135,395,165,163
83,87,50,40,116,354,166,153
85,82,52,43,139,414,161,174
118,84,54,44,122,337,162,192
111,76,48,43,119,330,160,187
119,85,52,47,119,297,161,182
120,74,48,47,117,303,159,187
122,73,46,45,94,236,151,161
94,93,47,49,87,239,131,155
90,92,50,46,87,243,151,159
98,87,51,44,92,254,156,190
98,93,52,44,100,261,174,192
100,101,52,43,93,249,169,176
94,81,47,35,108,290,160,166
106,83,46,38,122,308,138,209
88,77,41,32,120,315,135,184
90,78,45,33,111,291,128,194
111,72,45,36,120,296,135,206
114,70,45,36,113,283,151,219
104,66,44,34,93,266,144,178
108,77,48,35,94,274,150,180
113,73,46,33,98,279,132,167
97,74,51,35,96,303,134,176
91,74,52,38,103,291,114,168
93,75,53,39,110,299,140,198
116,76,51,44,107,280,150,219
110,69,49,43,109,289,157,224
109,63,43,39,105,274,145,216
112,66,42,38,88,254,154,254
112,63,40,35,87,255,153,230
82,48,35,31,87,245,129,212
76,49,35,31,80,232,128,207
93,71,38,38,83,207,160,280
91,74,39,38,92,245,205,275
92,80,36,38,83,216,197,278
106,88,39,37,81,225,198,285
104,89,40,39,90,239,194,288
81,77,40,35,86,245,172,218
83,76,42,40,96,222,115,182
93,80,50,44,110,260,124,200
92,77,50,45,112,272,132,179
95,79,53,45,108,252,133,178
97,82,52,45,108,240,138,175
96,80,48,40,117,285,150,183
89,75,49,38,108,256,138,163
89,75,49,40,113,253,142,186
103,77,48,39,111,262,138,189
109,75,49,38,112,268,129,187
131,80,50,36,96,235,122,196
130,77,44,38,102,247,132,217
120,73,44,39,96,241,126,230
106,71,39,38,97,248,125,222
101,68,39,38,89,238,125,218
75,69,35,39,82,211,138,222
72,70,39,41,89,248,157,202
72,77,42,40,97,263,174,220
75,77,47,43,101,261,181,222
73,74,45,44,100,255,182,224
88,72,49,47,105,252,173,218
105,75,51,44,92,225,152,221
104,69,49,45,81,198,130,166
117,97,49,44,75,205,136,158
117,100,53,42,79,215,136,188
102,99,49,40,68,227,128,166
98,100,45,40,82,257,145,169
97,97,45,38,85,266,146,177
98,71,46,36,84,253,150,223
114,79,44,36,89,272,152,197
115,76,46,35,90,268,151,209
103,73,47,34,90,237,139,204
107,77,46,35,94,228,133,214
96,84,47,36,99,233,119,180
79,78,47,38,93,215,134,188
77,78,46,37,90,198,128,170
76,78,46,36,78,182,163,176
79,77,45,32,71,211,162,173
86,70,45,31,69,208,164,161
81,61,43,29,68,209,153,147
84,64,45,29,67,212,156,155
82,62,45,29,64,227,122,155
106,68,45,30,62,212,143,177
98,62,39,29,63,213,134,178
100,69,42,31,63,204,140,180
99,69,45,32,66,203,135,176
101,72,43,32,64,166,147,185
78,66,42,33,60,147,147,166
79,73,47,35,68,168,160,164
84,70,45,36,71,163,155,178
114,77,43,37,82,191,165,198
113,75,43,37,79,187,139,171
110,72,44,39,104,240,145,155
125,78,40,39,98,228,157,174
143,100,44,40,98,233,186,171
123,133,47,41,100,268,185,149
146,150,48,42,103,271,187,155
148,157,50,40,79,233,185,168
135,153,52,40,81,241,178,166
113,142,50,36,79,247,155,165
116,116,46,34,75,215,147,172
95,102,46,35,77,226,161,183
102,100,49,38,79,217,149,197
106,98,46,34,73,195,130,182
102,94,46,36,81,227,128,177
94,81,47,37,74,223,141,183
111,102,47,37,81,223,162,191
110,98,41,34,88,251,165,181
108,102,46,37,93,256,172,193
110,102,46,38,92,231,168,187
119,122,44,39,90,215,159,187
98,102,45,42,89,232,142,190
88,101,47,41,79,204,134,172
100,134,48,46,83,210,133,166
99,135,46,45,78,211,134,164
124,134,45,42,79,205,134,164
149,140,45,40,79,193,135,147
153,142,49,43,86,206,153,161
151,116,44,36,80,197,160,159
153,116,50,38,81,187,157,156
129,97,49,38,93,211,157,153
103,86,48,34,85,195,158,138
106,82,41,33,89,198,146,173
104,83,49,35,101,221,136,195
116,79,43,33,103,227,138,200
115,88,44,34,90,205,135,204
130,86,44,34,95,206,118,209
124,92,46,34,95,218,117,186
123,91,37,30,83,194,122,160
129,103,36,32,79,181,128,166
137,107,39,33,81,215,159,170
161,115,38,36,79,227,159,173
160,114,40,41,65,197,183,155
157,111,39,42,78,237,185,157
142,99,41,41,94,274,182,145
136,87,43,41,97,273,157,128
101,99,48,38,100,265,150,112
99,93,47,36,106,276,120,134
96,85,46,34,97,270,114,146
129,89,44,34,82,232,106,150
128,100,40,33,72,199,108,141
127,86,34,32,71,197,117,154
123,87,30,29,64,179,111,132
137,93,33,31,72,201,107,148
115,138,38,34,86,231,125,158
119,142,37,35,91,250,126,161
111,145,37,35,88,243,127,149
122,147,38,36,97,273,170,179
110,183,39,36,92,230,184,158
100,152,41,36,77,199,191,152
101,144,40,35,73,175,191,164
118,148,45,37,95,222,189,169
112,154,45,36,88,189,171,159
118,130,46,38,88,207,189,214
123,137,44,36,92,224,187,224
117,136,47,37,98,244,193,229
92,123,44,35,76,214,261,276
94,124,48,37,75,226,248,270
117,120,46,36,74,210,244,247
132,120,46,38,73,198,243,236
139,126,44,38,73,231,256,246
145,139,43,40,83,241,208,202
140,146,36,38,82,233,218,195
123,135,41,39,105,281,227,171
134,142,39,40,105,288,227,186
135,145,43,42,102,256,217,190
129,137,50,40,106,303,205,190
131,120,49,40,109,341,215,206
124,126,52,42,97,316,188,205
103,125,54,42,100,313,189,208
151,142,54,41,112,334,230,224
172,156,54,44,101,288,235,233
178,157,55,43,106,264,236,225
181,146,51,42,104,274,237,231
177,146,51,42,112,281,249,217
146,124,48,40,101,273,232,168
144,116,43,41,107,287,233,150
138,134,47,45,102,270,227,143
142,151,48,47,114,302,250,135
170,155,57,54,125,368,280,162
175,187,61,57,126,356,280,186
172,190,59,54,122,344,287,190
188,191,58,52,123,345,277,197
220,208,59,49,107,302,258,203
200,201,49,41,90,239,209,185
191,177,47,36,91,246,210,175
225,173,46,36,97,257,198,165
221,164,55,35,100,272,232,150
193,124,54,38,102,283,247,148
217,127,58,40,93,254,256,156
233,126,57,42,90,254,264,144
197,126,71,44,92,249,270,145
191,139,64,42,93,249,245,169
183,145,63,45,90,237,257,179
179,153,62,45,100,262,269,172
153,149,70,45,106,282,246,171
147,141,73,42,99,281,271,197
148,136,75,45,90,260,282,197
174,135,74,48,112,288,269,218
151,121,78,44,112,282,255,234
160,126,73,45,105,251,252,238
157,128,58,45,106,256,202,218
182,128,57,44,108,271,202,197
157,149,59,38,88,269,221,177
156,147,52,39,80,268,241,181
151,141,49,42,80,269,235,172
200,148,45,40,73,242,243,171
182,136,44,40,81,264,287,198
183,106,44,40,92,260,287,199
181,103,45,43,113,296,264,193
184,135,67,45,117,312,271,190
191,139,81,50,121,320,277,201
189,139,89,49,113,294,233,187
185,140,88,53,143,337,230,183
186,142,88,49,135,316,255,176
191,124,73,47,143,321,261,182
183,118,62,43,145,325,255,190
177,121,55,46,150,331,247,198
179,126,53,39,120,282,220,196
203,136,80,40,113,281,197,191
199,129,83,35,107,267,179,194
159,125,85,46,132,307,211,179
169,130,82,47,132,295,225,162
207,135,89,50,132,283,233,151
182,127,67,49,128,257,223,139
182,122,66,54,160,423,255,131
178,133,95,51,141,395,274,176
169,148,103,50,139,406,258,173
114,150,99,55,136,403,244,176
137,147,101,60,144,421,265,214
135,165,115,59,111,284,240,217
130,151,95,55,125,323,200,181
139,136,85,54,128,321,196,187
164,133,93,46,128,331,242,212
175,164,96,40,124,326,220,180
171,146,104,41,119,311,242,184
172,151,104,39,99,265,228,173
160,152,110,37,97,269,226,170
135,142,105,38,95,257,176,137
102,109,103,42,89,234,193,129
108,121,75,46,113,274,239,221
124,119,68,45,117,297,244,225
119,102,56,44,118,302,250,227
126,119,52,46,117,317,273,236
114,110,41,47,131,350,264,264
102,90,39,37,103,299,235,206
76,87,41,37,103,287,234,202
76,88,42,41,107,288,246,203
142,84,44,43,108,282,229,200
154,115,45,40,92,242,223,165
156,126,45,41,96,253,209,158
163,134,43,45,97,254,224,182
164,134,42,44,91,239,235,181
105,124,41,43,87,215,230,184
83,95,40,41,83,211,227,175
74,79,39,40,74,185,226,163
53,58,34,35,65,176,221,189
50,54,35,34,54,152,185,192
40,38,31,30,49,136,182,182
69,59,34,33,47,128,233,200
97,89,38,41,51,131,213,212
117,99,41,43,49,105,226,205
126,101,41,42,56,132,235,208
136,113,46,42,65,144,242,216
128,107,47,43,67,154,250,254
109,84,43,34,66,153,242,243
90,71,40,36,69,168,253,243
80,73,44,39,66,151,264,250
63,61,44,38,62,167,325,265
50,53,44,37,62,164,289,216
79,58,44,40,66,172,297,230
79,63,45,37,66,171,267,199
80,64,43,34,70,188,247,178
80,60,39,34,69,179,165,135
87,72,43,35,68,186,227,173
89,77,51,32,67,192,233,163
91,85,55,34,67,187,263,171
88,82,52,32,64,196,261,175
90,85,51,31,61,189,257,194
87,77,47,31,64,177,217,176
56,68,43,36,65,181,203,175
50,54,38,35,59,175,160,166
49,52,37,34,58,149,158,170
44,44,36,33,55,149,147,143
66,43,33,31,53,181,133,174
67,47,31,26,44,156,129,170
74,55,31,24,52,173,141,174
87,58,34,26,49,165,137,173
90,63,38,30,53,168,139,181
78,66,41,32,52,134,132,147
93,62,41,32,51,150,156,137
89,59,39,30,43,123,139,128
79,56,36,30,40,122,146,120
77,53,39,27,36,117,219,150
75,56,39,26,35,121,222,153
75,60,36,26,37,141,227,208
78,58,39,31,49,148,239,216
84,70,40,30,48,144,239,214
95,87,43,34,60,152,178,194
95,83,41,33,61,148,166,178
87,88,45,39,78,161,164,165
85,91,45,38,75,165,151,162
92,90,47,40,81,183,173,166
108,79,40,37,72,173,165,157
109,79,39,37,72,173,179,160
102,73,38,32,54,123,158,125
102,71,38,33,53,115,192,175
89,61,36,32,52,138,177,202
55,58,36,32,58,157,196,215
87,81,39,36,58,162,187,213
92,83,40,35,57,167,179,201
94,83,38,33,59,173,156,156
96,81,37,33,59,149,154,126
96,79,40,34,66,181,133,130
82,55,39,30,66,186,138,133
75,49,36,30,68,195,160,144
73,50,37,33,66,196,150,176
67,54,36,31,59,193,141,167
66,51,34,29,48,160,171,152
49,52,36,29,48,154,162,156
65,53,36,30,47,146,159,171
80,61,38,28,46,138,160,140
89,62,40,30,48,129,171,152
90,64,38,29,44,109,137,153
111,74,41,32,48,133,168,181
106,74,41,33,54,139,162,160
95,63,39,33,55,155,167,157
87,61,37,31,52,158,196,151
85,58,38,33,53,156,214,156
52,55,34,32,53,145,214,143
62,69,32,31,46,141,208,144
62,73,30,29,52,161,200,140
70,75,30,30,54,165,193,137
72,78,36,30,60,179,187,168
90,75,35,28,57,167,163,146
81,67,36,32,64,177,170,148
82,67,36,32,60,144,168,146
78,67,38,34,63,156,163,146
75,64,34,33,55,138,145,102
52,59,33,32,54,141,148,101
45,52,34,30,50,132,151,101
61,53,35,33,49,137,184,110
77,60,34,32,41,111,160,113
78,60,35,31,42,109,162,104
76,64,37,34,42,104,166,121
79,68,36,32,35,86,150,112
82,88,40,31,42,105,130,118
68,83,42,32,46,118,143,125
68,85,42,35,48,129,141,143
69,80,41,33,48,130,127,125
67,76,42,35,52,139,128,130
47,52,38,32,49,122,134,134
44,49,35,33,53,125,116,131
64,57,34,33,55,133,129,130
78,60,36,32,55,136,144,136
84,64,34,31,52,133,147,130
84,62,34,33,50,132,174,139
87,65,35,27,46,130,191,177
72,55,35,25,43,123,188,173
72,63,34,25,46,122,181,182
67,61,33,26,47,123,188,194
70,57,36,24,45,115,150,177
67,61,37,28,41,110,132,134
71,63,36,29,44,147,176,132
56,57,38,31,43,147,179,127
71,63,37,30,41,143,171,107
67,64,33,31,42,142,167,102
70,61,34,29,46,139,171,118
67,56,33,29,42,105,149,117
68,53,35,30,44,113,173,119
65,59,36,29,44,117,172,123
93,68,37,28,42,119,172,129
94,69,35,28,40,111,167,118
94,72,36,30,40,91,196,138
93,70,32,28,37,90,167,127
83,57,32,29,41,107,180,128
52,44,31,29,43,116,182,129
43,35,30,29,43,120,181,121
60,32,29,27,40,119,117,89
60,35,30,27,41,111,139,96
65,36,30,28,46,115,136,110
67,44,31,28,50,114,133,108
69,48,33,29,51,119,132,107
56,46,34,30,52,123,130,120
73,49,38,30,53,120,111,118
67,49,38,31,49,99,103,117
73,70,37,31,45,87,104,132
74,73,36,31,43,79,153,149
71,77,35,31,46,98,175,157
71,74,30,31,45,103,169,153
71,74,28,30,41,101,176,141
65,50,28,29,41,102,188,128
67,44,27,28,40,104,167,127
71,40,29,27,38,85,160,127
54,40,32,26,36,85,175,137
54,42,33,26,36,88,168,137
71,47,34,27,38,89,150,136
70,46,35,27,37,80,144,137
71,42,35,28,39,80,149,124
69,46,39,28,40,77,167,131
70,46,38,29,43,80,165,140
50,52,40,30,40,75,168,136
66,65,40,31,40,76,158,124
65,67,39,29,39,85,150,121
66,66,37,31,44,96,176,144
66,65,38,28,43,99,173,141
66,58,36,27,48,112,177,140
47,48,37,28,52,143,196,164
45,47,37,27,57,149,187,168
45,45,30,24,55,146,143,145
51,51,34,28,53,140,155,154
61,55,38,31,59,140,165,175
62,51,36,29,56,120,142,152
66,53,36,30,52,114,141,148
89,52,40,32,50,104,127,140
86,47,37,29,48,101,113,148
84,46,34,28,37,91,102,136
84,44,36,30,38,81,112,140
82,42,36,31,36,76,123,148
54,41,34,29,35,74,120,146
59,41,35,30,35,74,118,128
65,35,33,28,36,77,154,171
69,34,34,28,34,74,166,179
67,38,34,27,40,96,170,180
68,46,36,27,40,100,178,187
63,44,36,29,42,99,176,182
48,46,36,29,39,92,133,137
38,47,33,28,39,87,106,128
36,44,34,33,32,48,89,132
39,40,32,34,33,62,116,139
74,41,31,32,32,65,129,158
77,38,30,32,35,69,137,163
82,44,39,34,38,78,146,206
84,43,37,29,37,84,144,194
83,44,39,30,35,74,127,194
62,51,42,33,47,94,133,229
63,53,45,34,48,102,133,226
57,50,42,33,50,106,171,231
58,51,44,33,51,109,171,233
58,50,44,32,54,111,162,226
49,44,41,32,44,95,153,186
48,45,41,36,53,91,176,232
48,45,41,36,48,76,129,183
46,45,39,35,46,69,134,189
47,43,36,34,43,64,133,187
47,41,34,33,45,62,140,185
44,43,32,28,38,64,131,137
48,40,27,28,42,66,153,169
52,45,31,29,41,64,150,163
49,46,31,31,40,63,153,164
50,50,34,29,37,61,148,159
47,45,31,28,40,76,137,161
46,45,31,29,42,86,133,155
41,42,30,29,45,85,135,149
49,47,31,27,45,85,140,154
53,51,34,28,47,96,133,152
54,52,35,28,41,76,119,158
56,52,37,27,42,75,104,152
56,51,37,28,41,98,110,165
51,45,35,27,42,102,139,169
59,38,33,28,45,98,140,170
68,40,34,29,44,96,140,145
66,44,33,27,38,88,142,130
70,48,35,28,44,76,162,142
71,49,37,29,44,77,130,138
63,53,37,29,43,75,128,131
50,51,36,28,42,74,134,128
50,51,39,29,48,122,218,182
50,49,38,26,44,116,210,175
46,51,39,26,44,119,216,177
43,46,37,25,44,119,219,178
47,45,36,24,45,122,221,183
45,43,33,26,40,76,139,132
38,43,33,27,41,82,126,112
39,46,33,25,38,74,128,95
36,46,33,28,39,77,149,150
32,48,35,31,41,78,140,147
34,45,37,30,39,73,145,140
37,45,35,29,35,61,146,150
39,44,34,31,37,59,139,159
37,42,32,28,33,48,119,115
41,41,30,26,30,39,124,120
40,43,29,26,34,51,132,174
45,41,31,27,37,55,128,173
46,36,32,27,36,52,128,166
47,35,33,27,36,54,120,163
45,36,34,27,37,56,121,165
49,38,32,25,33,59,126,115
43,40,35,25,31,59,144,102
39,40,32,23,30,63,152,100
40,42,33,23,32,65,157,102
38,41,32,24,31,66,161,100
38,39,32,26,45,116,154,110
41,39,27,26,49,121,155,122
43,38,28,28,52,123,157,133
43,39,30,29,53,133,161,138
46,40,34,33,58,136,152,141
46,40,34,34,55,129,164,144
47,43,36,33,53,129,166,146
47,47,38,34,53,138,184,153
47,49,38,35,63,189,187,166
46,52,40,32,74,219,198,167
48,53,45,36,79,232,199,201
52,55,45,40,91,308,212,214
57,67,48,43,107,367,204,206
56,70,47,43,105,351,198,190
55,70,46,45,110,353,195,182
53,72,42,42,112,348,177,132
49,72,40,39,107,295,165,123
43,68,40,35,100,262,170,133
45,63,41,38,109,304,168,153
53,65,39,36,101,299,180,167
50,63,39,36,99,296,182,166
56,62,43,41,98,292,183,183
68,61,43,43,98,292,266,202
75,59,43,46,100,279,309,223
78,60,46,47,101,288,299,219
79,57,45,46,107,323,306,218
75,52,39,44,107,334,310,207
87,59,45,51,106,354,249,215
85,63,46,45,93,333,200,188
82,65,47,48,92,373,213,192
105,71,49,50,89,402,205,202
108,71,51,48,88,392,182,185
104,63,44,38,81,355,184,169
105,67,45,44,89,377,181,162
102,61,42,40,84,322,178,152
81,57,43,41,77,239,192,155
78,59,43,42,84,277,211,156
56,54,43,46,92,281,198,130
52,47,42,40,86,255,206,144
56,43,40,39,110,305,196,185
67,57,46,54,130,340,198,198
69,54,45,53,129,318,181,207
82,62,46,55,126,317,167,210
80,62,44,56,123,312,148,199
79,65,45,56,110,312,144,187
66,55,40,47,98,280,126,182
62,57,41,47,103,333,124,184
50,49,42,44,104,366,127,180
46,45,42,45,111,383,134,178
45,42,43,45,105,357,131,161
45,41,41,42,95,378,118,175
48,39,42,44,103,394,160,199
43,35,37,41,98,360,150,199
43,36,37,40,94,350,146,198
40,36,35,40,92,331,145,187
43,32,37,35,92,317,163,178
42,31,36,30,70,221,155,140
42,38,39,31,72,246,165,140
44,40,40,35,76,266,170,148
42,40,41,33,76,264,171,155
41,38,36,34,71,240,151,116
42,39,35,35,68,247,164,111
43,37,31,35,75,268,152,148
42,40,33,33,83,250,150,151
43,41,32,33,84,258,157,149
42,45,34,35,84,257,157,156
47,45,35,36,87,256,146,180
45,42,36,35,77,197,155,169
47,40,34,36,61,193,160,174
49,40,34,35,59,197,155,172
52,38,30,33,57,206,166,169
46,36,30,31,53,193,141,148
48,38,32,33,57,200,159,154
47,36,29,31,53,168,151,141
49,39,32,36,61,227,171,152
48,38,33,35,60,219,157,148
47,39,38,39,67,235,183,178
49,37,35,37,68,232,165,162
50,37,35,40,74,244,169,166
49,33,33,37,67,196,150,155
50,35,34,37,66,192,150,180
52,35,28,31,63,192,154,182
51,39,33,34,64,226,178,202
54,44,38,35,70,244,183,209
51,45,39,35,69,229,186,221
46,42,36,34,70,238,189,202
44,41,38,36,68,224,157,170
39,39,34,34,71,243,143,183
33,33,29,33,63,226,145,174
35,41,32,36,65,244,154,206
38,48,33,37,66,247,159,210
36,50,32,38,63,244,156,215
34,48,32,36,51,180,139,180
37,50,34,37,57,185,176,193
38,44,29,36,64,189,169,165
36,36,30,35,64,184,161,157
42,36,32,35,70,217,161,171
43,37,32,35,75,226,169,172
44,40,32,35,71,253,132,153
43,39,33,33,63,240,138,163
49,45,34,35,65,247,148,172
51,45,31,35,62,241,153,162
55,51,34,37,59,242,146,183
51,49,35,36,60,211,130,179
57,50,35,40,63,222,139,156
62,49,39,42,79,266,130,162
63,49,40,42,78,254,126,150
63,42,42,42,79,254,138,169
66,41,44,41,74,244,136,173
64,39,44,38,71,228,131,178
70,43,44,39,61,233,163,200
72,49,44,41,72,257,178,242
74,56,42,43,89,309,187,246
77,66,41,45,95,331,197,260
78,70,44,46,100,336,205,276
77,68,42,46,106,324,201,280
81,75,45,46,106,346,208,278
78,75,50,49,105,359,209,263
82,72,52,51,107,351,208,266
88,75,55,54,104,361,230,282
84,90,57,52,97,350,217,266
78,93,56,50,102,379,220,255
83,91,54,47,100,338,214,242
78,87,54,43,98,349,245,290
69,83,48,41,122,430,222,256
68,69,44,41,130,500,236,263
78,62,42,42,122,454,235,262
84,65,41,43,117,462,242,276
86,73,40,46,118,451,214,205
88,77,45,48,105,390,222,220
86,81,49,50,101,286,215,230
77,84,50,53,98,311,208,222
73,89,49,53,96,304,202,216
68,82,46,49,96,310,207,215
68,81,46,51,89,310,192,208
75,81,45,53,96,367,198,202
71,83,45,54,105,352,199,217
77,91,50,53,125,418,199,236
84,103,51,55,122,417,183,247
89,109,52,55,136,441,195,239
80,108,52,56,145,454,186,260
84,104,55,57,160,525,179,238
78,95,51,57,155,487,169,225
83,88,55,59,190,569,192,237
95,89,52,55,177,541,183,239
96,87,49,50,165,510,178,195
96,83,45,45,154,457,182,224
103,88,51,51,155,478,187,223
100,90,46,53,119,400,183,210
87,79,41,52,128,419,192,217
89,86,44,53,129,461,198,222
90,97,46,54,120,441,185,197
81,90,37,47,106,402,188,192
77,93,41,46,115,451,255,212
71,95,46,52,121,463,255,243
70,90,43,51,123,417,247,246
69,97,49,54,139,438,247,241
72,97,50,53,139,453,263,304
77,103,52,54,134,427,208,303
79,102,49,47,124,398,195,280
80,110,51,49,118,381,198,296
89,116,52,49,104,378,228,339
87,137,61,58,118,385,247,300
80,129,56,55,109,335,246,282
83,145,62,59,103,324,243,274
88,142,66,62,148,426,269,266
84,128,61,59,152,456,260,204
90,115,53,52,148,444,240,207
94,114,56,54,152,456,227,212
91,94,52,52,160,508,232,218
95,95,48,47,121,443,232,249
91,98,52,49,118,435,228,263
86,86,52,52,109,425,210,237
89,91,52,52,111,412,213,240
93,101,50,51,100,368,211,234
94,102,55,57,106,371,198,192
93,107,53,57,101,349,182,171
99,111,54,57,98,346,195,190
95,107,53,54,85,356,182,178
95,96,54,56,98,374,184,173
87,106,46,49,96,379,162,168
93,100,48,51,92,354,160,179
86,98,48,52,117,422,174,152
90,106,49,55,128,425,183,172
92,109,48,56,122,388,190,189
88,98,50,55,119,403,188,174
85,90,47,53,121,397,204,193
93,98,43,52,101,364,169,208
89,92,41,52,90,345,188,215
102,120,54,60,86,355,203,259
99,117,56,62,89,329,209,264
97,118,55,62,83,318,194,250
92,109,58,63,102,364,248,254
92,110,61,63,106,369,249,281
75,95,52,56,128,394,232,254
75,100,51,54,127,383,229,260
73,104,52,53,130,393,230,255
68,103,50,47,122,344,169,240
73,101,49,49,119,345,191,232
80,91,50,49,120,450,235,242
79,94,51,52,118,441,236,236
82,89,54,54,123,446,242,259
81,93,52,55,117,452,259,267
79,92,51,54,116,459,230,245
69,84,47,47,87,330,183,215
77,84,45,47,82,340,177,229
92,84,39,44,74,344,177,222
101,79,40,44,72,302,158,222
103,87,38,46,75,288,160,202
107,95,39,46,89,298,169,190
103,88,41,47,96,320,181,181
90,89,41,49,94,308,172,157
86,97,39,51,90,313,191,147
77,98,36,45,83,311,185,153
73,86,36,46,71,288,192,196
71,87,33,43,65,274,196,210
76,100,35,43,89,309,205,225
71,100,39,42,90,287,179,220
69,87,42,43,98,315,180,218
70,103,46,44,98,327,161,193
70,104,46,45,98,318,147,171
74,115,58,52,97,334,141,158
76,110,62,53,113,389,147,151
77,112,63,53,108,365,132,148
84,103,65,58,112,366,170,214
87,99,66,58,116,372,165,222
79,75,58,51,97,318,184,225
78,75,51,51,80,239,185,242
82,73,52,53,87,242,190,237
71,68,49,45,87,289,157,176
73,71,46,43,82,296,159,192
80,84,43,44,96,389,167,201
81,103,46,40,98,415,175,207
81,110,48,41,103,438,179,240
79,109,44,42,102,400,177,240
75,106,45,45,103,387,178,221
69,105,45,43,99,336,225,224
67,87,43,41,100,309,218,208
65,101,40,38,87,268,225,173
67,105,41,38,82,250,226,164
71,115,53,41,91,295,240,214
67,113,54,44,90,306,190,215
63,111,54,41,84,312,193,207
61,91,55,48,103,360,181,229
58,97,54,48,103,368,175,229
62,94,49,45,104,354,148,220
66,108,52,47,106,317,115,235
73,118,60,55,113,326,115,249
72,128,57,50,96,283,106,234
87,132,61,52,100,291,121,247
84,125,57,50,91,278,135,218
86,109,53,49,101,331,165,213
81,98,46,46,101,338,165,203
85,92,47,49,102,335,171,216
72,85,46,51,96,331,189,236
69,83,46,53,93,313,190,237
58,74,44,51,77,281,171,213
56,75,41,49,69,266,164,209
58,90,47,54,92,319,171,241
55,83,43,49,93,313,144,215
57,85,42,47,95,316,149,244
60,89,42,47,91,289,151,237
63,91,48,49,103,400,172,243
62,81,42,40,84,358,168,203
62,83,42,46,88,374,195,200
62,82,44,46,95,415,184,156
60,88,48,47,102,422,175,161
62,91,46,47,104,394,161,163
64,94,46,45,104,404,152,168
70,93,54,49,105,418,164,191
70,103,55,50,106,408,164,192
75,104,55,50,102,405,164,197
69,98,51,45,87,337,169,206
67,100,51,50,99,385,185,213
61,110,47,51,106,356,159,225
57,102,44,50,105,362,170,232
54,100,41,50,105,357,170,225
62,110,44,52,112,384,168,216
61,96,44,51,110,340,170,197
69,105,44,45,102,347,159,146
73,114,46,48,111,335,139,127
71,120,47,48,110,342,148,158
75,117,53,52,106,324,170,168
81,121,56,54,107,330,160,185
80,106,53,53,107,337,169,204
79,100,54,49,103,384,184,204
77,93,51,49,112,420,192,187
67,96,46,50,124,461,174,174
59,94,41,44,119,454,176,164
62,95,41,43,124,462,180,195
77,99,41,47,120,419,182,204
87,100,41,45,113,376,190,216
89,99,41,41,110,372,191,220
105,102,46,43,110,393,223,228
109,101,48,44,107,417,217,211
105,101,52,52,103,422,206,221
105,113,59,56,128,505,233,224
103,106,58,54,127,511,237,240
85,106,55,54,125,510,224,245
73,98,54,56,124,500,241,238
71,98,54,53,128,496,266,235
79,100,50,53,118,453,232,232
79,109,51,55,120,451,219,212
113,117,60,60,128,500,200,201
114,129,60,57,130,494,167,185
117,125,61,55,131,495,177,194
108,106,58,53,125,480,173,171
111,104,57,54,114,432,171,182
102,100,50,55,126,457,241,220
102,88,51,59,122,438,245,228
102,88,45,55,122,440,239,244
112,107,46,57,119,469,254,267
115,118,47,58,125,505,288,275
99,122,47,53,111,422,233,232
115,128,51,53,126,499,243,227
113,136,51,53,126,524,235,195
104,123,48,49,121,519,261,181
98,106,46,45,121,530,239,171
112,146,51,54,124,554,258,193
96,146,45,52,106,489,252,199
93,140,47,56,118,522,247,216
92,146,52,63,153,578,218,209
92,147,52,64,147,551,209,205
80,116,46,57,153,555,205,207
83,113,50,62,155,576,219,226
104,109,50,62,160,540,233,263
107,112,48,58,131,473,219,285
110,117,51,62,136,457,217,281
103,101,50,61,129,470,204,271
104,106,48,55,133,465,205,264
84,109,51,58,121,478,196,203
78,109,51,57,117,453,206,163
74,105,46,53,112,453,213,203
71,102,44,52,99,385,207,225
62,92,44,52,91,353,198,221
66,108,40,41,76,284,190,236
63,102,37,42,73,283,173,240
74,136,49,49,83,340,201,201
75,139,58,56,108,387,227,220
73,144,59,54,107,399,217,205
63,135,59,55,110,402,206,187
71,139,60,53,110,383,210,185
63,111,51,45,97,313,182,205
69,110,42,36,74,264,148,180
71,110,42,37,70,233,150,183
73,106,52,40,67,212,166,201
65,98,51,39,73,252,193,197
73,99,52,40,76,268,195,219
72,95,52,46,86,289,195,215
75,94,54,46,85,284,195,221
72,93,43,41,82,282,192,206
78,90,43,47,89,305,172,232
66,80,47,51,101,351,168,192
67,88,44,46,98,331,161,178
64,91,42,50,107,408,167,168
69,90,44,51,109,422,174,187
66,106,45,46,106,422,168,170
64,105,37,40,96,388,171,170
56,102,38,41,91,378,178,164
68,104,43,40,99,352,178,196
72,113,47,41,108,357,177,183
71,98,45,43,103,317,179,175
74,110,57,45,119,387,194,243
77,118,57,44,121,403,206,247
73,130,53,42,126,432,197,225
64,127,49,41,122,425,180,223
66,131,51,43,150,500,204,225
76,124,42,49,140,440,220,191
73,113,40,48,136,429,200,175
65,87,40,47,120,351,202,171
70,81,43,47,114,335,206,169
70,87,43,46,75,197,179,175
57,84,41,43,70,247,171,197
61,83,42,44,86,265,175,214
67,93,42,43,85,298,188,222
59,89,42,45,101,365,193,220
59,80,44,45,108,411,216,219
64,81,44,40,110,404,191,191
63,83,43,40,100,384,189,189
57,74,46,46,105,370,185,188
59,99,51,52,96,313,183,220
69,121,51,52,92,274,172,222
60,117,50,51,85,223,171,191
63,130,52,50,81,239,174,185
86,142,52,46,89,262,194,218
92,127,45,41,83,265,191,182
86,106,42,39,80,253,196,187
93,119,51,47,87,282,199,189
92,111,48,52,97,298,196,196
79,98,46,51,92,288,166,169
71,99,44,48,89,272,166,175
68,99,44,47,86,279,137,158
74,88,36,42,90,302,160,203
77,95,39,41,81,299,158,200
78,106,39,41,69,275,152,184
83,114,41,48,75,301,176,186
81,113,40,50,76,290,178,182
75,118,39,53,73,273,156,165
74,110,37,52,72,287,179,167
71,105,36,55,73,301,184,183
70,96,35,49,69,270,169,187
77,101,39,57,70,309,178,191
73,94,40,53,58,289,162,159
69,85,38,52,56,264,166,148
68,80,39,47,61,263,165,131
67,87,41,48,60,311,167,143
58,81,36,36,58,273,155,133
57,84,38,38,57,262,170,141
56,85,39,41,56,257,145,153
59,81,41,44,59,262,173,172
58,80,39,42,58,215,161,156
62,86,44,52,60,238,169,178
72,90,42,52,65,285,177,208
75,92,44,49,64,283,177,230
83,98,48,52,78,318,180,218
86,94,51,55,92,352,177,224
86,89,48,48,91,329,167,208
78,82,51,55,93,311,152,199
75,81,61,59,121,386,176,183
68,89,56,57,112,352,158,189
67,86,53,56,106,326,161,179
66,88,53,57,115,348,195,204
69,90,49,54,117,354,195,191
70,93,36,51,93,280,175,184
64,82,37,52,97,274,175,184
64,87,39,58,98,290,220,230
67,116,43,57,87,259,194,219
67,117,45,56,85,227,191,213
68,122,47,56,84,217,197,201
75,124,46,51,77,213,202,204
74,126,47,48,69,188,154,190
78,106,46,49,77,281,162,185
76,100,42,43,83,308,160,177
78,106,44,43,93,361,151,222
74,108,45,48,119,432,156,226
73,113,48,50,127,455,158,220
64,110,47,47,123,416,153,233
71,123,55,52,122,423,164,245
67,114,55,54,121,403,174,214
75,110,55,52,97,334,149,229
73,95,50,46,85,286,156,218
72,107,52,48,83,274,151,204
71,105,46,48,75,245,153,214
79,102,51,54,84,243,159,269
70,98,50,61,89,312,183,246
74,102,52,65,94,332,176,237
77,98,49,68,98,359,189,280
71,85,47,66,104,377,176,262
62,86,43,62,104,402,192,233
59,87,46,56,101,353,170,240
58,102,46,58,103,346,174,262
59,93,44,56,103,327,167,221
70,98,47,63,106,363,179,241
73,99,41,63,91,321,165,233
76,102,38,64,87,320,178,252
73,84,39,63,85,327,178,235
67,79,41,62,81,316,170,230
58,70,36,55,72,247,164,221
67,76,40,56,75,218,145,195
63,72,44,60,79,247,136,161
70,82,51,68,98,303,140,192
71,82,50,67,101,311,154,191
70,84,54,72,100,303,146,178
51,73,52,70,95,304,137,171
61,76,50,67,101,283,157,177
51,58,41,57,85,203,141,130
48,55,44,60,85,201,146,134
54,63,44,61,102,254,164,155
58,60,43,61,108,283,175,157
50,62,40,64,103,291,180,159
50,68,38,61,94,290,186,169
60,77,48,74,101,334,210,237
61,77,52,79,85,297,226,245
61,86,52,78,78,313,220,251
61,86,52,79,74,302,204,243
67,97,54,83,81,312,222,248
66,111,46,69,66,253,197,196
63,107,42,59,67,251,192,172
62,104,44,61,73,214,206,172
62,101,43,54,77,236,212,165
54,87,42,50,77,276,218,151
47,67,43,52,91,327,217,136
43,67,36,51,88,328,220,145
53,78,35,52,86,321,236,150
54,79,37,53,86,304,239,151
55,81,41,60,80,254,224,151
51,76,37,58,68,201,222,144
57,78,43,63,67,193,202,144
46,64,43,64,64,176,184,134
44,60,40,64,54,160,163,130
74,59,38,59,61,192,149,161
75,58,40,61,57,168,139,203
75,57,37,58,54,172,128,196
83,71,39,55,51,178,147,206
87,77,42,55,68,196,155,213
85,85,50,60,68,180,196,231
88,87,51,64,68,195,200,194
88,87,50,61,76,198,203,206
82,78,50,63,84,226,197,203
76,79,53,67,76,208,213,209
59,69,43,61,72,204,188,170
53,66,43,56,75,231,202,181
51,66,43,57,68,237,202,169
49,65,42,62,66,227,187,166
58,71,44,61,72,239,202,156
54,76,47,59,75,272,210,141
55,83,45,61,74,249,214,140
64,84,48,61,80,257,224,157
67,97,46,53,77,247,225,148
61,87,40,48,66,232,195,140
60,84,41,55,67,176,172,156
64,77,41,58,70,163,159,170
55,85,43,66,69,125,149,156
53,69,46,66,66,116,139,154
54,76,46,66,70,119,159,162
56,78,46,67,68,115,162,156
54,86,45,62,66,131,177,136
55,71,41,51,62,150,189,163
54,77,39,49,61,140,191,163
59,81,42,52,72,197,189,164
59,84,41,49,70,209,222,187
56,76,40,49,65,208,200,180
57,84,42,51,61,194,186,149
56,77,40,51,63,193,183,146
63,74,40,49,53,143,190,174
59,65,36,44,48,125,149,141
64,66,37,42,51,152,153,138
66,56,36,42,52,157,157,149
67,66,39,47,67,199,172,156
57,58,35,46,63,209,175,118
74,68,44,53,72,289,277,156
70,80,48,57,72,272,280,156
70,83,46,60,75,299,278,151
80,84,47,62,70,300,279,152
78,84,46,61,71,303,262,152
65,76,39,59,67,229,205,131
66,71,35,54,71,260,202,137
66,85,38,54,68,277,213,183
51,78,36,47,60,252,199,176
56,84,46,54,75,310,213,182
54,96,49,57,77,328,172,173
57,96,47,57,74,321,177,172
51,81,48,52,79,357,169,131
59,87,53,57,83,372,176,145
70,96,53,65,90,351,185,177
78,93,52,69,90,354,179,191
86,93,63,77,99,431,204,277
95,100,62,79,101,412,204,291
95,93,59,82,104,407,208,294
100,83,61,78,94,428,196,292
108,82,67,77,106,461,222,400
132,97,75,99,133,414,229,422
161,136,103,118,152,402,245,479
164,142,105,116,156,444,263,513
176,151,111,124,165,516,262,576
176,150,111,130,204,648,254,527
164,155,107,114,204,739,276,549
148,124,90,101,197,778,281,526
160,123,94,108,213,860,288,553
146,116,91,106,208,805,304,511
152,121,92,101,170,710,319,493
161,117,97,112,161,702,316,435
165,134,94,116,150,721,302,414
165,142,94,113,135,631,293,401
165,145,88,107,139,671,296,367
174,147,84,104,147,695,284,402
158,134,74,93,139,638,252,383
143,116,70,82,157,623,269,410
140,107,64,75,154,690,254,346
133,103,63,72,151,678,233,353
103,98,62,65,141,641,211,321
116,104,62,66,153,661,252,317
115,103,60,64,164,721,297,293
109,101,61,70,169,673,345,287
125,108,64,73,166,707,344,308
128,109,63,79,168,716,356,293
115,105,61,76,153,671,332,289
124,103,62,80,126,590,276,266
127,104,61,77,117,620,221,269
117,93,60,81,121,567,230,245
120,84,61,75,119,539,225,271
122,101,60,72,120,519,216,318
118,122,59,72,114,466,218,313
118,123,55,69,109,430,244,342
114,121,53,62,107,421,241,328
107,121,48,62,101,421,244,299
104,105,50,61,95,435,248,259
116,100,55,75,109,489,261,299
108,106,62,80,140,557,244,292
107,117,65,84,136,555,232,303
108,120,68,86,141,578,223,322
119,127,66,85,146,607,238,336
98,110,61,71,138,554,212,292
96,108,55,69,107,425,200,268
95,101,53,69,108,413,206,282
96,97,50,66,95,358,203,271
76,86,52,68,94,298,184,248
101,86,52,67,95,350,198,262
98,75,49,65,97,344,204,275
94,91,46,56,91,326,201,265
92,92,48,54,95,351,202,253
107,94,45,59,93,341,228,275
84,88,44,56,83,288,223,253
87,93,45,52,79,270,209,239
98,82,50,54,84,303,213,228
98,81,50,52,80,286,205,233
91,81,46,42,77,295,170,190
90,87,51,55,101,344,171,211
84,81,47,53,104,365,211,193
76,87,43,55,104,342,202,175
78,88,40,59,105,344,210,202
77,94,49,61,111,357,215,205
79,92,46,57,98,313,225,193
83,99,49,58,97,315,197,187
89,87,49,58,92,312,197,255
94,100,55,57,101,329,201,246
83,89,48,56,91,310,191,240
90,88,47,56,83,307,185,255
94,82,53,59,90,342,199,256
83,76,51,61,94,342,208,190
74,62,49,67,88,319,211,198
76,85,55,71,101,359,207,208
66,83,54,71,108,370,219,203
53,78,49,70,97,299,194,204
56,86,52,72,94,284,199,224
54,81,50,64,94,286,187,197
51,62,45,62,81,227,210,188
55,62,48,58,73,197,182,181
59,73,46,63,70,203,186,200
62,79,49,63,77,210,171,186
64,83,55,71,79,223,176,227
64,79,57,79,83,209,150,232
59,79,55,80,82,200,157,217
68,86,55,78,88,223,170,225
78,89,52,71,82,230,195,252
78,93,53,69,81,209,201,223
80,95,53,58,91,285,216,227
86,102,52,61,94,311,221,232
81,91,51,61,93,324,210,206
79,78,51,63,102,370,204,174
76,84,44,59,97,369,195,174
76,81,43,64,89,356,185,164
72,74,47,66,101,377,188,172
74,71,50,66,101,373,191,210
62,81,47,64,95,354,186,215
66,66,48,63,98,364,203,234
66,75,47,57,93,322,219,272
64,71,40,48,75,272,224,293
68,80,48,53,72,274,234,307
69,70,51,61,66,240,243,338
66,72,48,60,63,227,226,325
68,64,50,62,69,262,239,320
70,74,53,63,74,285,228,313
61,70,48,57,75,259,217,284
66,72,45,51,79,287,197,229
69,73,45,59,81,288,219,255
67,84,46,63,86,296,192,228
66,82,46,66,83,279,185,200
65,78,43,66,84,274,180,182
70,83,45,66,82,247,183,229
71,81,47,63,82,280,155,195
77,82,46,57,68,239,144,205
75,77,46,55,70,244,145,203
81,80,44,52,72,280,152,224
78,86,45,59,77,276,158,176
81,87,46,61,83,264,169,186
75,79,48,64,86,269,159,158
74,80,47,64,85,261,159,163
78,101,54,66,84,241,178,153
76,89,51,58,78,262,180,160
70,89,52,54,68,256,196,150
67,88,48,51,74,272,198,162
76,90,52,54,70,288,205,176
73,66,51,54,67,273,191,183
72,84,56,63,71,262,222,222
80,84,57,66,79,251,227,228
86,87,60,78,78,248,246,236
85,90,59,75,81,256,241,218
101,96,62,78,86,261,312,290
111,92,68,77,88,314,280,269
106,89,64,75,93,347,265,266
104,84,64,66,97,339,269,280
131,101,74,79,114,414,297,318
121,96,70,76,115,414,229,248
108,85,60,73,117,369,235,251
107,87,61,71,110,344,230,245
111,92,65,76,107,343,245,288
74,66,51,63,90,252,213,250
71,62,53,66,96,289,207,249
75,67,53,66,92,288,218,262
78,68,55,67,88,273,236,282
68,63,49,61,82,283,199,220
70,69,52,62,80,274,194,227
67,69,49,63,63,276,200,241
70,70,48,62,59,284,225,230
71,71,48,64,61,322,207,227
77,70,50,64,65,358,220,220
81,69,50,64,63,355,255,222
81,80,54,58,68,344,244,204
81,97,57,61,81,386,244,183
100,101,61,63,86,400,262,197
95,104,59,59,91,416,276,197
104,114,63,62,98,486,265,230
105,107,59,65,99,481,267,228
105,95,57,60,102,520,238,246
98,93,58,68,100,515,240,223
113,97,56,71,102,565,241,243
99,78,47,65,95,514,218,206
96,80,47,63,92,512,223,204
93,78,48,63,90,513,233,187
82,76,49,55,95,498,211,189
73,88,53,55,91,382,177,183
75,90,53,58,91,384,183,191
84,92,52,58,93,445,210,231
80,86,52,61,95,426,195,233
80,84,47,60,97,457,236,233
69,69,42,59,95,518,240,210
76,72,44,60,96,506,240,199
69,72,46,65,100,494,210,154
73,71,42,68,91,433,213,149
69,74,41,63,84,400,161,130
75,73,45,60,86,374,180,161
78,78,44,63,85,431,178,162
81,77,44,56,79,384,185,162
84,84,47,52,75,402,196,224
88,85,47,53,69,406,197,225
85,82,45,62,77,384,171,216
82,79,47,61,87,429,188,227
86,78,45,69,89,470,191,237
82,80,46,68,98,486,197,197
84,81,63,81,128,588,224,198
86,82,66,80,124,583,253,213
79,76,65,77,120,530,240,196
71,81,68,75,124,569,245,190
66,89,66,74,116,587,233,170
56,82,51,65,89,508,212,164
45,81,47,62,87,512,177,151
51,84,49,62,88,533,200,203
56,88,45,60,83,460,196,200
67,94,46,60,87,427,204,219
69,97,45,58,92,440,211,224
70,94,43,50,88,450,206,215
65,99,41,51,93,491,228,234
59,90,41,52,95,539,238,237
65,73,50,59,98,558,314,262
66,76,53,64,99,538,317,264
69,82,58,75,106,530,328,263
70,78,57,78,96,443,300,211
74,95,62,84,101,400,290,209
67,98,57,86,93,398,204,161
65,92,57,82,84,393,195,168
62,92,53,73,76,382,186,180
72,100,56,76,97,464,201,192
67,84,51,68,90,461,202,185
68,86,53,60,99,437,192,182
71,91,52,62,98,441,207,169
91,91,56,68,102,459,221,177
85,82,56,62,93,478,221,176
85,81,56,65,91,456,214,172
84,99,57,72,86,443,212,166
86,97,64,81,111,506,219,201
70,98,62,80,114,523,218,187
68,96,63,91,116,489,204,175
70,96,64,89,115,497,207,184
71,75,61,82,113,520,243,232
66,75,55,77,106,454,215,198
63,74,57,79,104,422,202,192
73,96,66,76,103,413,236,222
74,109,69,93,117,477,259,221
69,108,68,93,117,465,224,171
72,110,66,92,110,489,245,217
73,110,71,89,145,584,289,237
70,99,63,85,143,597,258,205
66,94,58,70,137,545,238,200
71,134,63,78,140,558,243,214
71,136,63,80,136,546,228,185
69,137,54,80,102,473,182,190
75,137,60,87,107,416,241,270
79,131,61,84,104,488,241,275
71,90,58,77,101,466,249,271
77,86,63,83,113,547,242,339
79,83,67,85,118,600,235,336
71,83,58,74,114,657,179,280
72,83,60,74,133,707,193,287
82,81,60,76,136,713,187,308
89,89,59,71,136,712,207,242
110,126,67,76,164,797,276,269
109,131,73,80,166,803,291,303
114,135,76,83,164,769,303,303
125,145,82,91,181,834,339,402
131,149,91,94,183,816,349,458
151,139,98,103,178,707,359,540
185,158,132,136,213,750,404,617
194,159,137,138,208,718,387,667
268,240,187,177,237,795,363,715
268,237,184,177,234,775,357,702
264,233,179,171,225,801,324,649
270,244,165,157,211,778,367,593
273,265,172,167,257,943,451,608
194,203,119,120,223,884,480,481
